7496.91655,0.10148
7494.98784,0.09666
7493.05912,0.09892
7491.13041,0.09425
7489.20169,0.08729
7487.27297,0.08680
7485.34426,0.08324
7483.41554,0.06963
7481.48683,0.06754
7479.55811,0.08244
7477.62940,0.09093
7475.70068,0.09210
7473.77197,0.09913
7471.84325,0.10495
7469.91454,0.09206
7467.98582,0.07438
7466.05711,0.07363
7464.12839,0.08624
7462.19968,0.09874
7460.27096,0.10771
7458.34224,0.11048
7456.41353,0.11122
7454.48481,0.11277
7452.55610,0.10880
7450.62738,0.08829
7448.69867,0.06627
7446.76995,0.06632
7444.84124,0.08061
7442.91252,0.08737
7440.98381,0.08710
7439.05509,0.09396
7437.12638,0.10738
7435.19766,0.11331
7433.26895,0.10613
7431.34023,0.08884
7429.41151,0.07506
7427.48280,0.07549
7425.55408,0.08380
7423.62537,0.09302
7421.69665,0.09915
7419.76794,0.09301
7417.83922,0.08384
7415.91051,0.08004
7413.98179,0.07740
7412.05308,0.07534
7410.12436,0.07675
7408.19565,0.08397
7406.26693,0.09735
7404.33821,0.10703
7402.40950,0.10248
7400.48078,0.08644
7398.55207,0.07646
7396.62335,0.07880
7394.69464,0.08492
7392.76592,0.08747
7390.83721,0.08907
7388.90849,0.08446
7386.97978,0.07395
7385.05106,0.06626
7383.12235,0.06410
7381.19363,0.06781
7379.26492,0.08297
7377.33620,0.09620
7375.40748,0.08994
7373.47877,0.07364
7371.55005,0.06963
7369.62134,0.07735
7367.69262,0.08714
7365.76391,0.09338
7363.83519,0.10397
7361.90648,0.11553
7359.97776,0.11391
7358.04905,0.09874
7356.12033,0.08437
7354.19162,0.08313
7352.26290,0.08276
7350.33419,0.06232
7348.40547,0.03721
7346.47675,0.04063
7344.54804,0.07016
7342.61932,0.09688
7340.69061,0.10434
7338.76189,0.10304
7336.83318,0.09815
7334.90446,0.08953
7332.97575,0.08621
7331.04703,0.08628
7329.11832,0.08613
7327.18960,0.09264
7325.26089,0.10582
7323.33217,0.10948
7321.40346,0.09943
7319.47474,0.09525
7317.54602,0.09605
7315.61731,0.09148
7313.68859,0.09554
7311.75988,0.10488
7309.83116,0.09724
7307.90245,0.07926
7305.97373,0.07365
7304.04502,0.07696
7302.11630,0.06695
7300.18759,0.05069
7298.25887,0.05561
7296.33016,0.07671
7294.40144,0.09606
7292.47272,0.10295
7290.54401,0.09477
7288.61529,0.08075
7286.68658,0.07396
7284.75786,0.07641
7282.82915,0.08455
7280.90043,0.09332
7278.97172,0.08943
7277.04300,0.07484
7275.11429,0.06870
7273.18557,0.07405
7271.25686,0.08348
7269.32814,0.09057
7267.39943,0.09049
7265.47071,0.08659
7263.54199,0.08435
7261.61328,0.08686
7259.68456,0.09804
7257.75585,0.10604
7255.82713,0.10225
7253.89842,0.09245
7251.96970,0.08945
7250.04099,0.09321
7248.11227,0.09220
7246.18356,0.08225
7244.25484,0.07415
7242.32613,0.07006
7240.39741,0.06261
7238.46870,0.05997
7236.53998,0.06765
7234.61126,0.07779
7232.68255,0.08779
7230.75383,0.09675
7228.82512,0.09558
7226.89640,0.08073
7224.96769,0.07147
7223.03897,0.08141
7221.11026,0.09199
7219.18154,0.08665
7217.25283,0.07581
7215.32411,0.07174
7213.39540,0.07635
7211.46668,0.08568
7209.53796,0.09820
7207.60925,0.10874
7205.68053,0.11162
7203.75182,0.10853
7201.82310,0.10233
7199.89439,0.09173
7197.96567,0.07859
7196.03696,0.06779
7194.10824,0.06043
7192.17953,0.05294
7190.25081,0.05582
7188.32210,0.07356
7186.39338,0.09044
7184.46467,0.09175
7182.53595,0.08313
7180.60723,0.07983
7178.67852,0.08876
7176.74980,0.09692
7174.82109,0.09292
7172.89237,0.07962
7170.96366,0.07316
7169.03494,0.08514
7167.10623,0.09948
7165.17751,0.09160
7163.24880,0.07079
7161.32008,0.05629
7159.39137,0.05584
7157.46265,0.06818
7155.53394,0.08437
7153.60522,0.09867
7151.67650,0.10761
7149.74779,0.10005
7147.81907,0.08375
7145.89036,0.07810
7143.96164,0.07604
7142.03293,0.06577
7140.10421,0.06070
7138.17550,0.07259
7136.24678,0.09318
7134.31807,0.10721
7132.38935,0.10962
7130.46064,0.10198
7128.53192,0.08757
7126.60321,0.07607
7124.67449,0.07722
7122.74577,0.08360
7120.81706,0.08687
7118.88834,0.09042
7116.95963,0.08945
7115.03091,0.07871
7113.10220,0.07386
7111.17348,0.08293
7109.24477,0.09407
7107.31605,0.09560
7105.38734,0.08875
7103.45862,0.08171
7101.52991,0.07745
7099.60119,0.07090
7097.67247,0.06355
7095.74376,0.06319
7093.81504,0.06776
7091.88633,0.07239
7089.95761,0.08089
7088.02890,0.08997
7086.10018,0.09241
7084.17147,0.08717
7082.24275,0.07973
7080.31404,0.07688
7078.38532,0.07664
7076.45661,0.07029
7074.52789,0.06453
7072.59918,0.06779
7070.67046,0.08211
7068.74174,0.09563
7066.81303,0.09990
7064.88431,0.09544
7062.95560,0.08927
7061.02688,0.08665
7059.09817,0.08600
7057.16945,0.08610
7055.24074,0.08881
7053.31202,0.09285
7051.38331,0.09559
7049.45459,0.09364
7047.52588,0.08485
7045.59716,0.07604
7043.66845,0.07658
7041.73973,0.08348
7039.81101,0.08788
7037.88230,0.08818
7035.95358,0.08718
7034.02487,0.08410
7032.09615,0.08152
7030.16744,0.08389
7028.23872,0.09146
7026.31001,0.10014
7024.38129,0.10111
7022.45258,0.09330
7020.52386,0.08776
7018.59515,0.08949
7016.66643,0.09134
7014.73771,0.08720
7012.80900,0.08323
7010.88028,0.08398
7008.95157,0.08670
7007.02285,0.08866
7005.09414,0.08658
7003.16542,0.08188
7001.23671,0.08068
6999.30799,0.08162
6997.37928,0.08350
6995.45056,0.08754
6993.52185,0.09121
6991.59313,0.08958
6989.66442,0.08345
6987.73570,0.08090
6985.80698,0.08600
6983.87827,0.09007
6981.94955,0.08857
6980.02084,0.09081
6978.09212,0.10059
6976.16341,0.10685
6974.23469,0.10529
6972.30598,0.09839
6970.37726,0.09124
6968.44855,0.09077
6966.51983,0.10103
6964.59112,0.10990
6962.66240,0.10481
6960.73369,0.09510
6958.80497,0.09608
6956.87625,0.09915
6954.94754,0.09059
6953.01882,0.08057
6951.09011,0.08198
6949.16139,0.08949
6947.23268,0.09623
6945.30396,0.09833
6943.37525,0.09632
6941.44653,0.09679
6939.51782,0.09871
6937.58910,0.09484
6935.66039,0.09004
6933.73167,0.09358
6931.80296,0.10135
6929.87424,0.10008
6927.94552,0.09215
6926.01681,0.09235
6924.08809,0.10299
6922.15938,0.11031
6920.23066,0.11001
6918.30195,0.10947
6916.37323,0.10603
6914.44452,0.09813
6912.51580,0.09590
6910.58709,0.09646
6908.65837,0.09094
6906.72966,0.08597
6904.80094,0.08707
6902.87222,0.09058
6900.94351,0.09419
6899.01479,0.09600
6897.08608,0.09567
6895.15736,0.09378
6893.22865,0.09268
6891.29993,0.09671
6889.37122,0.10597
6887.44250,0.11147
6885.51379,0.10715
6883.58507,0.10107
6881.65636,0.10124
6879.72764,0.10463
6877.79893,0.10863
6875.87021,0.10968
6873.94149,0.10554
6872.01278,0.10191
6870.08406,0.10343
6868.15535,0.10683
6866.22663,0.10711
6864.29792,0.10482
6862.36920,0.10204
6860.44049,0.10370
6858.51177,0.11211
6856.58306,0.11376
6854.65434,0.10410
6852.72563,0.09607
6850.79691,0.09358
6848.86820,0.09250
6846.93948,0.09048
6845.01076,0.08755
6843.08205,0.08771
6841.15333,0.09101
6839.22462,0.09372
6837.29590,0.09227
6835.36719,0.08980
6833.43847,0.08961
6831.50976,0.08889
6829.58104,0.08940
6827.65233,0.09595
6825.72361,0.10289
6823.79490,0.10446
6821.86618,0.10518
6819.93746,0.10588
6818.00875,0.10045
6816.08003,0.09029
6814.15132,0.08379
6812.22260,0.08473
6810.29389,0.09108
6808.36517,0.09855
6806.43646,0.09920
6804.50774,0.09569
6802.57903,0.09574
6800.65031,0.09475
6798.72160,0.09230
6796.79288,0.09483
6794.86417,0.09867
6792.93545,0.09985
6791.00673,0.10283
6789.07802,0.10824
6787.14930,0.10690
6785.22059,0.09865
6783.29187,0.09469
6781.36316,0.09973
6779.43444,0.10413
6777.50573,0.10348
6775.57701,0.10468
6773.64830,0.10461
6771.71958,0.09702
6769.79087,0.09264
6767.86215,0.09542
6765.93344,0.09598
6764.00472,0.09534
6762.07600,0.09966
6760.14729,0.10685
6758.21857,0.11132
6756.28986,0.11128
6754.36114,0.11013
6752.43243,0.10576
6750.50371,0.09816
6748.57500,0.09171
6746.64628,0.09070
6744.71757,0.09739
6742.78885,0.10857
6740.86014,0.11432
6738.93142,0.10919
6737.00271,0.09742
6735.07399,0.08909
6733.14527,0.08878
6731.21656,0.09196
6729.28784,0.09451
6727.35913,0.09732
6725.43041,0.09963
6723.50170,0.10267
6721.57298,0.10661
6719.64427,0.10629
6717.71555,0.10064
6715.78684,0.09510
6713.85812,0.09355
6711.92941,0.09573
6710.00069,0.09884
6708.07197,0.09978
6706.14326,0.09800
6704.21454,0.09730
6702.28583,0.09873
6700.35711,0.10031
6698.42840,0.10249
6696.49968,0.10583
6694.57097,0.10672
6692.64225,0.10422
6690.71354,0.10241
6688.78482,0.10437
6686.85611,0.10912
6684.92739,0.11204
6682.99868,0.10948
6681.06996,0.10617
6679.14124,0.10562
6677.21253,0.10461
6675.28381,0.10274
6673.35510,0.10173
6671.42638,0.09903
6669.49767,0.09658
6667.56895,0.09847
6665.64024,0.10235
6663.71152,0.10474
6661.78281,0.10724
6659.85409,0.11036
6657.92538,0.10978
6655.99666,0.10636
6654.06795,0.10683
6652.13923,0.10960
6650.21051,0.10916
6648.28180,0.10598
6646.35308,0.10380
6644.42437,0.10386
6642.49565,0.10376
6640.56694,0.10088
6638.63822,0.09730
6636.70951,0.09652
6634.78079,0.09991
6632.85208,0.10715
6630.92336,0.11312
6628.99465,0.11111
6627.06593,0.10328
6625.13722,0.09813
6623.20850,0.09944
6621.27978,0.10256
6619.35107,0.10336
6617.42235,0.10158
6615.49364,0.09774
6613.56492,0.09450
6611.63621,0.09584
6609.70749,0.09874
6607.77878,0.09935
6605.85006,0.09843
6603.92135,0.09943
6601.99263,0.10189
6600.06392,0.10043
6598.13520,0.09773
6596.20648,0.10141
6594.27777,0.10740
6592.34905,0.10827
6590.42034,0.10752
6588.49162,0.10925
6586.56291,0.10960
6584.63419,0.10751
6582.70548,0.10559
6580.77676,0.10739
6578.84805,0.11210
6576.91933,0.11245
6574.99062,0.10834
6573.06190,0.10498
6571.13319,0.10208
6569.20447,0.09985
6567.27575,0.10131
6565.34704,0.10578
6563.41832,0.10969
6561.48961,0.11086
6559.56089,0.10769
6557.63218,0.10480
6555.70346,0.10784
6553.77475,0.10999
6551.84603,0.10754
6549.91732,0.10688
6547.98860,0.10643
6546.05989,0.10358
6544.13117,0.10289
6542.20246,0.10436
6540.27374,0.10551
6538.34502,0.10680
6536.41631,0.10880
6534.48759,0.11023
6532.55888,0.10763
6530.63016,0.10554
6528.70145,0.10900
6526.77273,0.11252
6524.84402,0.11563
6522.91530,0.12066
6520.98659,0.12089
6519.05787,0.11571
6517.12916,0.11417
6515.20044,0.11843
6513.27172,0.11984
6511.34301,0.11435
6509.41429,0.10894
6507.48558,0.10911
6505.55686,0.11266
6503.62815,0.11587
6501.69943,0.11481
6499.77072,0.10701
6497.84200,0.09829
6495.91329,0.09540
6493.98457,0.09763
6492.05586,0.10378
6490.12714,0.11002
6488.19843,0.11152
6486.26971,0.11070
6484.34099,0.11116
6482.41228,0.11347
6480.48356,0.11467
6478.55485,0.11232
6476.62613,0.11099
6474.69742,0.11171
6472.76870,0.11043
6470.83999,0.10861
6468.91127,0.10959
6466.98256,0.11070
6465.05384,0.11096
6463.12513,0.11109
6461.19641,0.11074
6459.26770,0.10997
6457.33898,0.10848
6455.41026,0.10679
6453.48155,0.10560
6451.55283,0.10541
6449.62412,0.10669
6447.69540,0.10663
6445.76669,0.10422
6443.83797,0.10199
6441.90926,0.10267
6439.98054,0.10833
6438.05183,0.11542
6436.12311,0.11961
6434.19440,0.12246
6432.26568,0.12309
6430.33697,0.11897
6428.40825,0.11223
6426.47953,0.10792
6424.55082,0.10795
6422.62210,0.10950
6420.69339,0.10887
6418.76467,0.10589
6416.83596,0.10503
6414.90724,0.10812
6412.97853,0.10889
6411.04981,0.10710
6409.12110,0.10865
6407.19238,0.11167
6405.26367,0.11131
6403.33495,0.10950
6401.40623,0.11217
6399.47752,0.11883
6397.54880,0.12153
6395.62009,0.11920
6393.69137,0.11702
6391.76266,0.11784
6389.83394,0.12012
6387.90523,0.11950
6385.97651,0.11574
6384.04780,0.11309
6382.11908,0.11214
6380.19037,0.11392
6378.26165,0.11992
6376.33294,0.12386
6374.40422,0.12139
6372.47550,0.11857
6370.54679,0.11859
6368.61807,0.11885
6366.68936,0.11889
6364.76064,0.11963
6362.83193,0.11916
6360.90321,0.11555
6358.97450,0.11134
6357.04578,0.11079
6355.11707,0.11292
6353.18835,0.11285
6351.25964,0.11085
6349.33092,0.11052
6347.40221,0.11023
6345.47349,0.10869
6343.54477,0.10813
6341.61606,0.10850
6339.68734,0.10723
6337.75863,0.10360
6335.82991,0.09929
6333.90120,0.09726
6331.97248,0.09882
6330.04377,0.10217
6328.11505,0.10506
6326.18634,0.10684
6324.25762,0.10739
6322.32891,0.10859
6320.40019,0.11053
6318.47147,0.11032
6316.54276,0.10660
6314.61404,0.10148
6312.68533,0.10014
6310.75661,0.10392
6308.82790,0.10703
6306.89918,0.10745
6304.97047,0.10594
6303.04175,0.10276
6301.11304,0.10135
6299.18432,0.10501
6297.25561,0.10901
6295.32689,0.10777
6293.39818,0.10357
6291.46946,0.10269
6289.54074,0.10569
6287.61203,0.10849
6285.68331,0.10945
6283.75460,0.10766
6281.82588,0.10452
6279.89717,0.10432
6277.96845,0.10423
6276.03974,0.10038
6274.11102,0.09805
6272.18231,0.09947
6270.25359,0.09996
6268.32488,0.10040
6266.39616,0.10297
6264.46745,0.10501
6262.53873,0.10561
6260.61001,0.10641
6258.68130,0.10734
6256.75258,0.10594
6254.82387,0.10268
6252.89515,0.10148
6250.96644,0.10346
6249.03772,0.10736
6247.10901,0.10906
6245.18029,0.10613
6243.25158,0.10463
6241.32286,0.10780
6239.39415,0.11018
6237.46543,0.10823
6235.53672,0.10331
6233.60800,0.09909
6231.67928,0.09861
6229.75057,0.10036
6227.82185,0.10032
6225.89314,0.09908
6223.96442,0.10065
6222.03571,0.10445
6220.10699,0.10643
6218.17828,0.10591
6216.24956,0.10438
6214.32085,0.10277
6212.39213,0.10123
6210.46342,0.10042
6208.53470,0.10140
6206.60598,0.10161
6204.67727,0.09831
6202.74855,0.09403
6200.81984,0.09192
6198.89112,0.09248
6196.96241,0.09313
6195.03369,0.09077
6193.10498,0.08648
6191.17626,0.08375
6189.24755,0.08328
6187.31883,0.08318
6185.39012,0.08315
6183.46140,0.08542
6181.53269,0.08833
6179.60397,0.08828
6177.67525,0.08671
6175.74654,0.08667
6173.81782,0.08676
6171.88911,0.08480
6169.96039,0.08186
6168.03168,0.07941
6166.10296,0.07890
6164.17425,0.08159
6162.24553,0.08295
6160.31682,0.08122
6158.38810,0.08121
6156.45939,0.08267
6154.53067,0.08158
6152.60196,0.07855
6150.67324,0.07724
6148.74452,0.07834
6146.81581,0.07925
6144.88709,0.08028
6142.95838,0.08153
6141.02966,0.08116
6139.10095,0.08013
6137.17223,0.07889
6135.24352,0.07594
6133.31480,0.07326
6131.38609,0.07240
6129.45737,0.07030
6127.52866,0.06713
6125.59994,0.06692
6123.67122,0.06934
6121.74251,0.07098
6119.81379,0.07102
6117.88508,0.07066
6115.95636,0.06951
6114.02765,0.06870
6112.09893,0.07010
6110.17022,0.07292
6108.24150,0.07466
6106.31279,0.07249
6104.38407,0.06702
6102.45536,0.06287
6100.52664,0.06125
6098.59793,0.06054
6096.66921,0.05973
6094.74049,0.05852
6092.81178,0.05819
6090.88306,0.05850
6088.95435,0.05640
6087.02563,0.05316
6085.09692,0.05282
6083.16820,0.05416
6081.23949,0.05359
6079.31077,0.05148
6077.38206,0.04947
6075.45334,0.04957
6073.52463,0.05243
6071.59591,0.05376
6069.66720,0.05043
6067.73848,0.04655
6065.80976,0.04578
6063.88105,0.04665
6061.95233,0.04625
6060.02362,0.04476
6058.09490,0.04517
6056.16619,0.04778
6054.23747,0.04889
6052.30876,0.04674
6050.38004,0.04387
6048.45133,0.04310
6046.52261,0.04340
6044.59390,0.04410
6042.66518,0.04416
6040.73647,0.04220
6038.80775,0.04048
6036.87903,0.04161
6034.95032,0.04283
6033.02160,0.04286
6031.09289,0.04420
6029.16417,0.04636
6027.23546,0.04527
6025.30674,0.04103
6023.37803,0.03902
6021.44931,0.04132
6019.52060,0.04364
6017.59188,0.04374
6015.66317,0.04345
6013.73445,0.04320
6011.80573,0.04296
6009.87702,0.04420
6007.94830,0.04535
6006.01959,0.04347
6004.09087,0.04024
6002.16216,0.03782
6000.23344,0.03523
5998.30473,0.03443
5996.37601,0.03821
5994.44730,0.04247
5992.51858,0.04170
5990.58987,0.03957
5988.66115,0.04057
5986.73244,0.04139
5984.80372,0.04024
5982.87500,0.04025
5980.94629,0.04084
5979.01757,0.03913
5977.08886,0.03763
5975.16014,0.03858
5973.23143,0.03866
5971.30271,0.03642
5969.37400,0.03416
5967.44528,0.03472
5965.51657,0.03844
5963.58785,0.04256
5961.65914,0.04519
5959.73042,0.04648
5957.80171,0.04646
5955.87299,0.04610
5953.94427,0.04744
5952.01556,0.04817
5950.08684,0.04506
5948.15813,0.04218
5946.22941,0.04224
5944.30070,0.04280
5942.37198,0.04372
5940.44327,0.04399
5938.51455,0.04080
5936.58584,0.03854
5934.65712,0.04254
5932.72841,0.04718
5930.79969,0.04524
5928.87097,0.04043
5926.94226,0.03936
5925.01354,0.04142
5923.08483,0.04245
5921.15611,0.04152
5919.22740,0.04016
5917.29868,0.04022
5915.36997,0.04193
5913.44125,0.04432
5911.51254,0.04702
5909.58382,0.04784
5907.65511,0.04660
5905.72639,0.04713
5903.79768,0.04830
5901.86896,0.04709
5899.94024,0.04540
5898.01153,0.04381
5896.08281,0.04236
5894.15410,0.04384
5892.22538,0.04597
5890.29667,0.04540
5888.36795,0.04466
5886.43924,0.04462
5884.51052,0.04476
5882.58181,0.04749
5880.65309,0.05094
5878.72438,0.05115
5876.79566,0.05002
5874.86695,0.04973
5872.93823,0.04909
5871.00951,0.04886
5869.08080,0.04934
5867.15208,0.04832
5865.22337,0.04702
5863.29465,0.04828
5861.36594,0.05046
5859.43722,0.05263
5857.50851,0.05501
5855.57979,0.05582
5853.65108,0.05562
5851.72236,0.05719
5849.79365,0.06053
5847.86493,0.06237
5845.93622,0.06052
5844.00750,0.05879
5842.07878,0.06014
5840.15007,0.06136
5838.22135,0.06025
5836.29264,0.05911
5834.36392,0.05999
5832.43521,0.06103
5830.50649,0.05981
5828.57778,0.05809
5826.64906,0.05862
5824.72035,0.06108
5822.79163,0.06221
5820.86292,0.06033
5818.93420,0.05778
5817.00548,0.05731
5815.07677,0.05820
5813.14805,0.05883
5811.21934,0.05991
5809.29062,0.06211
5807.36191,0.06404
5805.43319,0.06477
5803.50448,0.06520
5801.57576,0.06640
5799.64705,0.06739
5797.71833,0.06651
5795.78962,0.06413
5793.86090,0.06151
5791.93219,0.05977
5790.00347,0.05994
5788.07475,0.06102
5786.14604,0.06156
5784.21732,0.06180
5782.28861,0.06171
5780.35989,0.06014
5778.43118,0.05693
5776.50246,0.05418
5774.57375,0.05471
5772.64503,0.05729
5770.71632,0.05785
5768.78760,0.05644
5766.85889,0.05668
5764.93017,0.05860
5763.00146,0.05871
5761.07274,0.05643
5759.14402,0.05527
5757.21531,0.05623
5755.28659,0.05739
5753.35788,0.05764
5751.42916,0.05648
5749.50045,0.05511
5747.57173,0.05590
5745.64302,0.05889
5743.71430,0.06202
5741.78559,0.06313
5739.85687,0.06290
5737.92816,0.06427
5735.99944,0.06754
5734.07072,0.07012
5732.14201,0.07059
5730.21329,0.07105
5728.28458,0.07396
5726.35586,0.07824
5724.42715,0.08127
5722.49843,0.08197
5720.56972,0.08187
5718.64100,0.08271
5716.71229,0.08228
5714.78357,0.07889
5712.85486,0.07650
5710.92614,0.07740
5708.99743,0.07914
5707.06871,0.08052
5705.13999,0.08208
5703.21128,0.08430
5701.28256,0.08630
5699.35385,0.08643
5697.42513,0.08535
5695.49642,0.08430
5693.56770,0.08365
5691.63899,0.08366
5689.71027,0.08412
5687.78156,0.08411
5685.85284,0.08260
5683.92413,0.07988
5681.99541,0.07720
5680.06670,0.07572
5678.13798,0.07585
5676.20926,0.07644
5674.28055,0.07639
5672.35183,0.07628
5670.42312,0.07589
5668.49440,0.07382
5666.56569,0.07176
5664.63697,0.07201
5662.70826,0.07351
5660.77954,0.07456
5658.85083,0.07422
5656.92211,0.07300
5654.99340,0.07336
5653.06468,0.07644
5651.13597,0.07971
5649.20725,0.08015
5647.27853,0.07826
5645.34982,0.07642
5643.42110,0.07668
5641.49239,0.08002
5639.56367,0.08423
5637.63496,0.08587
5635.70624,0.08581
5633.77753,0.08672
5631.84881,0.08768
5629.92010,0.08687
5627.99138,0.08591
5626.06267,0.08739
5624.13395,0.08948
5622.20523,0.08896
5620.27652,0.08785
5618.34780,0.08865
5616.41909,0.09040
5614.49037,0.09172
5612.56166,0.09189
5610.63294,0.09139
5608.70423,0.09176
5606.77551,0.09279
5604.84680,0.09291
5602.91808,0.09206
5600.98937,0.09135
5599.06065,0.09146
5597.13194,0.09201
5595.20322,0.09187
5593.27450,0.09136
5591.34579,0.09191
5589.41707,0.09325
5587.48836,0.09389
5585.55964,0.09349
5583.63093,0.09259
5581.70221,0.09167
5579.77350,0.09096
5577.84478,0.09011
5575.91607,0.08916
5573.98735,0.08928
5572.05864,0.09092
5570.12992,0.09283
5568.20121,0.09291
5566.27249,0.09111
5564.34377,0.08964
5562.41506,0.08983
5560.48634,0.09119
5558.55763,0.09252
5556.62891,0.09261
5554.70020,0.09161
5552.77148,0.09137
5550.84277,0.09241
5548.91405,0.09293
5546.98534,0.09303
5545.05662,0.09385
5543.12791,0.09416
5541.19919,0.09340
5539.27047,0.09334
5537.34176,0.09403
5535.41304,0.09397
5533.48433,0.09398
5531.55561,0.09500
5529.62690,0.09543
5527.69818,0.09437
5525.76947,0.09234
5523.84075,0.09047
5521.91204,0.09035
5519.98332,0.09161
5518.05461,0.09242
5516.12589,0.09233
5514.19718,0.09176
5512.26846,0.09127
5510.33974,0.09156
5508.41103,0.09261
5506.48231,0.09331
5504.55360,0.09373
5502.62488,0.09433
5500.69617,0.09438
5498.76745,0.09456
5496.83874,0.09502
5494.91002,0.09473
5492.98131,0.09475
5491.05259,0.09497
5489.12388,0.09412
5487.19516,0.09352
5485.26645,0.09292
5483.33773,0.09049
5481.40901,0.08821
5479.48030,0.08887
5477.55158,0.09076
5475.62287,0.09045
5473.69415,0.08835
5471.76544,0.08784
5469.83672,0.08951
5467.90801,0.09135
5465.97929,0.09223
5464.05058,0.09242
5462.12186,0.09243
5460.19315,0.09294
5458.26443,0.09381
5456.33572,0.09351
5454.40700,0.09168
5452.47828,0.09087
5450.54957,0.09245
5448.62085,0.09443
5446.69214,0.09502
5444.76342,0.09364
5442.83471,0.09108
5440.90599,0.09032
5438.97728,0.09246
5437.04856,0.09517
5435.11985,0.09714
5433.19113,0.09757
5431.26242,0.09641
5429.33370,0.09534
5427.40498,0.09470
5425.47627,0.09418
5423.54755,0.09499
5421.61884,0.09656
5419.69012,0.09717
5417.76141,0.09699
5415.83269,0.09693
5413.90398,0.09667
5411.97526,0.09613
5410.04655,0.09563
5408.11783,0.09465
5406.18912,0.09391
5404.26040,0.09534
5402.33169,0.09819
5400.40297,0.09902
5398.47425,0.09662
5396.54554,0.09397
5394.61682,0.09493
5392.68811,0.09856
5390.75939,0.10040
5388.83068,0.10023
5386.90196,0.10021
5384.97325,0.10041
5383.04453,0.10029
5381.11582,0.09981
5379.18710,0.09909
5377.25839,0.09880
5375.32967,0.09893
5373.40096,0.09913
5371.47224,0.09969
5369.54352,0.10077
5367.61481,0.10173
5365.68609,0.10206
5363.75738,0.10212
5361.82866,0.10146
5359.89995,0.09950
5357.97123,0.09754
5356.04252,0.09683
5354.11380,0.09782
5352.18509,0.09921
5350.25637,0.09916
5348.32766,0.09856
5346.39894,0.09806
5344.47022,0.09687
5342.54151,0.09578
5340.61279,0.09640
5338.68408,0.09757
5336.75536,0.09686
5334.82665,0.09565
5332.89793,0.09581
5330.96922,0.09642
5329.04050,0.09681
5327.11179,0.09721
5325.18307,0.09771
5323.25436,0.09809
5321.32564,0.09842
5319.39693,0.09862
5317.46821,0.09781
5315.53949,0.09657
5313.61078,0.09667
5311.68206,0.09739
5309.75335,0.09711
5307.82463,0.09615
5305.89592,0.09510
5303.96720,0.09373
5302.03849,0.09271
5300.10977,0.09354
5298.18106,0.09578
5296.25234,0.09660
5294.32363,0.09474
5292.39491,0.09170
5290.46620,0.08895
5288.53748,0.08665
5286.60876,0.08510
5284.68005,0.08471
5282.75133,0.08407
5280.82262,0.08181
5278.89390,0.07986
5276.96519,0.08017
5275.03647,0.08089
5273.10776,0.07967
5271.17904,0.07770
5269.25033,0.07654
5267.32161,0.07546
5265.39290,0.07445
5263.46418,0.07389
5261.53547,0.07315
5259.60675,0.07272
5257.67803,0.07325
5255.74932,0.07510
5253.82060,0.07845
5251.89189,0.08127
5249.96317,0.08215
5248.03446,0.08247
5246.10574,0.08380
5244.17703,0.08547
5242.24831,0.08694
5240.31960,0.08923
5238.39088,0.09180
5236.46217,0.09264
5234.53345,0.09248
5232.60473,0.09371
5230.67602,0.09637
5228.74730,0.09872
5226.81859,0.10000
5224.88987,0.10003
5222.96116,0.09915
5221.03244,0.09870
5219.10373,0.09943
5217.17501,0.10032
5215.24630,0.10064
5213.31758,0.10081
5211.38887,0.10056
5209.46015,0.09998
5207.53144,0.10023
5205.60272,0.10090
5203.67400,0.10058
5201.74529,0.09979
5199.81657,0.09994
5197.88786,0.10084
5195.95914,0.10182
5194.03043,0.10328
5192.10171,0.10457
5190.17300,0.10440
5188.24428,0.10343
5186.31557,0.10271
5184.38685,0.10187
5182.45814,0.10059
5180.52942,0.09979
5178.60071,0.10034
5176.67199,0.10155
5174.74327,0.10210
5172.81456,0.10188
5170.88584,0.10168
5168.95713,0.10163
5167.02841,0.10174
5165.09970,0.10252
5163.17098,0.10319
5161.24227,0.10290
5159.31355,0.10216
5157.38484,0.10114
5155.45612,0.10067
5153.52741,0.10196
5151.59869,0.10417
5149.66997,0.10606
5147.74126,0.10684
5145.81254,0.10608
5143.88383,0.10522
5141.95511,0.10544
5140.02640,0.10577
5138.09768,0.10591
5136.16897,0.10632
5134.24025,0.10689
5132.31154,0.10768
5130.38282,0.10848
5128.45411,0.10852
5126.52539,0.10784
5124.59668,0.10744
5122.66796,0.10767
5120.73924,0.10764
5118.81053,0.10740
5116.88181,0.10811
5114.95310,0.10916
5113.02438,0.10866
5111.09567,0.10696
5109.16695,0.10585
5107.23824,0.10555
5105.30952,0.10555
5103.38081,0.10584
5101.45209,0.10655
5099.52338,0.10722
5097.59466,0.10699
5095.66595,0.10667
5093.73723,0.10690
5091.80851,0.10707
5089.87980,0.10808
5087.95108,0.10970
5086.02237,0.10936
5084.09365,0.10695
5082.16494,0.10516
5080.23622,0.10571
5078.30751,0.10731
5076.37879,0.10793
5074.45008,0.10788
5072.52136,0.10765
5070.59265,0.10702
5068.66393,0.10674
5066.73522,0.10685
5064.80650,0.10683
5062.87778,0.10707
5060.94907,0.10731
5059.02035,0.10675
5057.09164,0.10629
5055.16292,0.10723
5053.23421,0.10891
5051.30549,0.10975
5049.37678,0.10919
5047.44806,0.10846
5045.51935,0.10882
5043.59063,0.10985
5041.66192,0.11063
5039.73320,0.11035
5037.80448,0.10917
5035.87577,0.10835
5033.94705,0.10803
5032.01834,0.10823
5030.08962,0.10976
5028.16091,0.11140
5026.23219,0.11062
5024.30348,0.10838
5022.37476,0.10761
5020.44605,0.10822
5018.51733,0.10823
5016.58862,0.10743
5014.65990,0.10722
5012.73119,0.10793
5010.80247,0.10810
5008.87375,0.10681
5006.94504,0.10523
5005.01632,0.10479
5003.08761,0.10511
5001.15889,0.10496
4999.23018,0.10453
4997.30146,0.10535
4995.37275,0.10741
4993.44403,0.10857
4991.51532,0.10819
4989.58660,0.10731
4987.65789,0.10637
4985.72917,0.10574
4983.80046,0.10569
4981.87174,0.10559
4979.94302,0.10498
4978.01431,0.10406
4976.08559,0.10319
4974.15688,0.10306
4972.22816,0.10370
4970.29945,0.10384
4968.37073,0.10265
4966.44202,0.10127
4964.51330,0.10107
4962.58459,0.10190
4960.65587,0.10296
4958.72716,0.10311
4956.79844,0.10206
4954.86972,0.10093
4952.94101,0.10069
4951.01229,0.10164
4949.08358,0.10283
4947.15486,0.10290
4945.22615,0.10216
4943.29743,0.10137
4941.36872,0.10038
4939.44000,0.09944
4937.51129,0.09948
4935.58257,0.10027
4933.65386,0.10071
4931.72514,0.10087
4929.79643,0.10169
4927.86771,0.10303
4925.93899,0.10365
4924.01028,0.10298
4922.08156,0.10160
4920.15285,0.09990
4918.22413,0.09789
4916.29542,0.09629
4914.36670,0.09579
4912.43799,0.09556
4910.50927,0.09477
4908.58056,0.09380
4906.65184,0.09268
4904.72313,0.09126
4902.79441,0.09033
4900.86570,0.09016
4898.93698,0.08975
4897.00826,0.08895
4895.07955,0.08882
4893.15083,0.08908
4891.22212,0.08891
4889.29340,0.08872
4887.36469,0.08898
4885.43597,0.08907
4883.50726,0.08847
4881.57854,0.08777
4879.64983,0.08783
4877.72111,0.08834
4875.79240,0.08800
4873.86368,0.08692
4871.93497,0.08643
4870.00625,0.08624
4868.07753,0.08540
4866.14882,0.08457
4864.22010,0.08438
4862.29139,0.08413
4860.36267,0.08335
4858.43396,0.08285
4856.50524,0.08271
4854.57653,0.08198
4852.64781,0.08100
4850.71910,0.08032
4848.79038,0.07942
4846.86167,0.07875
4844.93295,0.07875
4843.00423,0.07851
4841.07552,0.07830
4839.14680,0.07922
4837.21809,0.08041
4835.28937,0.08079
4833.36066,0.08099
4831.43194,0.08151
4829.50323,0.08202
4827.57451,0.08204
4825.64580,0.08181
4823.71708,0.08214
4821.78837,0.08280
4819.85965,0.08278
4817.93094,0.08276
4816.00222,0.08361
4814.07350,0.08411
4812.14479,0.08379
4810.21607,0.08389
4808.28736,0.08447
4806.35864,0.08468
4804.42993,0.08447
4802.50121,0.08418
4800.57250,0.08423
4798.64378,0.08457
4796.71507,0.08465
4794.78635,0.08439
4792.85764,0.08420
4790.92892,0.08436
4789.00021,0.08458
4787.07149,0.08403
4785.14277,0.08268
4783.21406,0.08147
4781.28534,0.08078
4779.35663,0.08026
4777.42791,0.07962
4775.49920,0.07921
4773.57048,0.07921
4771.64177,0.07857
4769.71305,0.07701
4767.78434,0.07594
4765.85562,0.07564
4763.92691,0.07513
4761.99819,0.07422
4760.06948,0.07336
4758.14076,0.07274
4756.21204,0.07226
4754.28333,0.07155
4752.35461,0.07060
4750.42590,0.06994
4748.49718,0.06979
4746.56847,0.06932
4744.63975,0.06794
4742.71104,0.06674
4740.78232,0.06627
4738.85361,0.06534
4736.92489,0.06381
4734.99618,0.06268
4733.06746,0.06222
4731.13874,0.06202
4729.21003,0.06137
4727.28131,0.06006
4725.35260,0.05886
4723.42388,0.05817
4721.49517,0.05758
4719.56645,0.05695
4717.63774,0.05650
4715.70902,0.05603
4713.78031,0.05506
4711.85159,0.05395
4709.92288,0.05361
4707.99416,0.05392
4706.06545,0.05393
4704.13673,0.05390
4702.20801,0.05415
4700.27930,0.05364
4698.35058,0.05265
4696.42187,0.05216
4694.49315,0.05167
4692.56444,0.05123
4690.63572,0.05162
4688.70701,0.05243
4686.77829,0.05312
4684.84958,0.05365
4682.92086,0.05397
4680.99215,0.05403
4679.06343,0.05345
4677.13472,0.05248
4675.20600,0.05248
4673.27728,0.05347
4671.34857,0.05421
4669.41985,0.05413
4667.49114,0.05359
4665.56242,0.05337
4663.63371,0.05353
4661.70499,0.05359
4659.77628,0.05338
4657.84756,0.05309
4655.91885,0.05324
4653.99013,0.05363
4652.06142,0.05371
4650.13270,0.05380
4648.20398,0.05420
4646.27527,0.05454
4644.34655,0.05478
4642.41784,0.05524
4640.48912,0.05547
4638.56041,0.05485
4636.63169,0.05399
4634.70298,0.05367
4632.77426,0.05371
4630.84555,0.05377
4628.91683,0.05362
4626.98812,0.05303
4625.05940,0.05260
4623.13069,0.05298
4621.20197,0.05369
4619.27325,0.05425
4617.34454,0.05485
4615.41582,0.05555
4613.48711,0.05616
4611.55839,0.05654
4609.62968,0.05652
4607.70096,0.05637
4605.77225,0.05665
4603.84353,0.05688
4601.91482,0.05675
4599.98610,0.05714
4598.05739,0.05781
4596.12867,0.05757
4594.19996,0.05664
4592.27124,0.05588
4590.34252,0.05558
4588.41381,0.05574
4586.48509,0.05592
4584.55638,0.05573
4582.62766,0.05519
4580.69895,0.05450
4578.77023,0.05380
4576.84152,0.05319
4574.91280,0.05326
4572.98409,0.05416
4571.05537,0.05480
4569.12666,0.05472
4567.19794,0.05520
4565.26923,0.05657
4563.34051,0.05767
4561.41179,0.05832
4559.48308,0.05921
4557.55436,0.05993
4555.62565,0.05993
4553.69693,0.06007
4551.76822,0.06091
4549.83950,0.06175
4547.91079,0.06227
4545.98207,0.06273
4544.05336,0.06311
4542.12464,0.06320
4540.19593,0.06298
4538.26721,0.06266
4536.33849,0.06238
4534.40978,0.06226
4532.48106,0.06228
4530.55235,0.06203
4528.62363,0.06170
4526.69492,0.06188
4524.76620,0.06213
4522.83749,0.06183
4520.90877,0.06175
4518.98006,0.06255
4517.05134,0.06319
4515.12263,0.06296
4513.19391,0.06275
4511.26520,0.06296
4509.33648,0.06296
4507.40776,0.06288
4505.47905,0.06295
4503.55033,0.06270
4501.62162,0.06191
4499.69290,0.06079
4497.76419,0.05976
4495.83547,0.05920
4493.90676,0.05904
4491.97804,0.05887
4490.04933,0.05831
4488.12061,0.05759
4486.19190,0.05730
4484.26318,0.05735
4482.33447,0.05729
4480.40575,0.05704
4478.47703,0.05693
4476.54832,0.05721
4474.61960,0.05744
4472.69089,0.05732
4470.76217,0.05734
4468.83346,0.05764
4466.90474,0.05802
4464.97603,0.05817
4463.04731,0.05773
4461.11860,0.05669
4459.18988,0.05567
4457.26117,0.05540
4455.33245,0.05554
4453.40373,0.05532
4451.47502,0.05518
4449.54630,0.05536
4447.61759,0.05550
4445.68887,0.05570
4443.76016,0.05594
4441.83144,0.05606
4439.90273,0.05623
4437.97401,0.05622
4436.04530,0.05588
4434.11658,0.05538
4432.18787,0.05466
4430.25915,0.05397
4428.33044,0.05391
4426.40172,0.05444
4424.47300,0.05487
4422.54429,0.05500
4420.61557,0.05520
4418.68686,0.05532
4416.75814,0.05495
4414.82943,0.05445
4412.90071,0.05456
4410.97200,0.05513
4409.04328,0.05534
4407.11457,0.05507
4405.18585,0.05483
4403.25714,0.05489
4401.32842,0.05495
4399.39971,0.05459
4397.47099,0.05421
4395.54227,0.05422
4393.61356,0.05439
4391.68484,0.05462
4389.75613,0.05493
4387.82741,0.05526
4385.89870,0.05548
4383.96998,0.05570
4382.04127,0.05610
4380.11255,0.05610
4378.18384,0.05506
4376.25512,0.05408
4374.32641,0.05425
4372.39769,0.05447
4370.46898,0.05411
4368.54026,0.05395
4366.61154,0.05406
4364.68283,0.05418
4362.75411,0.05439
4360.82540,0.05454
4358.89668,0.05461
4356.96797,0.05461
4355.03925,0.05435
4353.11054,0.05428
4351.18182,0.05495
4349.25311,0.05561
4347.32439,0.05566
4345.39568,0.05560
4343.46696,0.05570
4341.53824,0.05579
4339.60953,0.05583
4337.68081,0.05581
4335.75210,0.05554
4333.82338,0.05507
4331.89467,0.05476
4329.96595,0.05473
4328.03724,0.05495
4326.10852,0.05509
4324.17981,0.05506
4322.25109,0.05515
4320.32238,0.05531
4318.39366,0.05543
4316.46495,0.05563
4314.53623,0.05571
4312.60751,0.05529
4310.67880,0.05469
4308.75008,0.05465
4306.82137,0.05509
4304.89265,0.05548
4302.96394,0.05577
4301.03522,0.05606
4299.10651,0.05622
4297.17779,0.05622
4295.24908,0.05634
4293.32036,0.05628
4291.39165,0.05560
4289.46293,0.05496
4287.53422,0.05488
4285.60550,0.05504
4283.67678,0.05542
4281.74807,0.05605
4279.81935,0.05655
4277.89064,0.05647
4275.96192,0.05580
4274.03321,0.05530
4272.10449,0.05561
4270.17578,0.05622
4268.24706,0.05610
4266.31835,0.05543
4264.38963,0.05526
4262.46092,0.05561
4260.53220,0.05573
4258.60348,0.05567
4256.67477,0.05575
4254.74605,0.05571
4252.81734,0.05551
4250.88862,0.05537
4248.95991,0.05502
4247.03119,0.05476
4245.10248,0.05563
4243.17376,0.05696
4241.24505,0.05739
4239.31633,0.05685
4237.38762,0.05588
4235.45890,0.05516
4233.53019,0.05497
4231.60147,0.05511
4229.67275,0.05551
4227.74404,0.05580
4225.81532,0.05581
4223.88661,0.05601
4221.95789,0.05633
4220.02918,0.05617
4218.10046,0.05578
4216.17175,0.05557
4214.24303,0.05536
4212.31432,0.05535
4210.38560,0.05587
4208.45689,0.05657
4206.52817,0.05685
4204.59946,0.05642
4202.67074,0.05570
4200.74202,0.05554
4198.81331,0.05597
4196.88459,0.05626
4194.95588,0.05606
4193.02716,0.05569
4191.09845,0.05536
4189.16973,0.05526
4187.24102,0.05555
4185.31230,0.05612
4183.38359,0.05671
4181.45487,0.05691
4179.52616,0.05648
4177.59744,0.05586
4175.66873,0.05557
4173.74001,0.05542
4171.81129,0.05507
4169.88258,0.05476
4167.95386,0.05485
4166.02515,0.05510
4164.09643,0.05532
4162.16772,0.05580
4160.23900,0.05637
4158.31029,0.05663
4156.38157,0.05682
4154.45286,0.05694
4152.52414,0.05655
4150.59543,0.05588
4148.66671,0.05562
4146.73799,0.05577
4144.80928,0.05581
4142.88056,0.05571
4140.95185,0.05592
4139.02313,0.05631
4137.09442,0.05640
4135.16570,0.05608
4133.23699,0.05551
4131.30827,0.05517
4129.37956,0.05552
4127.45084,0.05616
4125.52213,0.05652
4123.59341,0.05664
4121.66470,0.05644
4119.73598,0.05576
4117.80726,0.05513
4115.87855,0.05514
4113.94983,0.05567
4112.02112,0.05627
4110.09240,0.05675
4108.16369,0.05694
4106.23497,0.05661
4104.30626,0.05606
4102.37754,0.05587
4100.44883,0.05602
4098.52011,0.05624
4096.59140,0.05657
4094.66268,0.05700
4092.73397,0.05715
4090.80525,0.05702
4088.87653,0.05697
4086.94782,0.05702
4085.01910,0.05690
4083.09039,0.05677
4081.16167,0.05684
4079.23296,0.05695
4077.30424,0.05700
4075.37553,0.05702
4073.44681,0.05704
4071.51810,0.05715
4069.58938,0.05714
4067.66067,0.05696
4065.73195,0.05686
4063.80323,0.05688
4061.87452,0.05691
4059.94580,0.05704
4058.01709,0.05727
4056.08837,0.05727
4054.15966,0.05702
4052.23094,0.05686
4050.30223,0.05680
4048.37351,0.05655
4046.44480,0.05637
4044.51608,0.05666
4042.58737,0.05702
4040.65865,0.05727
4038.72994,0.05746
4036.80122,0.05749
4034.87250,0.05743
4032.94379,0.05731
4031.01507,0.05700
4029.08636,0.05664
4027.15764,0.05664
4025.22893,0.05713
4023.30021,0.05753
4021.37150,0.05747
4019.44278,0.05726
4017.51407,0.05711
4015.58535,0.05694
4013.65664,0.05681
4011.72792,0.05690
4009.79921,0.05699
4007.87049,0.05698
4005.94177,0.05722
4004.01306,0.05760
4002.08434,0.05772
4000.15563,0.05756
3998.22691,0.05720
3996.29820,0.05698
3994.36948,0.05720
3992.44077,0.05769
3990.51205,0.05789
3988.58334,0.05767
3986.65462,0.05740
3984.72591,0.05719
3982.79719,0.05692
3980.86848,0.05685
3978.93976,0.05691
3977.01104,0.05685
3975.08233,0.05691
3973.15361,0.05706
3971.22490,0.05721
3969.29618,0.05754
3967.36747,0.05784
3965.43875,0.05783
3963.51004,0.05774
3961.58132,0.05789
3959.65261,0.05791
3957.72389,0.05746
3955.79518,0.05707
3953.86646,0.05683
3951.93774,0.05641
3950.00903,0.05634
3948.08031,0.05694
3946.15160,0.05771
3944.22288,0.05823
3942.29417,0.05814
3940.36545,0.05778
3938.43674,0.05756
3936.50802,0.05741
3934.57931,0.05754
3932.65059,0.05800
3930.72188,0.05831
3928.79316,0.05807
3926.86445,0.05748
3924.93573,0.05714
3923.00701,0.05732
3921.07830,0.05779
3919.14958,0.05814
3917.22087,0.05787
3915.29215,0.05730
3913.36344,0.05714
3911.43472,0.05756
3909.50601,0.05818
3907.57729,0.05866
3905.64858,0.05885
3903.71986,0.05855
3901.79115,0.05810
3899.86243,0.05807
3897.93372,0.05807
3896.00500,0.05776
3894.07628,0.05755
3892.14757,0.05769
3890.21885,0.05775
3888.29014,0.05754
3886.36142,0.05751
3884.43271,0.05754
3882.50399,0.05733
3880.57528,0.05736
3878.64656,0.05774
3876.71785,0.05772
3874.78913,0.05723
3872.86042,0.05662
3870.93170,0.05626
3869.00298,0.05652
3867.07427,0.05701
3865.14555,0.05742
3863.21684,0.05803
3861.28812,0.05860
3859.35941,0.05865
3857.43069,0.05827
3855.50198,0.05777
3853.57326,0.05770
3851.64455,0.05836
3849.71583,0.05871
3847.78712,0.05865
3845.85840,0.05845
3843.92969,0.05815
3842.00097,0.05816
3840.07225,0.05886
3838.14354,0.05950
3836.21482,0.05961
3834.28611,0.05967
3832.35739,0.05958
3830.42868,0.05920
3828.49996,0.05876
3826.57125,0.05871
3824.64253,0.05910
3822.71382,0.05927
3820.78510,0.05918
3818.85639,0.05937
3816.92767,0.05929
3814.99896,0.05884
3813.07024,0.05849
3811.14152,0.05813
3809.21281,0.05756
3807.28409,0.05728
3805.35538,0.05779
3803.42666,0.05811
3801.49795,0.05803
3799.56923,0.05824
3797.64052,0.05862
3795.71180,0.05919
3793.78309,0.05978
3791.85437,0.06011
3789.92566,0.06012
3787.99694,0.05998
3786.06823,0.06016
3784.13951,0.06075
3782.21079,0.06104
3780.28208,0.06073
3778.35336,0.06037
3776.42465,0.06031
3774.49593,0.06022
3772.56722,0.05999
3770.63850,0.05972
3768.70979,0.05955
3766.78107,0.05943
3764.85236,0.05934
3762.92364,0.05942
3760.99493,0.05945
3759.06621,0.05931
3757.13749,0.05929
3755.20878,0.05932
3753.28006,0.05909
3751.35135,0.05874
3749.42263,0.05895
3747.49392,0.05947
3745.56520,0.05957
3743.63649,0.05911
3741.70777,0.05877
3739.77906,0.05843
3737.85034,0.05776
3735.92163,0.05754
3733.99291,0.05860
3732.06420,0.05950
3730.13548,0.05941
3728.20676,0.05894
3726.27805,0.05871
3724.34933,0.05876
3722.42062,0.05861
3720.49190,0.05828
3718.56319,0.05815
3716.63447,0.05820
3714.70576,0.05825
3712.77704,0.05847
3710.84833,0.05883
3708.91961,0.05880
3706.99090,0.05863
3705.06218,0.05864
3703.13347,0.05865
3701.20475,0.05882
3699.27603,0.05928
3697.34732,0.05952
3695.41860,0.05929
3693.48989,0.05871
3691.56117,0.05808
3689.63246,0.05826
3687.70374,0.05924
3685.77503,0.05954
3683.84631,0.05907
3681.91760,0.05828
3679.98888,0.05748
3678.06017,0.05685
3676.13145,0.05697
3674.20273,0.05790
3672.27402,0.05814
3670.34530,0.05782
3668.41659,0.05807
3666.48787,0.05863
3664.55916,0.05882
3662.63044,0.05857
3660.70173,0.05820
3658.77301,0.05824
3656.84430,0.05867
3654.91558,0.05868
3652.98687,0.05805
3651.05815,0.05743
3649.12944,0.05757
3647.20072,0.05804
3645.27200,0.05795
3643.34329,0.05752
3641.41457,0.05729
3639.48586,0.05777
3637.55714,0.05843
3635.62843,0.05858
3633.69971,0.05842
3631.77100,0.05808
3629.84228,0.05745
3627.91357,0.05728
3625.98485,0.05764
3624.05614,0.05776
3622.12742,0.05778
3620.19871,0.05786
3618.26999,0.05766
3616.34127,0.05722
3614.41256,0.05700
3612.48384,0.05739
3610.55513,0.05839
3608.62641,0.05944
3606.69770,0.05966
3604.76898,0.05900
3602.84027,0.05832
3600.91155,0.05793
3598.98284,0.05764
3597.05412,0.05761
3595.12541,0.05788
3593.19669,0.05793
3591.26798,0.05758
3589.33926,0.05710
3587.41054,0.05707
3585.48183,0.05758
3583.55311,0.05777
3581.62440,0.05759
3579.69568,0.05743
3577.76697,0.05732
3575.83825,0.05725
3573.90954,0.05746
3571.98082,0.05785
3570.05211,0.05802
3568.12339,0.05785
3566.19468,0.05774
3564.26596,0.05777
3562.33724,0.05770
3560.40853,0.05759
3558.47981,0.05756
3556.55110,0.05750
3554.62238,0.05750
3552.69367,0.05768
3550.76495,0.05771
3548.83624,0.05760
3546.90752,0.05791
3544.97881,0.05847
3543.05009,0.05839
3541.12138,0.05777
3539.19266,0.05743
3537.26395,0.05758
3535.33523,0.05761
3533.40651,0.05732
3531.47780,0.05720
3529.54908,0.05736
3527.62037,0.05761
3525.69165,0.05796
3523.76294,0.05838
3521.83422,0.05874
3519.90551,0.05860
3517.97679,0.05780
3516.04808,0.05709
3514.11936,0.05687
3512.19065,0.05690
3510.26193,0.05713
3508.33322,0.05744
3506.40450,0.05763
3504.47578,0.05783
3502.54707,0.05809
3500.61835,0.05825
3498.68964,0.05819
3496.76092,0.05801
3494.83221,0.05796
3492.90349,0.05800
3490.97478,0.05809
3489.04606,0.05826
3487.11735,0.05823
3485.18863,0.05789
3483.25992,0.05760
3481.33120,0.05761
3479.40248,0.05770
3477.47377,0.05776
3475.54505,0.05798
3473.61634,0.05834
3471.68762,0.05846
3469.75891,0.05831
3467.83019,0.05795
3465.90148,0.05748
3463.97276,0.05743
3462.04405,0.05784
3460.11533,0.05822
3458.18662,0.05850
3456.25790,0.05863
3454.32919,0.05847
3452.40047,0.05821
3450.47175,0.05810
3448.54304,0.05810
3446.61432,0.05806
3444.68561,0.05796
3442.75689,0.05799
3440.82818,0.05833
3438.89946,0.05883
3436.97075,0.05899
3435.04203,0.05860
3433.11332,0.05824
3431.18460,0.05862
3429.25589,0.05927
3427.32717,0.05940
3425.39846,0.05926
3423.46974,0.05928
3421.54102,0.05927
3419.61231,0.05916
3417.68359,0.05917
3415.75488,0.05904
3413.82616,0.05865
3411.89745,0.05846
3409.96873,0.05868
3408.04002,0.05901
3406.11130,0.05924
3404.18259,0.05934
3402.25387,0.05921
3400.32516,0.05898
3398.39644,0.05895
3396.46773,0.05891
3394.53901,0.05874
3392.61029,0.05875
3390.68158,0.05870
3388.75286,0.05833
3386.82415,0.05796
3384.89543,0.05778
3382.96672,0.05784
3381.03800,0.05820
3379.10929,0.05848
3377.18057,0.05859
3375.25186,0.05868
3373.32314,0.05866
3371.39443,0.05856
3369.46571,0.05835
3367.53699,0.05803
3365.60828,0.05785
3363.67956,0.05772
3361.75085,0.05748
3359.82213,0.05749
3357.89342,0.05787
3355.96470,0.05815
3354.03599,0.05806
3352.10727,0.05796
3350.17856,0.05795
3348.24984,0.05766
3346.32113,0.05732
3344.39241,0.05734
3342.46370,0.05769
3340.53498,0.05832
3338.60626,0.05888
3336.67755,0.05890
3334.74883,0.05838
3332.82012,0.05779
3330.89140,0.05748
3328.96269,0.05743
3327.03397,0.05750
3325.10526,0.05751
3323.17654,0.05748
3321.24783,0.05756
3319.31911,0.05774
3317.39040,0.05796
3315.46168,0.05799
3313.53297,0.05775
3311.60425,0.05759
3309.67553,0.05784
3307.74682,0.05804
3305.81810,0.05779
3303.88939,0.05747
3301.96067,0.05750
3300.03196,0.05785
3298.10324,0.05833
3296.17453,0.05863
3294.24581,0.05853
3292.31710,0.05833
3290.38838,0.05819
3288.45967,0.05782
3286.53095,0.05749
3284.60223,0.05773
3282.67352,0.05816
3280.74480,0.05822
3278.81609,0.05787
3276.88737,0.05751
3274.95866,0.05755
3273.02994,0.05794
3271.10123,0.05822
3269.17251,0.05802
3267.24380,0.05761
3265.31508,0.05765
3263.38637,0.05803
3261.45765,0.05802
3259.52894,0.05773
3257.60022,0.05776
3255.67150,0.05814
3253.74279,0.05834
3251.81407,0.05814
3249.88536,0.05808
3247.95664,0.05825
3246.02793,0.05821
3244.09921,0.05788
3242.17050,0.05756
3240.24178,0.05752
3238.31307,0.05773
3236.38435,0.05811
3234.45564,0.05871
3232.52692,0.05919
3230.59821,0.05915
3228.66949,0.05879
3226.74077,0.05852
3224.81206,0.05854
3222.88334,0.05860
3220.95463,0.05832
3219.02591,0.05804
3217.09720,0.05818
3215.16848,0.05839
3213.23977,0.05845
3211.31105,0.05839
3209.38234,0.05812
3207.45362,0.05780
3205.52491,0.05774
3203.59619,0.05794
3201.66748,0.05819
3199.73876,0.05803
3197.81004,0.05749
3195.88133,0.05731
3193.95261,0.05788
3192.02390,0.05871
3190.09518,0.05907
3188.16647,0.05884
3186.23775,0.05850
3184.30904,0.05833
3182.38032,0.05838
3180.45161,0.05841
3178.52289,0.05817
3176.59418,0.05800
3174.66546,0.05835
3172.73674,0.05879
3170.80803,0.05876
3168.87931,0.05844
3166.95060,0.05823
3165.02188,0.05832
3163.09317,0.05881
3161.16445,0.05922
3159.23574,0.05919
3157.30702,0.05887
3155.37831,0.05840
3153.44959,0.05810
3151.52088,0.05819
3149.59216,0.05843
3147.66345,0.05867
3145.73473,0.05881
3143.80601,0.05880
3141.87730,0.05866
3139.94858,0.05853
3138.01987,0.05868
3136.09115,0.05894
3134.16244,0.05895
3132.23372,0.05872
3130.30501,0.05856
3128.37629,0.05854
3126.44758,0.05860
3124.51886,0.05879
3122.59015,0.05890
3120.66143,0.05856
3118.73272,0.05815
3116.80400,0.05827
3114.87528,0.05857
3112.94657,0.05849
3111.01785,0.05834
3109.08914,0.05853
3107.16042,0.05875
3105.23171,0.05868
3103.30299,0.05858
3101.37428,0.05862
3099.44556,0.05870
3097.51685,0.05872
3095.58813,0.05856
3093.65942,0.05837
3091.73070,0.05838
3089.80198,0.05848
3087.87327,0.05845
3085.94455,0.05843
3084.01584,0.05855
3082.08712,0.05862
3080.15841,0.05854
3078.22969,0.05845
3076.30098,0.05838
3074.37226,0.05840
3072.44355,0.05871
3070.51483,0.05917
3068.58612,0.05927
3066.65740,0.05879
3064.72869,0.05811
3062.79997,0.05795
3060.87125,0.05839
3058.94254,0.05886
3057.01382,0.05903
3055.08511,0.05902
3053.15639,0.05891
3051.22768,0.05888
3049.29896,0.05904
3047.37025,0.05920
3045.44153,0.05912
3043.51282,0.05888
3041.58410,0.05887
3039.65539,0.05919
3037.72667,0.05943
3035.79796,0.05951
3033.86924,0.05960
3031.94052,0.05961
3030.01181,0.05930
3028.08309,0.05867
3026.15438,0.05824
3024.22566,0.05843
3022.29695,0.05881
3020.36823,0.05880
3018.43952,0.05857
3016.51080,0.05847
3014.58209,0.05850
3012.65337,0.05852
3010.72466,0.05840
3008.79594,0.05809
3006.86723,0.05784
3004.93851,0.05775
3003.00979,0.05789
3001.08108,0.05811
2999.15236,0.05797
2997.22365,0.05757
2995.29493,0.05733
2993.36622,0.05720
2991.43750,0.05700
2989.50879,0.05685
2987.58007,0.05686
2985.65136,0.05698
2983.72264,0.05709
2981.79393,0.05717
2979.86521,0.05737
2977.93649,0.05772
2976.00778,0.05809
2974.07906,0.05837
2972.15035,0.05858
2970.22163,0.05902
2968.29292,0.05965
2966.36420,0.06007
2964.43549,0.06036
2962.50677,0.06076
2960.57806,0.06104
2958.64934,0.06119
2956.72063,0.06141
2954.79191,0.06152
2952.86320,0.06123
2950.93448,0.06061
2949.00576,0.06007
2947.07705,0.05980
2945.14833,0.05974
2943.21962,0.05987
2941.29090,0.05991
2939.36219,0.05971
2937.43347,0.05975
2935.50476,0.06012
2933.57604,0.06032
2931.64733,0.06030
2929.71861,0.06043
2927.78990,0.06079
2925.86118,0.06110
2923.93247,0.06112
2922.00375,0.06073
2920.07503,0.06009
2918.14632,0.05969
2916.21760,0.05961
2914.28889,0.05958
2912.36017,0.05964
2910.43146,0.05977
2908.50274,0.05987
2906.57403,0.06007
2904.64531,0.06042
2902.71660,0.06060
2900.78788,0.06047
2898.85917,0.06023
2896.93045,0.05999
2895.00173,0.05990
2893.07302,0.06008
2891.14430,0.06038
2889.21559,0.06060
2887.28687,0.06063
2885.35816,0.06037
2883.42944,0.06005
2881.50073,0.05998
2879.57201,0.06016
2877.64330,0.06032
2875.71458,0.06048
2873.78587,0.06073
2871.85715,0.06096
2869.92844,0.06106
2867.99972,0.06097
2866.07100,0.06078
2864.14229,0.06072
2862.21357,0.06081
2860.28486,0.06073
2858.35614,0.06043
2856.42743,0.06026
2854.49871,0.06043
2852.57000,0.06070
2850.64128,0.06069
2848.71257,0.06052
2846.78385,0.06054
2844.85514,0.06056
2842.92642,0.06039
2840.99771,0.06020
2839.06899,0.06024
2837.14027,0.06047
2835.21156,0.06059
2833.28284,0.06051
2831.35413,0.06047
2829.42541,0.06067
2827.49670,0.06099
2825.56798,0.06106
2823.63927,0.06078
2821.71055,0.06042
2819.78184,0.06023
2817.85312,0.06019
2815.92441,0.06030
2813.99569,0.06056
2812.06698,0.06077
2810.13826,0.06079
2808.20954,0.06072
2806.28083,0.06066
2804.35211,0.06061
2802.42340,0.06061
2800.49468,0.06077
2798.56597,0.06090
2796.63725,0.06073
2794.70854,0.06047
2792.77982,0.06042
2790.85111,0.06029
2788.92239,0.06003
2786.99368,0.06004
2785.06496,0.06017
2783.13624,0.06003
2781.20753,0.05993
2779.27881,0.06013
2777.35010,0.06034
2775.42138,0.06037
2773.49267,0.06048
2771.56395,0.06070
2769.63524,0.06073
2767.70652,0.06050
2765.77781,0.06020
2763.84909,0.06006
2761.92038,0.06021
2759.99166,0.06055
2758.06295,0.06069
2756.13423,0.06054
2754.20551,0.06036
2752.27680,0.06030
2750.34808,0.06038
2748.41937,0.06049
2746.49065,0.06042
2744.56194,0.06039
2742.63322,0.06054
2740.70451,0.06056
2738.77579,0.06032
2736.84708,0.06021
2734.91836,0.06041
2732.98965,0.06063
2731.06093,0.06062
2729.13222,0.06047
2727.20350,0.06046
2725.27478,0.06064
2723.34607,0.06078
2721.41735,0.06070
2719.48864,0.06053
2717.55992,0.06040
2715.63121,0.06016
2713.70249,0.05995
2711.77378,0.06006
2709.84506,0.06040
2707.91635,0.06067
2705.98763,0.06078
2704.05892,0.06087
2702.13020,0.06081
2700.20149,0.06040
2698.27277,0.06011
2696.34405,0.06032
2694.41534,0.06061
2692.48662,0.06060
2690.55791,0.06043
2688.62919,0.06039
2686.70048,0.06053
2684.77176,0.06074
2682.84305,0.06070
2680.91433,0.06042
2678.98562,0.06030
2677.05690,0.06039
2675.12819,0.06048
2673.19947,0.06053
2671.27075,0.06046
2669.34204,0.06036
2667.41332,0.06037
2665.48461,0.06037
2663.55589,0.06032
2661.62718,0.06036
2659.69846,0.06045
2657.76975,0.06045
2655.84103,0.06039
2653.91232,0.06041
2651.98360,0.06054
2650.05489,0.06068
2648.12617,0.06081
2646.19746,0.06088
2644.26874,0.06079
2642.34002,0.06068
2640.41131,0.06076
2638.48259,0.06089
2636.55388,0.06085
2634.62516,0.06077
2632.69645,0.06076
2630.76773,0.06070
2628.83902,0.06059
2626.91030,0.06059
2624.98159,0.06066
2623.05287,0.06078
2621.12416,0.06082
2619.19544,0.06066
2617.26673,0.06060
2615.33801,0.06077
2613.40929,0.06078
2611.48058,0.06059
2609.55186,0.06055
2607.62315,0.06072
2605.69443,0.06094
2603.76572,0.06098
2601.83700,0.06087
2599.90829,0.06091
2597.97957,0.06103
2596.05086,0.06110
2594.12214,0.06118
2592.19343,0.06122
2590.26471,0.06103
2588.33599,0.06075
2586.40728,0.06061
2584.47856,0.06067
2582.54985,0.06092
2580.62113,0.06118
2578.69242,0.06113
2576.76370,0.06092
2574.83499,0.06079
2572.90627,0.06066
2570.97756,0.06057
2569.04884,0.06060
2567.12013,0.06075
2565.19141,0.06094
2563.26270,0.06100
2561.33398,0.06077
2559.40526,0.06046
2557.47655,0.06035
2555.54783,0.06042
2553.61912,0.06053
2551.69040,0.06060
2549.76169,0.06061
2547.83297,0.06061
2545.90426,0.06066
2543.97554,0.06080
2542.04683,0.06104
2540.11811,0.06123
2538.18940,0.06116
2536.26068,0.06076
2534.33197,0.06037
2532.40325,0.06039
2530.47453,0.06058
2528.54582,0.06057
2526.61710,0.06057
2524.68839,0.06071
2522.75967,0.06073
2520.83096,0.06061
2518.90224,0.06054
2516.97353,0.06045
2515.04481,0.06020
2513.11610,0.05998
2511.18738,0.06009
2509.25867,0.06046
2507.32995,0.06073
2505.40124,0.06079
2503.47252,0.06071
2501.54380,0.06053
2499.61509,0.06041
2497.68637,0.06042
2495.75766,0.06046
2493.82894,0.06056
2491.90023,0.06076
2489.97151,0.06084
2488.04280,0.06072
2486.11408,0.06055
2484.18537,0.06044
2482.25665,0.06045
2480.32794,0.06058
2478.39922,0.06067
2476.47050,0.06068
2474.54179,0.06063
2472.61307,0.06058
2470.68436,0.06056
2468.75564,0.06056
2466.82693,0.06066
2464.89821,0.06080
2462.96950,0.06081
2461.04078,0.06073
2459.11207,0.06079
2457.18335,0.06102
2455.25464,0.06107
2453.32592,0.06089
2451.39721,0.06079
2449.46849,0.06088
2447.53977,0.06098
2445.61106,0.06100
2443.68234,0.06104
2441.75363,0.06116
2439.82491,0.06133
2437.89620,0.06143
2435.96748,0.06137
2434.03877,0.06121
2432.11005,0.06108
2430.18134,0.06091
2428.25262,0.06069
2426.32391,0.06061
2424.39519,0.06070
2422.46648,0.06082
2420.53776,0.06086
2418.60904,0.06084
2416.68033,0.06078
2414.75161,0.06075
2412.82290,0.06077
2410.89418,0.06076
2408.96547,0.06067
2407.03675,0.06054
2405.10804,0.06058
2403.17932,0.06081
2401.25061,0.06100
2399.32189,0.06103
2397.39318,0.06100
2395.46446,0.06104
2393.53574,0.06111
2391.60703,0.06101
2389.67831,0.06084
2387.74960,0.06085
2385.82088,0.06103
2383.89217,0.06111
2381.96345,0.06110
2380.03474,0.06115
2378.10602,0.06117
2376.17731,0.06117
2374.24859,0.06121
2372.31988,0.06113
2370.39116,0.06104
2368.46245,0.06106
2366.53373,0.06107
2364.60501,0.06117
2362.67630,0.06136
2360.74758,0.06142
2358.81887,0.06138
2356.89015,0.06137
2354.96144,0.06114
2353.03272,0.06070
2351.10401,0.06073
2349.17529,0.06120
2347.24658,0.06143
2345.31786,0.06113
2343.38915,0.06068
2341.46043,0.06040
2339.53172,0.06021
2337.60300,0.06025
2335.67428,0.06067
2333.74557,0.06106
2331.81685,0.06111
2329.88814,0.06095
2327.95942,0.06085
2326.03071,0.06096
2324.10199,0.06115
2322.17328,0.06110
2320.24456,0.06080
2318.31585,0.06066
2316.38713,0.06084
2314.45842,0.06111
2312.52970,0.06125
2310.60099,0.06143
2308.67227,0.06158
2306.74355,0.06138
2304.81484,0.06115
2302.88612,0.06109
2300.95741,0.06101
2299.02869,0.06098
2297.09998,0.06104
2295.17126,0.06109
2293.24255,0.06117
2291.31383,0.06121
2289.38512,0.06109
2287.45640,0.06089
2285.52769,0.06073
2283.59897,0.06065
2281.67025,0.06066
2279.74154,0.06077
2277.81282,0.06091
2275.88411,0.06091
2273.95539,0.06087
2272.02668,0.06090
2270.09796,0.06081
2268.16925,0.06051
2266.24053,0.06028
2264.31182,0.06036
2262.38310,0.06055
2260.45439,0.06059
2258.52567,0.06046
2256.59696,0.06028
2254.66824,0.06016
2252.73952,0.06024
2250.81081,0.06048
2248.88209,0.06062
2246.95338,0.06057
2245.02466,0.06047
2243.09595,0.06038
2241.16723,0.06049
2239.23852,0.06082
2237.30980,0.06105
2235.38109,0.06098
2233.45237,0.06069
2231.52366,0.06052
2229.59494,0.06070
2227.66623,0.06109
2225.73751,0.06128
2223.80879,0.06103
2221.88008,0.06063
2219.95136,0.06049
2218.02265,0.06066
2216.09393,0.06090
2214.16522,0.06094
2212.23650,0.06087
2210.30779,0.06083
2208.37907,0.06079
2206.45036,0.06072
2204.52164,0.06072
2202.59293,0.06073
2200.66421,0.06069
2198.73549,0.06060
2196.80678,0.06045
2194.87806,0.06026
2192.94935,0.06022
2191.02063,0.06047
2189.09192,0.06081
2187.16320,0.06101
2185.23449,0.06105
2183.30577,0.06094
2181.37706,0.06077
2179.44834,0.06063
2177.51963,0.06056
2175.59091,0.06056
2173.66220,0.06061
2171.73348,0.06064
2169.80476,0.06061
2167.87605,0.06061
2165.94733,0.06064
2164.01862,0.06064
2162.08990,0.06059
2160.16119,0.06057
2158.23247,0.06067
2156.30376,0.06080
2154.37504,0.06080
2152.44633,0.06074
2150.51761,0.06075
2148.58890,0.06073
2146.66018,0.06060
2144.73147,0.06043
2142.80275,0.06032
2140.87403,0.06029
2138.94532,0.06026
2137.01660,0.06024
2135.08789,0.06022
2133.15917,0.06014
2131.23046,0.06013
2129.30174,0.06026
2127.37303,0.06039
2125.44431,0.06048
2123.51560,0.06054
2121.58688,0.06052
2119.65817,0.06038
2117.72945,0.06029
2115.80074,0.06038
2113.87202,0.06043
2111.94330,0.06025
2110.01459,0.06003
2108.08587,0.06003
2106.15716,0.06009
2104.22844,0.05997
2102.29973,0.05983
2100.37101,0.05991
2098.44230,0.06016
2096.51358,0.06039
2094.58487,0.06055
2092.65615,0.06063
2090.72744,0.06058
2088.79872,0.06049
2086.87000,0.06047
2084.94129,0.06042
2083.01257,0.06028
2081.08386,0.06016
2079.15514,0.06010
2077.22643,0.06003
2075.29771,0.05999
2073.36900,0.06003
2071.44028,0.06014
2069.51157,0.06020
2067.58285,0.06012
2065.65414,0.06001
2063.72542,0.05995
2061.79671,0.05990
2059.86799,0.05983
2057.93927,0.05975
2056.01056,0.05978
2054.08184,0.05995
2052.15313,0.06005
2050.22441,0.06004
2048.29570,0.06002
2046.36698,0.06002
2044.43827,0.06010
2042.50955,0.06024
2040.58084,0.06036
2038.65212,0.06036
2036.72341,0.06020
2034.79469,0.06003
2032.86598,0.05990
2030.93726,0.05973
2029.00854,0.05959
2027.07983,0.05964
2025.15111,0.05975
2023.22240,0.05981
2021.29368,0.05980
2019.36497,0.05969
2017.43625,0.05947
2015.50754,0.05933
2013.57882,0.05933
2011.65011,0.05935
2009.72139,0.05938
2007.79268,0.05949
2005.86396,0.05964
2003.93524,0.05976
2002.00653,0.05986
2000.07781,0.05983
1998.14910,0.05968
1996.22038,0.05960
1994.29167,0.05962
1992.36295,0.05959
1990.43424,0.05952
1988.50552,0.05953
1986.57681,0.05957
1984.64809,0.05960
1982.71938,0.05957
1980.79066,0.05944
1978.86195,0.05929
1976.93323,0.05924
1975.00451,0.05926
1973.07580,0.05930
1971.14708,0.05931
1969.21837,0.05927
1967.28965,0.05923
1965.36094,0.05922
1963.43222,0.05924
1961.50351,0.05924
1959.57479,0.05922
1957.64608,0.05917
1955.71736,0.05899
1953.78865,0.05873
1951.85993,0.05867
1949.93122,0.05884
1948.00250,0.05889
1946.07378,0.05874
1944.14507,0.05865
1942.21635,0.05879
1940.28764,0.05899
1938.35892,0.05902
1936.43021,0.05884
1934.50149,0.05859
1932.57278,0.05854
1930.64406,0.05857
1928.71535,0.05841
1926.78663,0.05826
1924.85792,0.05829
1922.92920,0.05838
1921.00049,0.05838
1919.07177,0.05824
1917.14305,0.05805
1915.21434,0.05795
1913.28562,0.05797
1911.35691,0.05802
1909.42819,0.05795
1907.49948,0.05778
1905.57076,0.05766
1903.64205,0.05771
1901.71333,0.05792
1899.78462,0.05808
1897.85590,0.05808
1895.92719,0.05792
1893.99847,0.05781
1892.06975,0.05785
1890.14104,0.05782
1888.21232,0.05764
1886.28361,0.05753
1884.35489,0.05759
1882.42618,0.05773
1880.49746,0.05773
1878.56875,0.05753
1876.64003,0.05734
1874.71132,0.05725
1872.78260,0.05715
1870.85389,0.05709
1868.92517,0.05703
1866.99646,0.05689
1865.06774,0.05684
1863.13902,0.05679
1861.21031,0.05653
1859.28159,0.05626
1857.35288,0.05616
1855.42416,0.05615
1853.49545,0.05610
1851.56673,0.05600
1849.63802,0.05593
1847.70930,0.05589
1845.78059,0.05565
1843.85187,0.05519
1841.92316,0.05485
1839.99444,0.05462
1838.06573,0.05440
1836.13701,0.05426
1834.20829,0.05416
1832.27958,0.05390
1830.35086,0.05351
1828.42215,0.05330
1826.49343,0.05318
1824.56472,0.05286
1822.63600,0.05243
1820.70729,0.05198
1818.77857,0.05147
1816.84986,0.05106
1814.92114,0.05072
1812.99243,0.05022
1811.06371,0.04951
1809.13499,0.04878
1807.20628,0.04817
1805.27756,0.04746
1803.34885,0.04653
1801.42013,0.04545
1799.49142,0.04424
1797.56270,0.04317
1795.63399,0.04240
1793.70527,0.04193
1791.77656,0.04198
1789.84784,0.04284
1787.91913,0.04445
1785.99041,0.04705
1784.06170,0.05077
1782.13298,0.05526
1780.20426,0.06033
1778.27555,0.06554
1776.34683,0.07049
1774.41812,0.07545
1772.48940,0.08095
1770.56069,0.08566
1768.63197,0.08808
1766.70326,0.08868
1764.77454,0.08791
1762.84583,0.08593
1760.91711,0.08323
1758.98840,0.08086
1757.05968,0.07874
1755.13097,0.07682
1753.20225,0.07539
1751.27353,0.07407
1749.34482,0.07258
1747.41610,0.07126
1745.48739,0.07024
1743.55867,0.06949
1741.62996,0.06890
1739.70124,0.06824
1737.77253,0.06773
1735.84381,0.06747
1733.91510,0.06702
1731.98638,0.06648
1730.05767,0.06626
1728.12895,0.06609
1726.20024,0.06590
1724.27152,0.06576
1722.34280,0.06554
1720.41409,0.06521
1718.48537,0.06485
1716.55666,0.06477
1714.62794,0.06461
1712.69923,0.06402
1710.77051,0.06350
1708.84180,0.06332
1706.91308,0.06322
1704.98437,0.06298
1703.05565,0.06273
1701.12694,0.06246
1699.19822,0.06224
1697.26950,0.06206
1695.34079,0.06168
1693.41207,0.06166
1691.48336,0.06200
1689.55464,0.06210
1687.62593,0.06183
1685.69721,0.06141
1683.76850,0.06097
1681.83978,0.06079
1679.91107,0.06081
1677.98235,0.06088
1676.05364,0.06086
1674.12492,0.06075
1672.19621,0.06075
1670.26749,0.06053
1668.33877,0.06007
1666.41006,0.05999
1664.48134,0.06012
1662.55263,0.06013
1660.62391,0.05993
1658.69520,0.05968
1656.76648,0.05958
1654.83777,0.05949
1652.90905,0.05906
1650.98034,0.05901
1649.05162,0.05922
1647.12291,0.05920
1645.19419,0.05916
1643.26548,0.05926
1641.33676,0.05931
1639.40804,0.05938
1637.47933,0.05947
1635.55061,0.05934
1633.62190,0.05911
1631.69318,0.05890
1629.76447,0.05870
1627.83575,0.05863
1625.90704,0.05868
1623.97832,0.05858
1622.04961,0.05825
1620.12089,0.05807
1618.19218,0.05815
1616.26346,0.05806
1614.33474,0.05768
1612.40603,0.05743
1610.47731,0.05730
1608.54860,0.05721
1606.61988,0.05726
1604.69117,0.05738
1602.76245,0.05752
1600.83374,0.05782
1598.90502,0.05813
1596.97631,0.05830
1595.04759,0.05846
1593.11888,0.05869
1591.19016,0.05890
1589.26145,0.05904
1587.33273,0.05897
1585.40401,0.05858
1583.47530,0.05806
1581.54658,0.05778
1579.61787,0.05776
1577.68915,0.05764
1575.76044,0.05721
1573.83172,0.05686
1571.90301,0.05670
1569.97429,0.05652
1568.04558,0.05634
1566.11686,0.05611
1564.18815,0.05571
1562.25943,0.05539
1560.33072,0.05515
1558.40200,0.05484
1556.47328,0.05471
1554.54457,0.05456
1552.61585,0.05434
1550.68714,0.05412
1548.75842,0.05393
1546.82971,0.05392
1544.90099,0.05397
1542.97228,0.05390
1541.04356,0.05333
1539.11485,0.05226
1537.18613,0.05198
1535.25742,0.05199
1533.32870,0.05143
1531.39999,0.05062
1529.47127,0.05022
1527.54255,0.04989
1525.61384,0.04938
1523.68512,0.04874
1521.75641,0.04746
1519.82769,0.04564
1517.89898,0.04403
1515.97026,0.04263
1514.04155,0.04202
1512.11283,0.04294
1510.18412,0.04578
1508.25540,0.05206
1506.32669,0.06302
1504.39797,0.06974
1502.46925,0.07221
1500.54054,0.07337
1498.61182,0.07333
1496.68311,0.07222
1494.75439,0.07105
1492.82568,0.07017
1490.89696,0.06900
1488.96825,0.06734
1487.03953,0.06596
1485.11082,0.06497
1483.18210,0.06414
1481.25339,0.06346
1479.32467,0.06284
1477.39596,0.06220
1475.46724,0.06168
1473.53852,0.06127
1471.60981,0.06073
1469.68109,0.06029
1467.75238,0.06004
1465.82366,0.06000
1463.89495,0.06026
1461.96623,0.06055
1460.03752,0.06062
1458.10880,0.06027
1456.18009,0.05972
1454.25137,0.05964
1452.32266,0.05971
1450.39394,0.05955
1448.46523,0.05915
1446.53651,0.05876
1444.60779,0.05853
1442.67908,0.05833
1440.75036,0.05812
1438.82165,0.05786
1436.89293,0.05736
1434.96422,0.05688
1433.03550,0.05662
1431.10679,0.05634
1429.17807,0.05597
1427.24936,0.05560
1425.32064,0.05515
1423.39193,0.05466
1421.46321,0.05431
1419.53449,0.05385
1417.60578,0.05305
1415.67706,0.05260
1413.74835,0.05283
1411.81963,0.05351
1409.89092,0.05436
1407.96220,0.05522
1406.03349,0.05592
1404.10477,0.05614
1402.17606,0.05592
1400.24734,0.05546
1398.31863,0.05475
1396.38991,0.05392
1394.46120,0.05318
1392.53248,0.05269
1390.60376,0.05254
1388.67505,0.05269
1386.74633,0.05312
1384.81762,0.05346
1382.88890,0.05347
1380.96019,0.05331
1379.03147,0.05306
1377.10276,0.05270
1375.17404,0.05214
1373.24533,0.05128
1371.31661,0.05026
1369.38790,0.04956
1367.45918,0.04984
1365.53047,0.05106
1363.60175,0.05241
1361.67303,0.05306
1359.74432,0.05289
1357.81560,0.05232
1355.88689,0.05161
1353.95817,0.05087
1352.02946,0.05009
1350.10074,0.04941
1348.17203,0.04900
1346.24331,0.04869
1344.31460,0.04825
1342.38588,0.04770
1340.45717,0.04717
1338.52845,0.04663
1336.59974,0.04612
1334.67102,0.04561
1332.74230,0.04513
1330.81359,0.04474
1328.88487,0.04440
1326.95616,0.04398
1325.02744,0.04331
1323.09873,0.04253
1321.17001,0.04180
1319.24130,0.04105
1317.31258,0.04029
1315.38387,0.03959
1313.45515,0.03890
1311.52644,0.03837
1309.59772,0.03816
1307.66900,0.03798
1305.74029,0.03740
1303.81157,0.03650
1301.88286,0.03567
1299.95414,0.03512
1298.02543,0.03480
1296.09671,0.03461
1294.16800,0.03451
1292.23928,0.03454
1290.31057,0.03473
1288.38185,0.03476
1286.45314,0.03420
1284.52442,0.03314
1282.59571,0.03200
1280.66699,0.03071
1278.73827,0.02909
1276.80956,0.02739
1274.88084,0.02571
1272.95213,0.02396
1271.02341,0.02224
1269.09470,0.02086
1267.16598,0.02021
1265.23727,0.02086
1263.30855,0.02344
1261.37984,0.02880
1259.45112,0.03753
1257.52241,0.04873
1255.59369,0.06066
1253.66498,0.07204
1251.73626,0.08207
1249.80754,0.09027
1247.87883,0.09681
1245.95011,0.10210
1244.02140,0.10643
1242.09268,0.11034
1240.16397,0.11420
1238.23525,0.11816
1236.30654,0.12233
1234.37782,0.12662
1232.44911,0.13068
1230.52039,0.13416
1228.59168,0.13693
1226.66296,0.13885
1224.73424,0.13942
1222.80553,0.13836
1220.87681,0.13569
1218.94810,0.13122
1217.01938,0.12465
1215.09067,0.11604
1213.16195,0.10599
1211.23324,0.09542
1209.30452,0.08543
1207.37581,0.07760
1205.44709,0.07452
1203.51838,0.07904
1201.58966,0.09180
1199.66095,0.11007
1197.73223,0.12959
1195.80351,0.14677
1193.87480,0.15938
1191.94608,0.16625
1190.01737,0.16704
1188.08865,0.16205
1186.15994,0.15240
1184.23122,0.14048
1182.30251,0.12888
1180.37379,0.11901
1178.44508,0.11092
1176.51636,0.10353
1174.58765,0.09569
1172.65893,0.08867
1170.73022,0.08669
1168.80150,0.09416
1166.87278,0.11154
1164.94407,0.13286
1163.01535,0.14929
1161.08664,0.15582
1159.15792,0.15351
1157.22921,0.14662
1155.30049,0.13884
1153.37178,0.13189
1151.44306,0.12623
1149.51435,0.12156
1147.58563,0.11748
1145.65692,0.11404
1143.72820,0.11113
1141.79949,0.10863
1139.87077,0.10657
1137.94205,0.10468
1136.01334,0.10260
1134.08462,0.10072
1132.15591,0.09930
1130.22719,0.09791
1128.29848,0.09641
1126.36976,0.09491
1124.44105,0.09342
1122.51233,0.09208
1120.58362,0.09108
1118.65490,0.09027
1116.72619,0.08941
1114.79747,0.08857
1112.86875,0.08803
1110.94004,0.08789
1109.01132,0.08804
1107.08261,0.08820
1105.15389,0.08824
1103.22518,0.08843
1101.29646,0.08878
1099.36775,0.08844
1097.43903,0.08715
1095.51032,0.08575
1093.58160,0.08442
1091.65289,0.08248
1089.72417,0.07994
1087.79546,0.07780
1085.86674,0.07736
1083.93802,0.08003
1082.00931,0.08621
1080.08059,0.09290
1078.15188,0.09601
1076.22316,0.09516
1074.29445,0.09281
1072.36573,0.09066
1070.43702,0.08911
1068.50830,0.08812
1066.57959,0.08729
1064.65087,0.08627
1062.72216,0.08515
1060.79344,0.08412
1058.86473,0.08339
1056.93601,0.08290
1055.00729,0.08220
1053.07858,0.08127
1051.14986,0.08044
1049.22115,0.07970
1047.29243,0.07908
1045.36372,0.07855
1043.43500,0.07791
1041.50629,0.07710
1039.57757,0.07624
1037.64886,0.07577
1035.72014,0.07570
1033.79143,0.07501
1031.86271,0.07333
1029.93399,0.07148
1028.00528,0.06978
1026.07656,0.06779
1024.14785,0.06543
1022.21913,0.06318
1020.29042,0.06270
1018.36170,0.06773
1016.43299,0.07967
1014.50427,0.09214
1012.57556,0.09747
1010.64684,0.09637
1008.71813,0.09426
1006.78941,0.09338
1004.86070,0.09299
1002.93198,0.09243
1001.00326,0.09149
999.07455,0.09020
997.14583,0.08892
995.21712,0.08781
993.28840,0.08676
991.35969,0.08586
989.43097,0.08538
987.50226,0.08511
985.57354,0.08467
983.64483,0.08407
981.71611,0.08336
979.78740,0.08258
977.85868,0.08191
975.92997,0.08144
974.00125,0.08115
972.07253,0.08083
970.14382,0.08030
968.21510,0.07981
966.28639,0.07960
964.35767,0.07945
962.42896,0.07917
960.50024,0.07896
958.57153,0.07895
956.64281,0.07884
954.71410,0.07845
952.78538,0.07815
950.85667,0.07801
948.92795,0.07774
946.99924,0.07739
945.07052,0.07724
943.14180,0.07719
941.21309,0.07692
939.28437,0.07647
937.35566,0.07629
935.42694,0.07639
933.49823,0.07630
931.56951,0.07594
929.64080,0.07563
927.71208,0.07539
925.78337,0.07498
923.85465,0.07446
921.92594,0.07428
919.99722,0.07452
918.06850,0.07467
916.13979,0.07431
914.21107,0.07375
912.28236,0.07342
910.35364,0.07342
908.42493,0.07348
906.49621,0.07334
904.56750,0.07297
902.63878,0.07241
900.71007,0.07174
898.78135,0.07094
896.85264,0.06995
894.92392,0.06926
892.99521,0.06968
891.06649,0.07114
889.13777,0.07281
887.20906,0.07411
885.28034,0.07508
883.35163,0.07568
881.42291,0.07571
879.49420,0.07556
877.56548,0.07555
875.63677,0.07513
873.70805,0.07399
871.77934,0.07275
869.85062,0.07203
867.92191,0.07169
865.99319,0.07121
864.06448,0.07039
862.13576,0.06937
860.20704,0.06838
858.27833,0.06755
856.34961,0.06692
854.42090,0.06649
852.49218,0.06603
850.56347,0.06553
848.63475,0.06538
846.70604,0.06572
844.77732,0.06609
842.84861,0.06614
840.91989,0.06629
838.99118,0.06719
837.06246,0.06889
835.13375,0.07128
833.20503,0.07440
831.27631,0.07824
829.34760,0.08211
827.41888,0.08465
825.49017,0.08533
823.56145,0.08488
821.63274,0.08421
819.70402,0.08377
817.77531,0.08369
815.84659,0.08416
813.91788,0.08499
811.98916,0.08542
810.06045,0.08518
808.13173,0.08466
806.20301,0.08414
804.27430,0.08365
802.34558,0.08290
800.41687,0.08159
798.48815,0.08020
796.55944,0.07932
794.63072,0.07887
792.70201,0.07839
790.77329,0.07781
788.84458,0.07714
786.91586,0.07628
784.98715,0.07540
783.05843,0.07459
781.12972,0.07395
779.20100,0.07395
777.27228,0.07457
775.34357,0.07510
773.41485,0.07533
771.48614,0.07580
769.55742,0.07673
767.62871,0.07790
765.69999,0.07922
763.77128,0.08031
761.84256,0.08046
759.91385,0.08003
757.98513,0.07988
756.05642,0.07997
754.12770,0.07995
752.19899,0.07999
750.27027,0.08004
748.34155,0.07980
746.41284,0.07938
744.48412,0.07892
742.55541,0.07846
740.62669,0.07810
738.69798,0.07774
736.76926,0.07739
734.84055,0.07719
732.91183,0.07711
730.98312,0.07700
729.05440,0.07689
727.12569,0.07677
725.19697,0.07659
723.26825,0.07646
721.33954,0.07652
719.41082,0.07660
717.48211,0.07638
715.55339,0.07597
713.62468,0.07577
711.69596,0.07606
709.76725,0.07686
707.83853,0.07760
705.90982,0.07776
703.98110,0.07793
702.05239,0.07839
700.12367,0.07821
698.19496,0.07758
696.26624,0.07741
694.33752,0.07728
692.40881,0.07678
690.48009,0.07633
688.55138,0.07619
686.62266,0.07615
684.69395,0.07583
682.76523,0.07539
680.83652,0.07517
678.90780,0.07516
676.97909,0.07512
675.05037,0.07478
673.12166,0.07439
671.19294,0.07441
669.26423,0.07456
667.33551,0.07445
665.40679,0.07449
663.47808,0.07477
661.54936,0.07483
659.62065,0.07473
657.69193,0.07465
655.76322,0.07424
653.83450,0.07344
651.90579,0.07288
649.97707,0.07297
648.04836,0.07354
646.11964,0.07404
644.19093,0.07403
642.26221,0.07350
640.33350,0.07245
638.40478,0.07156
636.47606,0.07179
634.54735,0.07272
632.61863,0.07375
630.68992,0.07420
628.76120,0.07355
626.83249,0.07264
624.90377,0.07187
622.97506,0.07109
621.04634,0.07059
619.11763,0.06998
617.18891,0.06942
615.26020,0.06996
613.33148,0.07085
611.40276,0.07027
609.47405,0.06802
607.54533,0.06612
605.61662,0.06678
603.68790,0.06873
601.75919,0.06867
599.83047,0.06626
