7496.91655,0.08085
7494.98784,0.09213
7493.05912,0.07907
7491.13041,0.06324
7489.20169,0.07685
7487.27297,0.10125
7485.34426,0.09915
7483.41554,0.08280
7481.48683,0.07203
7479.55811,0.07261
7477.62940,0.07200
7475.70068,0.06593
7473.77197,0.06267
7471.84325,0.07163
7469.91454,0.08088
7467.98582,0.08682
7466.05711,0.08743
7464.12839,0.08502
7462.19968,0.08992
7460.27096,0.09655
7458.34224,0.08458
7456.41353,0.06301
7454.48481,0.06361
7452.55610,0.08469
7450.62738,0.09175
7448.69867,0.07906
7446.76995,0.07142
7444.84124,0.07808
7442.91252,0.07959
7440.98381,0.07001
7439.05509,0.06859
7437.12638,0.07830
7435.19766,0.08580
7433.26895,0.09263
7431.34023,0.08959
7429.41151,0.07535
7427.48280,0.06657
7425.55408,0.06843
7423.62537,0.07137
7421.69665,0.07255
7419.76794,0.07403
7417.83922,0.07656
7415.91051,0.07801
7413.98179,0.07946
7412.05308,0.08126
7410.12436,0.09263
7408.19565,0.11246
7406.26693,0.12429
7404.33821,0.11357
7402.40950,0.09145
7400.48078,0.08007
7398.55207,0.08007
7396.62335,0.06910
7394.69464,0.04894
7392.76592,0.04923
7390.83721,0.07418
7388.90849,0.09724
7386.97978,0.11057
7385.05106,0.11324
7383.12235,0.10653
7381.19363,0.08727
7379.26492,0.06354
7377.33620,0.05177
7375.40748,0.05689
7373.47877,0.06310
7371.55005,0.06570
7369.62134,0.06345
7367.69262,0.05708
7365.76391,0.05085
7363.83519,0.04841
7361.90648,0.04351
7359.97776,0.04511
7358.04905,0.05695
7356.12033,0.07253
7354.19162,0.08181
7352.26290,0.08657
7350.33419,0.09278
7348.40547,0.10471
7346.47675,0.11217
7344.54804,0.10974
7342.61932,0.10142
7340.69061,0.08552
7338.76189,0.06903
7336.83318,0.06578
7334.90446,0.06918
7332.97575,0.07701
7331.04703,0.09276
7329.11832,0.10417
7327.18960,0.10156
7325.26089,0.09563
7323.33217,0.09153
7321.40346,0.09501
7319.47474,0.10340
7317.54602,0.10142
7315.61731,0.09509
7313.68859,0.09490
7311.75988,0.08717
7309.83116,0.07188
7307.90245,0.06346
7305.97373,0.06229
7304.04502,0.06454
7302.11630,0.06956
7300.18759,0.07243
7298.25887,0.06939
7296.33016,0.06280
7294.40144,0.05911
7292.47272,0.05857
7290.54401,0.05624
7288.61529,0.06172
7286.68658,0.07389
7284.75786,0.07096
7282.82915,0.07166
7280.90043,0.09031
7278.97172,0.10294
7277.04300,0.09075
7275.11429,0.06993
7273.18557,0.06095
7271.25686,0.06283
7269.32814,0.06781
7267.39943,0.07883
7265.47071,0.08846
7263.54199,0.09118
7261.61328,0.09404
7259.68456,0.09676
7257.75585,0.08801
7255.82713,0.07342
7253.89842,0.06639
7251.96970,0.06265
7250.04099,0.05561
7248.11227,0.05142
7246.18356,0.06006
7244.25484,0.08026
7242.32613,0.09095
7240.39741,0.08509
7238.46870,0.07323
7236.53998,0.06681
7234.61126,0.07561
7232.68255,0.09620
7230.75383,0.10327
7228.82512,0.09177
7226.89640,0.07995
7224.96769,0.07495
7223.03897,0.07007
7221.11026,0.06310
7219.18154,0.05993
7217.25283,0.06614
7215.32411,0.07742
7213.39540,0.08548
7211.46668,0.08745
7209.53796,0.08681
7207.60925,0.07806
7205.68053,0.07185
7203.75182,0.07551
7201.82310,0.07948
7199.89439,0.07468
7197.96567,0.07020
7196.03696,0.07181
7194.10824,0.07783
7192.17953,0.07972
7190.25081,0.07256
7188.32210,0.06510
7186.39338,0.06549
7184.46467,0.06890
7182.53595,0.07478
7180.60723,0.08301
7178.67852,0.08933
7176.74980,0.09343
7174.82109,0.09493
7172.89237,0.08779
7170.96366,0.07844
7169.03494,0.07718
7167.10623,0.08093
7165.17751,0.07863
7163.24880,0.07072
7161.32008,0.06795
7159.39137,0.07109
7157.46265,0.07087
7155.53394,0.06997
7153.60522,0.07442
7151.67650,0.08111
7149.74779,0.08573
7147.81907,0.09193
7145.89036,0.09808
7143.96164,0.09716
7142.03293,0.09182
7140.10421,0.08955
7138.17550,0.08917
7136.24678,0.08847
7134.31807,0.08783
7132.38935,0.08718
7130.46064,0.08411
7128.53192,0.08138
7126.60321,0.08158
7124.67449,0.08127
7122.74577,0.07815
7120.81706,0.07033
7118.88834,0.06141
7116.95963,0.06983
7115.03091,0.08794
7113.10220,0.08817
7111.17348,0.07749
7109.24477,0.07371
7107.31605,0.07254
7105.38734,0.07384
7103.45862,0.07901
7101.52991,0.08263
7099.60119,0.08179
7097.67247,0.08021
7095.74376,0.08447
7093.81504,0.08772
7091.88633,0.08181
7089.95761,0.08059
7088.02890,0.09124
7086.10018,0.10009
7084.17147,0.10337
7082.24275,0.10837
7080.31404,0.11043
7078.38532,0.10511
7076.45661,0.09216
7074.52789,0.07694
7072.59918,0.07364
7070.67046,0.07719
7068.74174,0.07366
7066.81303,0.07519
7064.88431,0.08348
7062.95560,0.08613
7061.02688,0.08905
7059.09817,0.09626
7057.16945,0.09725
7055.24074,0.09015
7053.31202,0.08391
7051.38331,0.08675
7049.45459,0.09194
7047.52588,0.09615
7045.59716,0.10493
7043.66845,0.11279
7041.73973,0.11180
7039.81101,0.10600
7037.88230,0.09722
7035.95358,0.08717
7034.02487,0.08195
7032.09615,0.08484
7030.16744,0.09246
7028.23872,0.10113
7026.31001,0.10360
7024.38129,0.09426
7022.45258,0.08416
7020.52386,0.08331
7018.59515,0.08400
7016.66643,0.08389
7014.73771,0.08859
7012.80900,0.09537
7010.88028,0.09612
7008.95157,0.09484
7007.02285,0.10074
7005.09414,0.10330
7003.16542,0.09394
7001.23671,0.08775
6999.30799,0.09155
6997.37928,0.09732
6995.45056,0.10176
6993.52185,0.10272
6991.59313,0.09772
6989.66442,0.09145
6987.73570,0.08745
6985.80698,0.08061
6983.87827,0.06895
6981.94955,0.06538
6980.02084,0.07548
6978.09212,0.08892
6976.16341,0.09560
6974.23469,0.09623
6972.30598,0.09822
6970.37726,0.09997
6968.44855,0.09318
6966.51983,0.08459
6964.59112,0.08390
6962.66240,0.08800
6960.73369,0.09337
6958.80497,0.09685
6956.87625,0.09249
6954.94754,0.08476
6953.01882,0.08400
6951.09011,0.08968
6949.16139,0.09245
6947.23268,0.09199
6945.30396,0.09019
6943.37525,0.08924
6941.44653,0.09014
6939.51782,0.08969
6937.58910,0.09080
6935.66039,0.09544
6933.73167,0.09539
6931.80296,0.09380
6929.87424,0.09875
6927.94552,0.10575
6926.01681,0.10676
6924.08809,0.10195
6922.15938,0.09593
6920.23066,0.08955
6918.30195,0.08572
6916.37323,0.09019
6914.44452,0.09721
6912.51580,0.09627
6910.58709,0.08761
6908.65837,0.08133
6906.72966,0.08609
6904.80094,0.09710
6902.87222,0.10061
6900.94351,0.09587
6899.01479,0.09162
6897.08608,0.09116
6895.15736,0.09235
6893.22865,0.08942
6891.29993,0.08127
6889.37122,0.07474
6887.44250,0.07497
6885.51379,0.07936
6883.58507,0.08090
6881.65636,0.08460
6879.72764,0.09427
6877.79893,0.09783
6875.87021,0.09099
6873.94149,0.08569
6872.01278,0.08770
6870.08406,0.09052
6868.15535,0.08981
6866.22663,0.08848
6864.29792,0.08945
6862.36920,0.09389
6860.44049,0.10299
6858.51177,0.11126
6856.58306,0.10947
6854.65434,0.09894
6852.72563,0.08855
6850.79691,0.08580
6848.86820,0.09154
6846.93948,0.09845
6845.01076,0.10070
6843.08205,0.10347
6841.15333,0.11106
6839.22462,0.11460
6837.29590,0.10798
6835.36719,0.10210
6833.43847,0.10475
6831.50976,0.10343
6829.58104,0.09063
6827.65233,0.08220
6825.72361,0.08577
6823.79490,0.09272
6821.86618,0.09574
6819.93746,0.09509
6818.00875,0.09465
6816.08003,0.09628
6814.15132,0.09909
6812.22260,0.10026
6810.29389,0.09608
6808.36517,0.09162
6806.43646,0.09124
6804.50774,0.09163
6802.57903,0.09118
6800.65031,0.09262
6798.72160,0.09500
6796.79288,0.09772
6794.86417,0.10330
6792.93545,0.10704
6791.00673,0.10312
6789.07802,0.09746
6787.14930,0.09858
6785.22059,0.10752
6783.29187,0.11438
6781.36316,0.11052
6779.43444,0.10343
6777.50573,0.10199
6775.57701,0.10429
6773.64830,0.10655
6771.71958,0.10535
6769.79087,0.09984
6767.86215,0.09089
6765.93344,0.08162
6764.00472,0.07824
6762.07600,0.08054
6760.14729,0.08271
6758.21857,0.08513
6756.28986,0.09114
6754.36114,0.09648
6752.43243,0.09689
6750.50371,0.09818
6748.57500,0.10106
6746.64628,0.10008
6744.71757,0.09716
6742.78885,0.09546
6740.86014,0.09147
6738.93142,0.08851
6737.00271,0.09333
6735.07399,0.10375
6733.14527,0.11095
6731.21656,0.11031
6729.28784,0.10514
6727.35913,0.10058
6725.43041,0.09643
6723.50170,0.09474
6721.57298,0.09769
6719.64427,0.10096
6717.71555,0.10196
6715.78684,0.10184
6713.85812,0.09945
6711.92941,0.09526
6710.00069,0.09406
6708.07197,0.09872
6706.14326,0.10546
6704.21454,0.11051
6702.28583,0.11013
6700.35711,0.10327
6698.42840,0.09907
6696.49968,0.10274
6694.57097,0.10710
6692.64225,0.11000
6690.71354,0.11040
6688.78482,0.10605
6686.85611,0.10028
6684.92739,0.09552
6682.99868,0.09249
6681.06996,0.09468
6679.14124,0.09816
6677.21253,0.09561
6675.28381,0.08904
6673.35510,0.08481
6671.42638,0.08513
6669.49767,0.08638
6667.56895,0.08372
6665.64024,0.08246
6663.71152,0.08832
6661.78281,0.09599
6659.85409,0.09903
6657.92538,0.09891
6655.99666,0.09948
6654.06795,0.10093
6652.13923,0.10238
6650.21051,0.10596
6648.28180,0.11011
6646.35308,0.11186
6644.42437,0.11255
6642.49565,0.11545
6640.56694,0.11609
6638.63822,0.10893
6636.70951,0.09953
6634.78079,0.09642
6632.85208,0.09891
6630.92336,0.10032
6628.99465,0.09881
6627.06593,0.10069
6625.13722,0.10708
6623.20850,0.10941
6621.27978,0.10470
6619.35107,0.10252
6617.42235,0.10631
6615.49364,0.11108
6613.56492,0.11395
6611.63621,0.11086
6609.70749,0.10267
6607.77878,0.09909
6605.85006,0.10284
6603.92135,0.10824
6601.99263,0.11099
6600.06392,0.11279
6598.13520,0.11544
6596.20648,0.11475
6594.27777,0.11006
6592.34905,0.10794
6590.42034,0.10949
6588.49162,0.11285
6586.56291,0.11482
6584.63419,0.11386
6582.70548,0.11290
6580.77676,0.11125
6578.84805,0.10718
6576.91933,0.10318
6574.99062,0.09998
6573.06190,0.10011
6571.13319,0.10344
6569.20447,0.10434
6567.27575,0.10478
6565.34704,0.10791
6563.41832,0.10846
6561.48961,0.10711
6559.56089,0.10817
6557.63218,0.10551
6555.70346,0.09895
6553.77475,0.09908
6551.84603,0.10421
6549.91732,0.10661
6547.98860,0.10816
6546.05989,0.11004
6544.13117,0.10907
6542.20246,0.10705
6540.27374,0.10818
6538.34502,0.11390
6536.41631,0.11997
6534.48759,0.11952
6532.55888,0.11364
6530.63016,0.10931
6528.70145,0.10795
6526.77273,0.10775
6524.84402,0.10858
6522.91530,0.10822
6520.98659,0.10425
6519.05787,0.09950
6517.12916,0.09837
6515.20044,0.10091
6513.27172,0.10274
6511.34301,0.10209
6509.41429,0.10151
6507.48558,0.10385
6505.55686,0.10685
6503.62815,0.10528
6501.69943,0.10048
6499.77072,0.09824
6497.84200,0.10094
6495.91329,0.10762
6493.98457,0.11493
6492.05586,0.11889
6490.12714,0.11800
6488.19843,0.11457
6486.26971,0.11196
6484.34099,0.11287
6482.41228,0.11522
6480.48356,0.11392
6478.55485,0.11102
6476.62613,0.10983
6474.69742,0.10779
6472.76870,0.10578
6470.83999,0.10721
6468.91127,0.11130
6466.98256,0.11557
6465.05384,0.11740
6463.12513,0.11596
6461.19641,0.11201
6459.26770,0.10536
6457.33898,0.10156
6455.41026,0.10644
6453.48155,0.11335
6451.55283,0.11267
6449.62412,0.10659
6447.69540,0.10347
6445.76669,0.10453
6443.83797,0.10621
6441.90926,0.10733
6439.98054,0.10666
6438.05183,0.10647
6436.12311,0.11036
6434.19440,0.11386
6432.26568,0.11270
6430.33697,0.11062
6428.40825,0.11115
6426.47953,0.11374
6424.55082,0.11356
6422.62210,0.10737
6420.69339,0.10213
6418.76467,0.10311
6416.83596,0.10545
6414.90724,0.10672
6412.97853,0.10881
6411.04981,0.11327
6409.12110,0.11643
6407.19238,0.11331
6405.26367,0.10837
6403.33495,0.10761
6401.40623,0.10892
6399.47752,0.10870
6397.54880,0.10834
6395.62009,0.11083
6393.69137,0.11343
6391.76266,0.11251
6389.83394,0.11144
6387.90523,0.11452
6385.97651,0.11905
6384.04780,0.12014
6382.11908,0.11687
6380.19037,0.11179
6378.26165,0.10832
6376.33294,0.10785
6374.40422,0.10644
6372.47550,0.10150
6370.54679,0.09964
6368.61807,0.10384
6366.68936,0.10610
6364.76064,0.10503
6362.83193,0.10743
6360.90321,0.11095
6358.97450,0.10838
6357.04578,0.10484
6355.11707,0.10661
6353.18835,0.10783
6351.25964,0.10431
6349.33092,0.10166
6347.40221,0.10180
6345.47349,0.10234
6343.54477,0.10369
6341.61606,0.10552
6339.68734,0.10533
6337.75863,0.10467
6335.82991,0.10517
6333.90120,0.10617
6331.97248,0.10828
6330.04377,0.11179
6328.11505,0.11397
6326.18634,0.11181
6324.25762,0.10765
6322.32891,0.10833
6320.40019,0.11325
6318.47147,0.11413
6316.54276,0.10999
6314.61404,0.10740
6312.68533,0.10701
6310.75661,0.10668
6308.82790,0.10607
6306.89918,0.10478
6304.97047,0.10474
6303.04175,0.10773
6301.11304,0.10916
6299.18432,0.10827
6297.25561,0.10848
6295.32689,0.10769
6293.39818,0.10461
6291.46946,0.10354
6289.54074,0.10519
6287.61203,0.10664
6285.68331,0.10771
6283.75460,0.10980
6281.82588,0.11057
6279.89717,0.10845
6277.96845,0.10556
6276.03974,0.10372
6274.11102,0.10525
6272.18231,0.10975
6270.25359,0.11171
6268.32488,0.10984
6266.39616,0.10626
6264.46745,0.10060
6262.53873,0.09493
6260.61001,0.09414
6258.68130,0.09843
6256.75258,0.10350
6254.82387,0.10497
6252.89515,0.10360
6250.96644,0.10445
6249.03772,0.10736
6247.10901,0.10759
6245.18029,0.10499
6243.25158,0.10271
6241.32286,0.10328
6239.39415,0.10372
6237.46543,0.10087
6235.53672,0.09875
6233.60800,0.10002
6231.67928,0.10238
6229.75057,0.10449
6227.82185,0.10396
6225.89314,0.10053
6223.96442,0.09808
6222.03571,0.09804
6220.10699,0.09808
6218.17828,0.09769
6216.24956,0.09840
6214.32085,0.09864
6212.39213,0.09649
6210.46342,0.09513
6208.53470,0.09809
6206.60598,0.10298
6204.67727,0.10385
6202.74855,0.09853
6200.81984,0.09113
6198.89112,0.08737
6196.96241,0.08873
6195.03369,0.09198
6193.10498,0.09345
6191.17626,0.09218
6189.24755,0.09044
6187.31883,0.09071
6185.39012,0.09247
6183.46140,0.09313
6181.53269,0.09004
6179.60397,0.08465
6177.67525,0.08217
6175.74654,0.08493
6173.81782,0.08824
6171.88911,0.08680
6169.96039,0.08385
6168.03168,0.08407
6166.10296,0.08438
6164.17425,0.08171
6162.24553,0.07798
6160.31682,0.07648
6158.38810,0.07655
6156.45939,0.07487
6154.53067,0.07333
6152.60196,0.07679
6150.67324,0.08339
6148.74452,0.08793
6146.81581,0.08926
6144.88709,0.08701
6142.95838,0.08124
6141.02966,0.07534
6139.10095,0.07328
6137.17223,0.07624
6135.24352,0.07980
6133.31480,0.07888
6131.38609,0.07493
6129.45737,0.07253
6127.52866,0.07223
6125.59994,0.07150
6123.67122,0.07023
6121.74251,0.07005
6119.81379,0.07143
6117.88508,0.07370
6115.95636,0.07333
6114.02765,0.06917
6112.09893,0.06674
6110.17022,0.06831
6108.24150,0.06882
6106.31279,0.06747
6104.38407,0.06728
6102.45536,0.06611
6100.52664,0.06245
6098.59793,0.05920
6096.66921,0.05720
6094.74049,0.05583
6092.81178,0.05611
6090.88306,0.05850
6088.95435,0.05953
6087.02563,0.05608
6085.09692,0.05063
6083.16820,0.04847
6081.23949,0.05208
6079.31077,0.05683
6077.38206,0.05774
6075.45334,0.05681
6073.52463,0.05560
6071.59591,0.05468
6069.66720,0.05574
6067.73848,0.05596
6065.80976,0.05294
6063.88105,0.04945
6061.95233,0.04933
6060.02362,0.05372
6058.09490,0.05654
6056.16619,0.05234
6054.23747,0.04568
6052.30876,0.04267
6050.38004,0.04229
6048.45133,0.04230
6046.52261,0.04253
6044.59390,0.04165
6042.66518,0.04088
6040.73647,0.04314
6038.80775,0.04448
6036.87903,0.04211
6034.95032,0.04064
6033.02160,0.04222
6031.09289,0.04377
6029.16417,0.04286
6027.23546,0.03880
6025.30674,0.03472
6023.37803,0.03441
6021.44931,0.03684
6019.52060,0.03827
6017.59188,0.03640
6015.66317,0.03407
6013.73445,0.03547
6011.80573,0.03761
6009.87702,0.03755
6007.94830,0.03862
6006.01959,0.04031
6004.09087,0.03855
6002.16216,0.03553
6000.23344,0.03537
5998.30473,0.03756
5996.37601,0.03722
5994.44730,0.03459
5992.51858,0.03450
5990.58987,0.03637
5988.66115,0.03716
5986.73244,0.03976
5984.80372,0.04468
5982.87500,0.04518
5980.94629,0.04088
5979.01757,0.03878
5977.08886,0.03990
5975.16014,0.04107
5973.23143,0.04043
5971.30271,0.03937
5969.37400,0.04052
5967.44528,0.04223
5965.51657,0.04273
5963.58785,0.04364
5961.65914,0.04391
5959.73042,0.04291
5957.80171,0.04303
5955.87299,0.04339
5953.94427,0.04208
5952.01556,0.04177
5950.08684,0.04349
5948.15813,0.04429
5946.22941,0.04316
5944.30070,0.04257
5942.37198,0.04370
5940.44327,0.04406
5938.51455,0.04225
5936.58584,0.04100
5934.65712,0.04087
5932.72841,0.04044
5930.79969,0.04095
5928.87097,0.04271
5926.94226,0.04295
5925.01354,0.04191
5923.08483,0.04248
5921.15611,0.04462
5919.22740,0.04545
5917.29868,0.04391
5915.36997,0.04197
5913.44125,0.04244
5911.51254,0.04487
5909.58382,0.04667
5907.65511,0.04767
5905.72639,0.04783
5903.79768,0.04604
5901.86896,0.04506
5899.94024,0.04774
5898.01153,0.05006
5896.08281,0.04825
5894.15410,0.04769
5892.22538,0.05009
5890.29667,0.05113
5888.36795,0.05091
5886.43924,0.05011
5884.51052,0.04788
5882.58181,0.04733
5880.65309,0.04982
5878.72438,0.05263
5876.79566,0.05406
5874.86695,0.05344
5872.93823,0.05172
5871.00951,0.05189
5869.08080,0.05346
5867.15208,0.05372
5865.22337,0.05239
5863.29465,0.05122
5861.36594,0.05157
5859.43722,0.05276
5857.50851,0.05367
5855.57979,0.05502
5853.65108,0.05689
5851.72236,0.05737
5849.79365,0.05672
5847.86493,0.05719
5845.93622,0.05887
5844.00750,0.06065
5842.07878,0.06145
5840.15007,0.06169
5838.22135,0.06281
5836.29264,0.06404
5834.36392,0.06430
5832.43521,0.06542
5830.50649,0.06716
5828.57778,0.06658
5826.64906,0.06473
5824.72035,0.06445
5822.79163,0.06413
5820.86292,0.06193
5818.93420,0.06009
5817.00548,0.06034
5815.07677,0.06129
5813.14805,0.06216
5811.21934,0.06239
5809.29062,0.06214
5807.36191,0.06297
5805.43319,0.06359
5803.50448,0.06228
5801.57576,0.06100
5799.64705,0.06064
5797.71833,0.05963
5795.78962,0.05751
5793.86090,0.05598
5791.93219,0.05714
5790.00347,0.06012
5788.07475,0.06200
5786.14604,0.06263
5784.21732,0.06233
5782.28861,0.06020
5780.35989,0.05658
5778.43118,0.05323
5776.50246,0.05283
5774.57375,0.05587
5772.64503,0.05907
5770.71632,0.05979
5768.78760,0.05874
5766.85889,0.05783
5764.93017,0.05700
5763.00146,0.05645
5761.07274,0.05694
5759.14402,0.05795
5757.21531,0.05837
5755.28659,0.05748
5753.35788,0.05618
5751.42916,0.05640
5749.50045,0.05915
5747.57173,0.06272
5745.64302,0.06438
5743.71430,0.06481
5741.78559,0.06503
5739.85687,0.06414
5737.92816,0.06353
5735.99944,0.06510
5734.07072,0.06711
5732.14201,0.06806
5730.21329,0.07038
5728.28458,0.07477
5726.35586,0.07726
5724.42715,0.07604
5722.49843,0.07430
5720.56972,0.07507
5718.64100,0.07759
5716.71229,0.07889
5714.78357,0.07842
5712.85486,0.07907
5710.92614,0.08134
5708.99743,0.08258
5707.06871,0.08188
5705.13999,0.08033
5703.21128,0.07865
5701.28256,0.07797
5699.35385,0.07850
5697.42513,0.07864
5695.49642,0.07875
5693.56770,0.08015
5691.63899,0.08174
5689.71027,0.08219
5687.78156,0.08138
5685.85284,0.08032
5683.92413,0.08001
5681.99541,0.08011
5680.06670,0.07993
5678.13798,0.07985
5676.20926,0.08005
5674.28055,0.07926
5672.35183,0.07701
5670.42312,0.07452
5668.49440,0.07298
5666.56569,0.07258
5664.63697,0.07242
5662.70826,0.07256
5660.77954,0.07327
5658.85083,0.07394
5656.92211,0.07528
5654.99340,0.07687
5653.06468,0.07670
5651.13597,0.07531
5649.20725,0.07435
5647.27853,0.07429
5645.34982,0.07509
5643.42110,0.07674
5641.49239,0.07877
5639.56367,0.08011
5637.63496,0.08093
5635.70624,0.08263
5633.77753,0.08491
5631.84881,0.08548
5629.92010,0.08433
5627.99138,0.08476
5626.06267,0.08751
5624.13395,0.08991
5622.20523,0.09100
5620.27652,0.09212
5618.34780,0.09283
5616.41909,0.09145
5614.49037,0.09006
5612.56166,0.09098
5610.63294,0.09283
5608.70423,0.09377
5606.77551,0.09312
5604.84680,0.09208
5602.91808,0.09215
5600.98937,0.09271
5599.06065,0.09245
5597.13194,0.09114
5595.20322,0.09003
5593.27450,0.09018
5591.34579,0.09037
5589.41707,0.08977
5587.48836,0.09032
5585.55964,0.09182
5583.63093,0.09143
5581.70221,0.09031
5579.77350,0.09087
5577.84478,0.09156
5575.91607,0.09112
5573.98735,0.09147
5572.05864,0.09301
5570.12992,0.09348
5568.20121,0.09262
5566.27249,0.09198
5564.34377,0.09163
5562.41506,0.09149
5560.48634,0.09197
5558.55763,0.09304
5556.62891,0.09310
5554.70020,0.09037
5552.77148,0.08730
5550.84277,0.08820
5548.91405,0.09157
5546.98534,0.09345
5545.05662,0.09443
5543.12791,0.09542
5541.19919,0.09431
5539.27047,0.09159
5537.34176,0.09043
5535.41304,0.09103
5533.48433,0.09126
5531.55561,0.09095
5529.62690,0.09137
5527.69818,0.09281
5525.76947,0.09420
5523.84075,0.09417
5521.91204,0.09323
5519.98332,0.09356
5518.05461,0.09517
5516.12589,0.09648
5514.19718,0.09610
5512.26846,0.09434
5510.33974,0.09356
5508.41103,0.09391
5506.48231,0.09400
5504.55360,0.09385
5502.62488,0.09223
5500.69617,0.08931
5498.76745,0.08833
5496.83874,0.08984
5494.91002,0.09195
5492.98131,0.09414
5491.05259,0.09608
5489.12388,0.09733
5487.19516,0.09713
5485.26645,0.09489
5483.33773,0.09283
5481.40901,0.09274
5479.48030,0.09251
5477.55158,0.09120
5475.62287,0.09095
5473.69415,0.09175
5471.76544,0.09198
5469.83672,0.09199
5467.90801,0.09180
5465.97929,0.09092
5464.05058,0.09037
5462.12186,0.09098
5460.19315,0.09208
5458.26443,0.09274
5456.33572,0.09291
5454.40700,0.09390
5452.47828,0.09553
5450.54957,0.09590
5448.62085,0.09512
5446.69214,0.09499
5444.76342,0.09578
5442.83471,0.09617
5440.90599,0.09572
5438.97728,0.09576
5437.04856,0.09638
5435.11985,0.09681
5433.19113,0.09718
5431.26242,0.09714
5429.33370,0.09678
5427.40498,0.09742
5425.47627,0.09861
5423.54755,0.09905
5421.61884,0.09882
5419.69012,0.09792
5417.76141,0.09555
5415.83269,0.09259
5413.90398,0.09210
5411.97526,0.09455
5410.04655,0.09589
5408.11783,0.09424
5406.18912,0.09227
5404.26040,0.09263
5402.33169,0.09435
5400.40297,0.09558
5398.47425,0.09628
5396.54554,0.09623
5394.61682,0.09597
5392.68811,0.09637
5390.75939,0.09617
5388.83068,0.09524
5386.90196,0.09505
5384.97325,0.09578
5383.04453,0.09664
5381.11582,0.09703
5379.18710,0.09681
5377.25839,0.09670
5375.32967,0.09705
5373.40096,0.09718
5371.47224,0.09708
5369.54352,0.09708
5367.61481,0.09690
5365.68609,0.09604
5363.75738,0.09511
5361.82866,0.09530
5359.89995,0.09627
5357.97123,0.09686
5356.04252,0.09640
5354.11380,0.09531
5352.18509,0.09474
5350.25637,0.09552
5348.32766,0.09747
5346.39894,0.09846
5344.47022,0.09678
5342.54151,0.09444
5340.61279,0.09361
5338.68408,0.09437
5336.75536,0.09580
5334.82665,0.09669
5332.89793,0.09626
5330.96922,0.09453
5329.04050,0.09338
5327.11179,0.09413
5325.18307,0.09560
5323.25436,0.09696
5321.32564,0.09758
5319.39693,0.09673
5317.46821,0.09580
5315.53949,0.09595
5313.61078,0.09611
5311.68206,0.09562
5309.75335,0.09516
5307.82463,0.09522
5305.89592,0.09567
5303.96720,0.09617
5302.03849,0.09580
5300.10977,0.09395
5298.18106,0.09225
5296.25234,0.09226
5294.32363,0.09243
5292.39491,0.09156
5290.46620,0.09104
5288.53748,0.09062
5286.60876,0.08922
5284.68005,0.08814
5282.75133,0.08729
5280.82262,0.08518
5278.89390,0.08281
5276.96519,0.08100
5275.03647,0.07889
5273.10776,0.07682
5271.17904,0.07534
5269.25033,0.07438
5267.32161,0.07478
5265.39290,0.07645
5263.46418,0.07753
5261.53547,0.07719
5259.60675,0.07683
5257.67803,0.07768
5255.74932,0.07931
5253.82060,0.08016
5251.89189,0.07995
5249.96317,0.08073
5248.03446,0.08380
5246.10574,0.08711
5244.17703,0.08810
5242.24831,0.08783
5240.31960,0.08907
5238.39088,0.09170
5236.46217,0.09406
5234.53345,0.09568
5232.60473,0.09593
5230.67602,0.09545
5228.74730,0.09572
5226.81859,0.09628
5224.88987,0.09678
5222.96116,0.09798
5221.03244,0.09960
5219.10373,0.10045
5217.17501,0.10048
5215.24630,0.10103
5213.31758,0.10230
5211.38887,0.10294
5209.46015,0.10282
5207.53144,0.10370
5205.60272,0.10546
5203.67400,0.10587
5201.74529,0.10503
5199.81657,0.10411
5197.88786,0.10313
5195.95914,0.10245
5194.03043,0.10231
5192.10171,0.10156
5190.17300,0.10081
5188.24428,0.10204
5186.31557,0.10410
5184.38685,0.10407
5182.45814,0.10182
5180.52942,0.09961
5178.60071,0.09869
5176.67199,0.09930
5174.74327,0.10125
5172.81456,0.10286
5170.88584,0.10297
5168.95713,0.10258
5167.02841,0.10285
5165.09970,0.10336
5163.17098,0.10301
5161.24227,0.10230
5159.31355,0.10243
5157.38484,0.10340
5155.45612,0.10461
5153.52741,0.10515
5151.59869,0.10462
5149.66997,0.10443
5147.74126,0.10548
5145.81254,0.10688
5143.88383,0.10734
5141.95511,0.10655
5140.02640,0.10597
5138.09768,0.10662
5136.16897,0.10744
5134.24025,0.10733
5132.31154,0.10679
5130.38282,0.10696
5128.45411,0.10743
5126.52539,0.10747
5124.59668,0.10745
5122.66796,0.10774
5120.73924,0.10803
5118.81053,0.10751
5116.88181,0.10714
5114.95310,0.10827
5113.02438,0.10933
5111.09567,0.10918
5109.16695,0.10928
5107.23824,0.10971
5105.30952,0.10948
5103.38081,0.10931
5101.45209,0.10935
5099.52338,0.10883
5097.59466,0.10847
5095.66595,0.10879
5093.73723,0.10877
5091.80851,0.10830
5089.87980,0.10872
5087.95108,0.10994
5086.02237,0.11011
5084.09365,0.10834
5082.16494,0.10618
5080.23622,0.10555
5078.30751,0.10629
5076.37879,0.10755
5074.45008,0.10836
5072.52136,0.10790
5070.59265,0.10719
5068.66393,0.10758
5066.73522,0.10868
5064.80650,0.10940
5062.87778,0.10907
5060.94907,0.10785
5059.02035,0.10707
5057.09164,0.10726
5055.16292,0.10758
5053.23421,0.10808
5051.30549,0.10905
5049.37678,0.11009
5047.44806,0.11029
5045.51935,0.10904
5043.59063,0.10729
5041.66192,0.10640
5039.73320,0.10622
5037.80448,0.10603
5035.87577,0.10625
5033.94705,0.10735
5032.01834,0.10841
5030.08962,0.10868
5028.16091,0.10864
5026.23219,0.10859
5024.30348,0.10810
5022.37476,0.10727
5020.44605,0.10713
5018.51733,0.10767
5016.58862,0.10769
5014.65990,0.10715
5012.73119,0.10693
5010.80247,0.10675
5008.87375,0.10633
5006.94504,0.10603
5005.01632,0.10558
5003.08761,0.10533
5001.15889,0.10524
4999.23018,0.10467
4997.30146,0.10457
4995.37275,0.10518
4993.44403,0.10556
4991.51532,0.10593
4989.58660,0.10634
4987.65789,0.10575
4985.72917,0.10411
4983.80046,0.10278
4981.87174,0.10252
4979.94302,0.10319
4978.01431,0.10380
4976.08559,0.10327
4974.15688,0.10239
4972.22816,0.10238
4970.29945,0.10285
4968.37073,0.10303
4966.44202,0.10243
4964.51330,0.10141
4962.58459,0.10138
4960.65587,0.10258
4958.72716,0.10355
4956.79844,0.10357
4954.86972,0.10347
4952.94101,0.10355
4951.01229,0.10310
4949.08358,0.10238
4947.15486,0.10211
4945.22615,0.10219
4943.29743,0.10261
4941.36872,0.10320
4939.44000,0.10299
4937.51129,0.10190
4935.58257,0.10108
4933.65386,0.10065
4931.72514,0.09999
4929.79643,0.09963
4927.86771,0.09988
4925.93899,0.09971
4924.01028,0.09874
4922.08156,0.09794
4920.15285,0.09819
4918.22413,0.09907
4916.29542,0.09901
4914.36670,0.09719
4912.43799,0.09470
4910.50927,0.09310
4908.58056,0.09260
4906.65184,0.09204
4904.72313,0.09082
4902.79441,0.08974
4900.86570,0.08977
4898.93698,0.09057
4897.00826,0.09080
4895.07955,0.08997
4893.15083,0.08894
4891.22212,0.08840
4889.29340,0.08799
4887.36469,0.08731
4885.43597,0.08666
4883.50726,0.08636
4881.57854,0.08652
4879.64983,0.08718
4877.72111,0.08796
4875.79240,0.08796
4873.86368,0.08703
4871.93497,0.08640
4870.00625,0.08657
4868.07753,0.08638
4866.14882,0.08518
4864.22010,0.08372
4862.29139,0.08278
4860.36267,0.08249
4858.43396,0.08247
4856.50524,0.08230
4854.57653,0.08181
4852.64781,0.08083
4850.71910,0.07968
4848.79038,0.07891
4846.86167,0.07867
4844.93295,0.07873
4843.00423,0.07852
4841.07552,0.07843
4839.14680,0.07910
4837.21809,0.07980
4835.28937,0.07998
4833.36066,0.08026
4831.43194,0.08132
4829.50323,0.08247
4827.57451,0.08294
4825.64580,0.08312
4823.71708,0.08286
4821.78837,0.08198
4819.85965,0.08130
4817.93094,0.08164
4816.00222,0.08324
4814.07350,0.08455
4812.14479,0.08417
4810.21607,0.08364
4808.28736,0.08429
4806.35864,0.08500
4804.42993,0.08515
4802.50121,0.08521
4800.57250,0.08491
4798.64378,0.08419
4796.71507,0.08387
4794.78635,0.08400
4792.85764,0.08361
4790.92892,0.08260
4789.00021,0.08180
4787.07149,0.08147
4785.14277,0.08119
4783.21406,0.08096
4781.28534,0.08069
4779.35663,0.08035
4777.42791,0.08031
4775.49920,0.07990
4773.57048,0.07871
4771.64177,0.07742
4769.71305,0.07606
4767.78434,0.07467
4765.85562,0.07377
4763.92691,0.07356
4761.99819,0.07401
4760.06948,0.07475
4758.14076,0.07487
4756.21204,0.07400
4754.28333,0.07307
4752.35461,0.07269
4750.42590,0.07197
4748.49718,0.07042
4746.56847,0.06910
4744.63975,0.06859
4742.71104,0.06799
4740.78232,0.06704
4738.85361,0.06594
4736.92489,0.06427
4734.99618,0.06230
4733.06746,0.06073
4731.13874,0.05945
4729.21003,0.05816
4727.28131,0.05740
4725.35260,0.05757
4723.42388,0.05784
4721.49517,0.05719
4719.56645,0.05591
4717.63774,0.05468
4715.70902,0.05390
4713.78031,0.05403
4711.85159,0.05438
4709.92288,0.05389
4707.99416,0.05310
4706.06545,0.05302
4704.13673,0.05360
4702.20801,0.05399
4700.27930,0.05396
4698.35058,0.05423
4696.42187,0.05416
4694.49315,0.05307
4692.56444,0.05245
4690.63572,0.05281
4688.70701,0.05287
4686.77829,0.05269
4684.84958,0.05296
4682.92086,0.05364
4680.99215,0.05410
4679.06343,0.05361
4677.13472,0.05282
4675.20600,0.05292
4673.27728,0.05368
4671.34857,0.05386
4669.41985,0.05266
4667.49114,0.05076
4665.56242,0.05010
4663.63371,0.05136
4661.70499,0.05313
4659.77628,0.05405
4657.84756,0.05382
4655.91885,0.05312
4653.99013,0.05267
4652.06142,0.05245
4650.13270,0.05250
4648.20398,0.05277
4646.27527,0.05285
4644.34655,0.05280
4642.41784,0.05279
4640.48912,0.05264
4638.56041,0.05261
4636.63169,0.05322
4634.70298,0.05411
4632.77426,0.05431
4630.84555,0.05367
4628.91683,0.05333
4626.98812,0.05384
4625.05940,0.05381
4623.13069,0.05285
4621.20197,0.05279
4619.27325,0.05368
4617.34454,0.05409
4615.41582,0.05430
4613.48711,0.05487
4611.55839,0.05565
4609.62968,0.05645
4607.70096,0.05696
4605.77225,0.05707
4603.84353,0.05717
4601.91482,0.05787
4599.98610,0.05866
4598.05739,0.05844
4596.12867,0.05760
4594.19996,0.05685
4592.27124,0.05615
4590.34252,0.05588
4588.41381,0.05605
4586.48509,0.05588
4584.55638,0.05519
4582.62766,0.05478
4580.69895,0.05499
4578.77023,0.05494
4576.84152,0.05416
4574.91280,0.05353
4572.98409,0.05402
4571.05537,0.05520
4569.12666,0.05582
4567.19794,0.05573
4565.26923,0.05593
4563.34051,0.05654
4561.41179,0.05698
4559.48308,0.05726
4557.55436,0.05785
4555.62565,0.05914
4553.69693,0.06064
4551.76822,0.06132
4549.83950,0.06145
4547.91079,0.06175
4545.98207,0.06207
4544.05336,0.06205
4542.12464,0.06192
4540.19593,0.06226
4538.26721,0.06265
4536.33849,0.06245
4534.40978,0.06217
4532.48106,0.06199
4530.55235,0.06168
4528.62363,0.06180
4526.69492,0.06253
4524.76620,0.06305
4522.83749,0.06315
4520.90877,0.06328
4518.98006,0.06309
4517.05134,0.06224
4515.12263,0.06161
4513.19391,0.06205
4511.26520,0.06312
4509.33648,0.06368
4507.40776,0.06310
4505.47905,0.06215
4503.55033,0.06199
4501.62162,0.06210
4499.69290,0.06165
4497.76419,0.06121
4495.83547,0.06109
4493.90676,0.06063
4491.97804,0.05977
4490.04933,0.05892
4488.12061,0.05808
4486.19190,0.05743
4484.26318,0.05734
4482.33447,0.05760
4480.40575,0.05787
4478.47703,0.05800
4476.54832,0.05773
4474.61960,0.05721
4472.69089,0.05699
4470.76217,0.05705
4468.83346,0.05697
4466.90474,0.05672
4464.97603,0.05670
4463.04731,0.05732
4461.11860,0.05809
4459.18988,0.05809
4457.26117,0.05707
4455.33245,0.05574
4453.40373,0.05540
4451.47502,0.05606
4449.54630,0.05658
4447.61759,0.05677
4445.68887,0.05682
4443.76016,0.05640
4441.83144,0.05527
4439.90273,0.05414
4437.97401,0.05424
4436.04530,0.05508
4434.11658,0.05527
4432.18787,0.05503
4430.25915,0.05503
4428.33044,0.05510
4426.40172,0.05514
4424.47300,0.05514
4422.54429,0.05497
4420.61557,0.05464
4418.68686,0.05435
4416.75814,0.05449
4414.82943,0.05501
4412.90071,0.05532
4410.97200,0.05517
4409.04328,0.05495
4407.11457,0.05484
4405.18585,0.05462
4403.25714,0.05435
4401.32842,0.05431
4399.39971,0.05453
4397.47099,0.05480
4395.54227,0.05478
4393.61356,0.05450
4391.68484,0.05428
4389.75613,0.05408
4387.82741,0.05384
4385.89870,0.05401
4383.96998,0.05440
4382.04127,0.05412
4380.11255,0.05360
4378.18384,0.05397
4376.25512,0.05492
4374.32641,0.05539
4372.39769,0.05546
4370.46898,0.05536
4368.54026,0.05497
4366.61154,0.05490
4364.68283,0.05539
4362.75411,0.05595
4360.82540,0.05644
4358.89668,0.05653
4356.96797,0.05590
4355.03925,0.05509
4353.11054,0.05484
4351.18182,0.05522
4349.25311,0.05547
4347.32439,0.05537
4345.39568,0.05551
4343.46696,0.05568
4341.53824,0.05536
4339.60953,0.05511
4337.68081,0.05510
4335.75210,0.05509
4333.82338,0.05542
4331.89467,0.05599
4329.96595,0.05621
4328.03724,0.05629
4326.10852,0.05643
4324.17981,0.05613
4322.25109,0.05573
4320.32238,0.05576
4318.39366,0.05581
4316.46495,0.05561
4314.53623,0.05520
4312.60751,0.05469
4310.67880,0.05466
4308.75008,0.05519
4306.82137,0.05579
4304.89265,0.05628
4302.96394,0.05663
4301.03522,0.05656
4299.10651,0.05600
4297.17779,0.05549
4295.24908,0.05537
4293.32036,0.05532
4291.39165,0.05516
4289.46293,0.05532
4287.53422,0.05571
4285.60550,0.05593
4283.67678,0.05592
4281.74807,0.05558
4279.81935,0.05535
4277.89064,0.05556
4275.96192,0.05558
4274.03321,0.05539
4272.10449,0.05557
4270.17578,0.05601
4268.24706,0.05633
4266.31835,0.05647
4264.38963,0.05640
4262.46092,0.05605
4260.53220,0.05579
4258.60348,0.05587
4256.67477,0.05602
4254.74605,0.05623
4252.81734,0.05634
4250.88862,0.05611
4248.95991,0.05590
4247.03119,0.05598
4245.10248,0.05617
4243.17376,0.05631
4241.24505,0.05621
4239.31633,0.05601
4237.38762,0.05613
4235.45890,0.05660
4233.53019,0.05710
4231.60147,0.05726
4229.67275,0.05690
4227.74404,0.05639
4225.81532,0.05618
4223.88661,0.05606
4221.95789,0.05579
4220.02918,0.05578
4218.10046,0.05626
4216.17175,0.05670
4214.24303,0.05659
4212.31432,0.05599
4210.38560,0.05538
4208.45689,0.05520
4206.52817,0.05524
4204.59946,0.05521
4202.67074,0.05525
4200.74202,0.05531
4198.81331,0.05522
4196.88459,0.05524
4194.95588,0.05530
4193.02716,0.05487
4191.09845,0.05459
4189.16973,0.05499
4187.24102,0.05535
4185.31230,0.05560
4183.38359,0.05627
4181.45487,0.05681
4179.52616,0.05678
4177.59744,0.05665
4175.66873,0.05648
4173.74001,0.05623
4171.81129,0.05621
4169.88258,0.05637
4167.95386,0.05644
4166.02515,0.05625
4164.09643,0.05607
4162.16772,0.05635
4160.23900,0.05671
4158.31029,0.05658
4156.38157,0.05626
4154.45286,0.05635
4152.52414,0.05681
4150.59543,0.05693
4148.66671,0.05644
4146.73799,0.05609
4144.80928,0.05621
4142.88056,0.05623
4140.95185,0.05606
4139.02313,0.05620
4137.09442,0.05633
4135.16570,0.05608
4133.23699,0.05582
4131.30827,0.05572
4129.37956,0.05539
4127.45084,0.05500
4125.52213,0.05523
4123.59341,0.05586
4121.66470,0.05619
4119.73598,0.05633
4117.80726,0.05672
4115.87855,0.05712
4113.94983,0.05716
4112.02112,0.05689
4110.09240,0.05672
4108.16369,0.05692
4106.23497,0.05710
4104.30626,0.05718
4102.37754,0.05733
4100.44883,0.05724
4098.52011,0.05704
4096.59140,0.05714
4094.66268,0.05724
4092.73397,0.05736
4090.80525,0.05771
4088.87653,0.05784
4086.94782,0.05743
4085.01910,0.05693
4083.09039,0.05687
4081.16167,0.05715
4079.23296,0.05741
4077.30424,0.05761
4075.37553,0.05760
4073.44681,0.05717
4071.51810,0.05666
4069.58938,0.05641
4067.66067,0.05631
4065.73195,0.05632
4063.80323,0.05635
4061.87452,0.05630
4059.94580,0.05661
4058.01709,0.05728
4056.08837,0.05738
4054.15966,0.05697
4052.23094,0.05703
4050.30223,0.05730
4048.37351,0.05719
4046.44480,0.05712
4044.51608,0.05733
4042.58737,0.05744
4040.65865,0.05712
4038.72994,0.05683
4036.80122,0.05717
4034.87250,0.05768
4032.94379,0.05767
4031.01507,0.05749
4029.08636,0.05742
4027.15764,0.05718
4025.22893,0.05697
4023.30021,0.05706
4021.37150,0.05707
4019.44278,0.05691
4017.51407,0.05685
4015.58535,0.05701
4013.65664,0.05710
4011.72792,0.05696
4009.79921,0.05712
4007.87049,0.05759
4005.94177,0.05759
4004.01306,0.05726
4002.08434,0.05724
4000.15563,0.05736
3998.22691,0.05721
3996.29820,0.05683
3994.36948,0.05664
3992.44077,0.05670
3990.51205,0.05669
3988.58334,0.05678
3986.65462,0.05725
3984.72591,0.05795
3982.79719,0.05836
3980.86848,0.05808
3978.93976,0.05758
3977.01104,0.05758
3975.08233,0.05783
3973.15361,0.05776
3971.22490,0.05744
3969.29618,0.05730
3967.36747,0.05742
3965.43875,0.05760
3963.51004,0.05761
3961.58132,0.05740
3959.65261,0.05715
3957.72389,0.05713
3955.79518,0.05737
3953.86646,0.05741
3951.93774,0.05726
3950.00903,0.05736
3948.08031,0.05776
3946.15160,0.05815
3944.22288,0.05833
3942.29417,0.05825
3940.36545,0.05790
3938.43674,0.05746
3936.50802,0.05696
3934.57931,0.05640
3932.65059,0.05642
3930.72188,0.05743
3928.79316,0.05800
3926.86445,0.05731
3924.93573,0.05637
3923.00701,0.05622
3921.07830,0.05691
3919.14958,0.05766
3917.22087,0.05780
3915.29215,0.05755
3913.36344,0.05722
3911.43472,0.05711
3909.50601,0.05755
3907.57729,0.05763
3905.64858,0.05659
3903.71986,0.05571
3901.79115,0.05624
3899.86243,0.05715
3897.93372,0.05782
3896.00500,0.05833
3894.07628,0.05862
3892.14757,0.05867
3890.21885,0.05867
3888.29014,0.05864
3886.36142,0.05836
3884.43271,0.05785
3882.50399,0.05737
3880.57528,0.05725
3878.64656,0.05751
3876.71785,0.05761
3874.78913,0.05759
3872.86042,0.05766
3870.93170,0.05769
3869.00298,0.05788
3867.07427,0.05829
3865.14555,0.05891
3863.21684,0.05952
3861.28812,0.05948
3859.35941,0.05892
3857.43069,0.05835
3855.50198,0.05814
3853.57326,0.05846
3851.64455,0.05852
3849.71583,0.05841
3847.78712,0.05861
3845.85840,0.05894
3843.92969,0.05913
3842.00097,0.05905
3840.07225,0.05880
3838.14354,0.05892
3836.21482,0.05956
3834.28611,0.05998
3832.35739,0.05967
3830.42868,0.05908
3828.49996,0.05870
3826.57125,0.05825
3824.64253,0.05777
3822.71382,0.05790
3820.78510,0.05855
3818.85639,0.05874
3816.92767,0.05853
3814.99896,0.05867
3813.07024,0.05895
3811.14152,0.05885
3809.21281,0.05854
3807.28409,0.05850
3805.35538,0.05881
3803.42666,0.05880
3801.49795,0.05848
3799.56923,0.05870
3797.64052,0.05922
3795.71180,0.05949
3793.78309,0.05954
3791.85437,0.05941
3789.92566,0.05916
3787.99694,0.05905
3786.06823,0.05926
3784.13951,0.05983
3782.21079,0.06020
3780.28208,0.05997
3778.35336,0.05985
3776.42465,0.06021
3774.49593,0.06045
3772.56722,0.06045
3770.63850,0.06054
3768.70979,0.06086
3766.78107,0.06091
3764.85236,0.06049
3762.92364,0.05987
3760.99493,0.05933
3759.06621,0.05914
3757.13749,0.05900
3755.20878,0.05839
3753.28006,0.05772
3751.35135,0.05772
3749.42263,0.05843
3747.49392,0.05895
3745.56520,0.05922
3743.63649,0.05991
3741.70777,0.06056
3739.77906,0.06040
3737.85034,0.05973
3735.92163,0.05939
3733.99291,0.05990
3732.06420,0.06020
3730.13548,0.05976
3728.20676,0.05914
3726.27805,0.05883
3724.34933,0.05877
3722.42062,0.05861
3720.49190,0.05849
3718.56319,0.05847
3716.63447,0.05828
3714.70576,0.05784
3712.77704,0.05723
3710.84833,0.05739
3708.91961,0.05852
3706.99090,0.05905
3705.06218,0.05879
3703.13347,0.05850
3701.20475,0.05854
3699.27603,0.05857
3697.34732,0.05859
3695.41860,0.05881
3693.48989,0.05909
3691.56117,0.05910
3689.63246,0.05873
3687.70374,0.05842
3685.77503,0.05851
3683.84631,0.05875
3681.91760,0.05891
3679.98888,0.05901
3678.06017,0.05925
3676.13145,0.05963
3674.20273,0.05969
3672.27402,0.05923
3670.34530,0.05844
3668.41659,0.05808
3666.48787,0.05823
3664.55916,0.05829
3662.63044,0.05831
3660.70173,0.05837
3658.77301,0.05822
3656.84430,0.05782
3654.91558,0.05777
3652.98687,0.05799
3651.05815,0.05764
3649.12944,0.05683
3647.20072,0.05698
3645.27200,0.05760
3643.34329,0.05778
3641.41457,0.05767
3639.48586,0.05763
3637.55714,0.05752
3635.62843,0.05727
3633.69971,0.05703
3631.77100,0.05683
3629.84228,0.05699
3627.91357,0.05802
3625.98485,0.05882
3624.05614,0.05873
3622.12742,0.05819
3620.19871,0.05772
3618.26999,0.05779
3616.34127,0.05803
3614.41256,0.05798
3612.48384,0.05808
3610.55513,0.05828
3608.62641,0.05816
3606.69770,0.05820
3604.76898,0.05840
3602.84027,0.05827
3600.91155,0.05781
3598.98284,0.05750
3597.05412,0.05780
3595.12541,0.05832
3593.19669,0.05825
3591.26798,0.05763
3589.33926,0.05706
3587.41054,0.05678
3585.48183,0.05678
3583.55311,0.05695
3581.62440,0.05709
3579.69568,0.05716
3577.76697,0.05716
3575.83825,0.05724
3573.90954,0.05771
3571.98082,0.05837
3570.05211,0.05868
3568.12339,0.05860
3566.19468,0.05858
3564.26596,0.05871
3562.33724,0.05863
3560.40853,0.05846
3558.47981,0.05837
3556.55110,0.05815
3554.62238,0.05792
3552.69367,0.05803
3550.76495,0.05803
3548.83624,0.05771
3546.90752,0.05784
3544.97881,0.05862
3543.05009,0.05900
3541.12138,0.05865
3539.19266,0.05817
3537.26395,0.05788
3535.33523,0.05779
3533.40651,0.05791
3531.47780,0.05808
3529.54908,0.05811
3527.62037,0.05818
3525.69165,0.05844
3523.76294,0.05861
3521.83422,0.05853
3519.90551,0.05835
3517.97679,0.05820
3516.04808,0.05805
3514.11936,0.05783
3512.19065,0.05781
3510.26193,0.05807
3508.33322,0.05819
3506.40450,0.05809
3504.47578,0.05794
3502.54707,0.05767
3500.61835,0.05727
3498.68964,0.05710
3496.76092,0.05727
3494.83221,0.05744
3492.90349,0.05751
3490.97478,0.05768
3489.04606,0.05781
3487.11735,0.05785
3485.18863,0.05790
3483.25992,0.05789
3481.33120,0.05795
3479.40248,0.05802
3477.47377,0.05781
3475.54505,0.05770
3473.61634,0.05811
3471.68762,0.05876
3469.75891,0.05901
3467.83019,0.05885
3465.90148,0.05897
3463.97276,0.05956
3462.04405,0.05982
3460.11533,0.05917
3458.18662,0.05831
3456.25790,0.05803
3454.32919,0.05844
3452.40047,0.05901
3450.47175,0.05913
3448.54304,0.05902
3446.61432,0.05895
3444.68561,0.05881
3442.75689,0.05890
3440.82818,0.05920
3438.89946,0.05927
3436.97075,0.05920
3435.04203,0.05935
3433.11332,0.05951
3431.18460,0.05920
3429.25589,0.05867
3427.32717,0.05856
3425.39846,0.05875
3423.46974,0.05900
3421.54102,0.05936
3419.61231,0.05959
3417.68359,0.05948
3415.75488,0.05921
3413.82616,0.05907
3411.89745,0.05920
3409.96873,0.05919
3408.04002,0.05887
3406.11130,0.05872
3404.18259,0.05881
3402.25387,0.05889
3400.32516,0.05894
3398.39644,0.05882
3396.46773,0.05855
3394.53901,0.05839
3392.61029,0.05838
3390.68158,0.05847
3388.75286,0.05868
3386.82415,0.05879
3384.89543,0.05876
3382.96672,0.05878
3381.03800,0.05862
3379.10929,0.05839
3377.18057,0.05847
3375.25186,0.05840
3373.32314,0.05805
3371.39443,0.05796
3369.46571,0.05818
3367.53699,0.05821
3365.60828,0.05805
3363.67956,0.05811
3361.75085,0.05826
3359.82213,0.05817
3357.89342,0.05807
3355.96470,0.05826
3354.03599,0.05855
3352.10727,0.05854
3350.17856,0.05843
3348.24984,0.05848
3346.32113,0.05846
3344.39241,0.05850
3342.46370,0.05873
3340.53498,0.05878
3338.60626,0.05862
3336.67755,0.05842
3334.74883,0.05824
3332.82012,0.05818
3330.89140,0.05815
3328.96269,0.05803
3327.03397,0.05784
3325.10526,0.05774
3323.17654,0.05772
3321.24783,0.05754
3319.31911,0.05741
3317.39040,0.05753
3315.46168,0.05760
3313.53297,0.05763
3311.60425,0.05785
3309.67553,0.05804
3307.74682,0.05797
3305.81810,0.05790
3303.88939,0.05785
3301.96067,0.05764
3300.03196,0.05755
3298.10324,0.05782
3296.17453,0.05814
3294.24581,0.05828
3292.31710,0.05830
3290.38838,0.05829
3288.45967,0.05814
3286.53095,0.05791
3284.60223,0.05779
3282.67352,0.05780
3280.74480,0.05787
3278.81609,0.05785
3276.88737,0.05770
3274.95866,0.05783
3273.02994,0.05817
3271.10123,0.05831
3269.17251,0.05835
3267.24380,0.05830
3265.31508,0.05813
3263.38637,0.05811
3261.45765,0.05832
3259.52894,0.05862
3257.60022,0.05856
3255.67150,0.05825
3253.74279,0.05822
3251.81407,0.05839
3249.88536,0.05860
3247.95664,0.05881
3246.02793,0.05879
3244.09921,0.05868
3242.17050,0.05864
3240.24178,0.05856
3238.31307,0.05844
3236.38435,0.05837
3234.45564,0.05836
3232.52692,0.05828
3230.59821,0.05791
3228.66949,0.05752
3226.74077,0.05765
3224.81206,0.05810
3222.88334,0.05824
3220.95463,0.05803
3219.02591,0.05777
3217.09720,0.05767
3215.16848,0.05787
3213.23977,0.05823
3211.31105,0.05859
3209.38234,0.05912
3207.45362,0.05952
3205.52491,0.05924
3203.59619,0.05859
3201.66748,0.05822
3199.73876,0.05799
3197.81004,0.05766
3195.88133,0.05763
3193.95261,0.05808
3192.02390,0.05845
3190.09518,0.05845
3188.16647,0.05839
3186.23775,0.05846
3184.30904,0.05870
3182.38032,0.05892
3180.45161,0.05885
3178.52289,0.05872
3176.59418,0.05880
3174.66546,0.05897
3172.73674,0.05911
3170.80803,0.05918
3168.87931,0.05921
3166.95060,0.05909
3165.02188,0.05871
3163.09317,0.05836
3161.16445,0.05835
3159.23574,0.05844
3157.30702,0.05836
3155.37831,0.05811
3153.44959,0.05809
3151.52088,0.05853
3149.59216,0.05890
3147.66345,0.05867
3145.73473,0.05826
3143.80601,0.05818
3141.87730,0.05827
3139.94858,0.05835
3138.01987,0.05857
3136.09115,0.05887
3134.16244,0.05895
3132.23372,0.05892
3130.30501,0.05905
3128.37629,0.05916
3126.44758,0.05893
3124.51886,0.05849
3122.59015,0.05825
3120.66143,0.05836
3118.73272,0.05869
3116.80400,0.05909
3114.87528,0.05941
3112.94657,0.05935
3111.01785,0.05897
3109.08914,0.05880
3107.16042,0.05886
3105.23171,0.05880
3103.30299,0.05863
3101.37428,0.05841
3099.44556,0.05833
3097.51685,0.05853
3095.58813,0.05863
3093.65942,0.05851
3091.73070,0.05844
3089.80198,0.05849
3087.87327,0.05856
3085.94455,0.05856
3084.01584,0.05855
3082.08712,0.05870
3080.15841,0.05880
3078.22969,0.05854
3076.30098,0.05817
3074.37226,0.05819
3072.44355,0.05846
3070.51483,0.05860
3068.58612,0.05882
3066.65740,0.05904
3064.72869,0.05885
3062.79997,0.05849
3060.87125,0.05856
3058.94254,0.05886
3057.01382,0.05893
3055.08511,0.05890
3053.15639,0.05888
3051.22768,0.05880
3049.29896,0.05888
3047.37025,0.05911
3045.44153,0.05913
3043.51282,0.05901
3041.58410,0.05902
3039.65539,0.05905
3037.72667,0.05902
3035.79796,0.05898
3033.86924,0.05896
3031.94052,0.05910
3030.01181,0.05937
3028.08309,0.05947
3026.15438,0.05939
3024.22566,0.05933
3022.29695,0.05930
3020.36823,0.05926
3018.43952,0.05907
3016.51080,0.05867
3014.58209,0.05839
3012.65337,0.05838
3010.72466,0.05838
3008.79594,0.05833
3006.86723,0.05835
3004.93851,0.05835
3003.00979,0.05822
3001.08108,0.05799
2999.15236,0.05769
2997.22365,0.05751
2995.29493,0.05757
2993.36622,0.05777
2991.43750,0.05793
2989.50879,0.05785
2987.58007,0.05770
2985.65136,0.05761
2983.72264,0.05741
2981.79393,0.05725
2979.86521,0.05732
2977.93649,0.05749
2976.00778,0.05773
2974.07906,0.05807
2972.15035,0.05849
2970.22163,0.05899
2968.29292,0.05954
2966.36420,0.06001
2964.43549,0.06035
2962.50677,0.06059
2960.57806,0.06067
2958.64934,0.06074
2956.72063,0.06099
2954.79191,0.06114
2952.86320,0.06099
2950.93448,0.06074
2949.00576,0.06056
2947.07705,0.06044
2945.14833,0.06038
2943.21962,0.06040
2941.29090,0.06040
2939.36219,0.06038
2937.43347,0.06039
2935.50476,0.06043
2933.57604,0.06048
2931.64733,0.06048
2929.71861,0.06041
2927.78990,0.06026
2925.86118,0.06012
2923.93247,0.06010
2922.00375,0.06008
2920.07503,0.06007
2918.14632,0.06017
2916.21760,0.06016
2914.28889,0.05988
2912.36017,0.05970
2910.43146,0.05992
2908.50274,0.06038
2906.57403,0.06073
2904.64531,0.06080
2902.71660,0.06067
2900.78788,0.06045
2898.85917,0.06030
2896.93045,0.06038
2895.00173,0.06053
2893.07302,0.06059
2891.14430,0.06063
2889.21559,0.06056
2887.28687,0.06028
2885.35816,0.06007
2883.42944,0.06017
2881.50073,0.06024
2879.57201,0.06004
2877.64330,0.05999
2875.71458,0.06032
2873.78587,0.06070
2871.85715,0.06080
2869.92844,0.06070
2867.99972,0.06052
2866.07100,0.06028
2864.14229,0.06027
2862.21357,0.06059
2860.28486,0.06097
2858.35614,0.06111
2856.42743,0.06095
2854.49871,0.06063
2852.57000,0.06039
2850.64128,0.06037
2848.71257,0.06041
2846.78385,0.06038
2844.85514,0.06038
2842.92642,0.06057
2840.99771,0.06081
2839.06899,0.06090
2837.14027,0.06080
2835.21156,0.06062
2833.28284,0.06058
2831.35413,0.06068
2829.42541,0.06074
2827.49670,0.06064
2825.56798,0.06054
2823.63927,0.06069
2821.71055,0.06091
2819.78184,0.06098
2817.85312,0.06088
2815.92441,0.06065
2813.99569,0.06044
2812.06698,0.06039
2810.13826,0.06058
2808.20954,0.06085
2806.28083,0.06092
2804.35211,0.06079
2802.42340,0.06060
2800.49468,0.06048
2798.56597,0.06056
2796.63725,0.06069
2794.70854,0.06079
2792.77982,0.06089
2790.85111,0.06088
2788.92239,0.06075
2786.99368,0.06064
2785.06496,0.06057
2783.13624,0.06048
2781.20753,0.06045
2779.27881,0.06052
2777.35010,0.06066
2775.42138,0.06079
2773.49267,0.06076
2771.56395,0.06070
2769.63524,0.06084
2767.70652,0.06101
2765.77781,0.06103
2763.84909,0.06101
2761.92038,0.06102
2759.99166,0.06103
2758.06295,0.06102
2756.13423,0.06102
2754.20551,0.06103
2752.27680,0.06092
2750.34808,0.06063
2748.41937,0.06040
2746.49065,0.06040
2744.56194,0.06047
2742.63322,0.06049
2740.70451,0.06045
2738.77579,0.06026
2736.84708,0.06009
2734.91836,0.06021
2732.98965,0.06042
2731.06093,0.06054
2729.13222,0.06071
2727.20350,0.06087
2725.27478,0.06096
2723.34607,0.06110
2721.41735,0.06117
2719.48864,0.06116
2717.55992,0.06121
2715.63121,0.06114
2713.70249,0.06086
2711.77378,0.06051
2709.84506,0.06033
2707.91635,0.06048
2705.98763,0.06074
2704.05892,0.06086
2702.13020,0.06087
2700.20149,0.06068
2698.27277,0.06035
2696.34405,0.06028
2694.41534,0.06046
2692.48662,0.06053
2690.55791,0.06046
2688.62919,0.06042
2686.70048,0.06048
2684.77176,0.06052
2682.84305,0.06046
2680.91433,0.06043
2678.98562,0.06060
2677.05690,0.06076
2675.12819,0.06072
2673.19947,0.06064
2671.27075,0.06064
2669.34204,0.06052
2667.41332,0.06040
2665.48461,0.06056
2663.55589,0.06085
2661.62718,0.06087
2659.69846,0.06068
2657.76975,0.06062
2655.84103,0.06070
2653.91232,0.06076
2651.98360,0.06078
2650.05489,0.06085
2648.12617,0.06099
2646.19746,0.06098
2644.26874,0.06071
2642.34002,0.06055
2640.41131,0.06067
2638.48259,0.06086
2636.55388,0.06102
2634.62516,0.06114
2632.69645,0.06109
2630.76773,0.06087
2628.83902,0.06062
2626.91030,0.06050
2624.98159,0.06055
2623.05287,0.06076
2621.12416,0.06085
2619.19544,0.06066
2617.26673,0.06048
2615.33801,0.06056
2613.40929,0.06079
2611.48058,0.06096
2609.55186,0.06098
2607.62315,0.06085
2605.69443,0.06055
2603.76572,0.06024
2601.83700,0.06024
2599.90829,0.06043
2597.97957,0.06033
2596.05086,0.05992
2594.12214,0.05969
2592.19343,0.05994
2590.26471,0.06036
2588.33599,0.06060
2586.40728,0.06058
2584.47856,0.06041
2582.54985,0.06028
2580.62113,0.06029
2578.69242,0.06039
2576.76370,0.06056
2574.83499,0.06067
2572.90627,0.06069
2570.97756,0.06075
2569.04884,0.06082
2567.12013,0.06078
2565.19141,0.06063
2563.26270,0.06049
2561.33398,0.06050
2559.40526,0.06063
2557.47655,0.06069
2555.54783,0.06060
2553.61912,0.06050
2551.69040,0.06046
2549.76169,0.06043
2547.83297,0.06050
2545.90426,0.06065
2543.97554,0.06066
2542.04683,0.06060
2540.11811,0.06063
2538.18940,0.06064
2536.26068,0.06058
2534.33197,0.06060
2532.40325,0.06074
2530.47453,0.06096
2528.54582,0.06108
2526.61710,0.06097
2524.68839,0.06079
2522.75967,0.06072
2520.83096,0.06066
2518.90224,0.06043
2516.97353,0.06021
2515.04481,0.06021
2513.11610,0.06036
2511.18738,0.06054
2509.25867,0.06060
2507.32995,0.06055
2505.40124,0.06057
2503.47252,0.06076
2501.54380,0.06104
2499.61509,0.06114
2497.68637,0.06095
2495.75766,0.06069
2493.82894,0.06051
2491.90023,0.06041
2489.97151,0.06038
2488.04280,0.06050
2486.11408,0.06079
2484.18537,0.06105
2482.25665,0.06106
2480.32794,0.06088
2478.39922,0.06075
2476.47050,0.06083
2474.54179,0.06099
2472.61307,0.06108
2470.68436,0.06118
2468.75564,0.06125
2466.82693,0.06121
2464.89821,0.06113
2462.96950,0.06112
2461.04078,0.06112
2459.11207,0.06105
2457.18335,0.06088
2455.25464,0.06081
2453.32592,0.06098
2451.39721,0.06108
2449.46849,0.06088
2447.53977,0.06068
2445.61106,0.06074
2443.68234,0.06086
2441.75363,0.06084
2439.82491,0.06080
2437.89620,0.06077
2435.96748,0.06068
2434.03877,0.06068
2432.11005,0.06085
2430.18134,0.06092
2428.25262,0.06081
2426.32391,0.06076
2424.39519,0.06086
2422.46648,0.06099
2420.53776,0.06100
2418.60904,0.06092
2416.68033,0.06090
2414.75161,0.06100
2412.82290,0.06101
2410.89418,0.06090
2408.96547,0.06091
2407.03675,0.06096
2405.10804,0.06073
2403.17932,0.06044
2401.25061,0.06060
2399.32189,0.06104
2397.39318,0.06120
2395.46446,0.06101
2393.53574,0.06089
2391.60703,0.06101
2389.67831,0.06107
2387.74960,0.06100
2385.82088,0.06094
2383.89217,0.06091
2381.96345,0.06078
2380.03474,0.06073
2378.10602,0.06102
2376.17731,0.06148
2374.24859,0.06166
2372.31988,0.06154
2370.39116,0.06149
2368.46245,0.06149
2366.53373,0.06148
2364.60501,0.06162
2362.67630,0.06172
2360.74758,0.06165
2358.81887,0.06148
2356.89015,0.06109
2354.96144,0.06067
2353.03272,0.06066
2351.10401,0.06094
2349.17529,0.06110
2347.24658,0.06111
2345.31786,0.06105
2343.38915,0.06092
2341.46043,0.06083
2339.53172,0.06094
2337.60300,0.06096
2335.67428,0.06068
2333.74557,0.06048
2331.81685,0.06068
2329.88814,0.06088
2327.95942,0.06082
2326.03071,0.06075
2324.10199,0.06090
2322.17328,0.06119
2320.24456,0.06146
2318.31585,0.06172
2316.38713,0.06186
2314.45842,0.06173
2312.52970,0.06152
2310.60099,0.06138
2308.67227,0.06126
2306.74355,0.06106
2304.81484,0.06077
2302.88612,0.06071
2300.95741,0.06097
2299.02869,0.06110
2297.09998,0.06086
2295.17126,0.06059
2293.24255,0.06053
2291.31383,0.06049
2289.38512,0.06042
2287.45640,0.06043
2285.52769,0.06053
2283.59897,0.06071
2281.67025,0.06098
2279.74154,0.06117
2277.81282,0.06113
2275.88411,0.06101
2273.95539,0.06086
2272.02668,0.06065
2270.09796,0.06055
2268.16925,0.06055
2266.24053,0.06052
2264.31182,0.06050
2262.38310,0.06048
2260.45439,0.06044
2258.52567,0.06041
2256.59696,0.06050
2254.66824,0.06072
2252.73952,0.06088
2250.81081,0.06082
2248.88209,0.06072
2246.95338,0.06073
2245.02466,0.06066
2243.09595,0.06054
2241.16723,0.06061
2239.23852,0.06080
2237.30980,0.06087
2235.38109,0.06076
2233.45237,0.06054
2231.52366,0.06037
2229.59494,0.06043
2227.66623,0.06065
2225.73751,0.06072
2223.80879,0.06072
2221.88008,0.06091
2219.95136,0.06109
2218.02265,0.06102
2216.09393,0.06091
2214.16522,0.06091
2212.23650,0.06090
2210.30779,0.06075
2208.37907,0.06064
2206.45036,0.06078
2204.52164,0.06094
2202.59293,0.06088
2200.66421,0.06076
2198.73549,0.06073
2196.80678,0.06070
2194.87806,0.06077
2192.94935,0.06093
2191.02063,0.06096
2189.09192,0.06084
2187.16320,0.06067
2185.23449,0.06052
2183.30577,0.06044
2181.37706,0.06044
2179.44834,0.06049
2177.51963,0.06062
2175.59091,0.06077
2173.66220,0.06086
2171.73348,0.06081
2169.80476,0.06061
2167.87605,0.06041
2165.94733,0.06038
2164.01862,0.06041
2162.08990,0.06039
2160.16119,0.06048
2158.23247,0.06066
2156.30376,0.06079
2154.37504,0.06084
2152.44633,0.06081
2150.51761,0.06065
2148.58890,0.06037
2146.66018,0.06019
2144.73147,0.06024
2142.80275,0.06040
2140.87403,0.06056
2138.94532,0.06066
2137.01660,0.06056
2135.08789,0.06037
2133.15917,0.06034
2131.23046,0.06042
2129.30174,0.06048
2127.37303,0.06047
2125.44431,0.06041
2123.51560,0.06035
2121.58688,0.06033
2119.65817,0.06038
2117.72945,0.06039
2115.80074,0.06024
2113.87202,0.06010
2111.94330,0.06011
2110.01459,0.06011
2108.08587,0.06014
2106.15716,0.06036
2104.22844,0.06063
2102.29973,0.06074
2100.37101,0.06063
2098.44230,0.06050
2096.51358,0.06052
2094.58487,0.06051
2092.65615,0.06031
2090.72744,0.06008
2088.79872,0.06005
2086.87000,0.06011
2084.94129,0.06004
2083.01257,0.05998
2081.08386,0.06009
2079.15514,0.06023
2077.22643,0.06024
2075.29771,0.06011
2073.36900,0.06000
2071.44028,0.06013
2069.51157,0.06037
2067.58285,0.06042
2065.65414,0.06028
2063.72542,0.06014
2061.79671,0.06007
2059.86799,0.06000
2057.93927,0.05998
2056.01056,0.06003
2054.08184,0.06009
2052.15313,0.06013
2050.22441,0.06017
2048.29570,0.06011
2046.36698,0.05992
2044.43827,0.05989
2042.50955,0.06009
2040.58084,0.06021
2038.65212,0.06015
2036.72341,0.06001
2034.79469,0.05982
2032.86598,0.05969
2030.93726,0.05965
2029.00854,0.05973
2027.07983,0.05985
2025.15111,0.05987
2023.22240,0.05980
2021.29368,0.05971
2019.36497,0.05969
2017.43625,0.05979
2015.50754,0.05987
2013.57882,0.05981
2011.65011,0.05977
2009.72139,0.05983
2007.79268,0.05983
2005.86396,0.05981
2003.93524,0.05983
2002.00653,0.05967
2000.07781,0.05943
1998.14910,0.05946
1996.22038,0.05973
1994.29167,0.05991
1992.36295,0.05991
1990.43424,0.05991
1988.50552,0.06007
1986.57681,0.06016
1984.64809,0.05997
1982.71938,0.05961
1980.79066,0.05939
1978.86195,0.05940
1976.93323,0.05948
1975.00451,0.05944
1973.07580,0.05934
1971.14708,0.05938
1969.21837,0.05958
1967.28965,0.05966
1965.36094,0.05951
1963.43222,0.05936
1961.50351,0.05933
1959.57479,0.05927
1957.64608,0.05908
1955.71736,0.05892
1953.78865,0.05899
1951.85993,0.05918
1949.93122,0.05920
1948.00250,0.05898
1946.07378,0.05881
1944.14507,0.05881
1942.21635,0.05882
1940.28764,0.05878
1938.35892,0.05872
1936.43021,0.05870
1934.50149,0.05885
1932.57278,0.05897
1930.64406,0.05876
1928.71535,0.05843
1926.78663,0.05831
1924.85792,0.05828
1922.92920,0.05833
1921.00049,0.05855
1919.07177,0.05868
1917.14305,0.05857
1915.21434,0.05835
1913.28562,0.05816
1911.35691,0.05807
1909.42819,0.05813
1907.49948,0.05821
1905.57076,0.05820
1903.64205,0.05804
1901.71333,0.05782
1899.78462,0.05772
1897.85590,0.05777
1895.92719,0.05782
1893.99847,0.05800
1892.06975,0.05824
1890.14104,0.05826
1888.21232,0.05808
1886.28361,0.05789
1884.35489,0.05772
1882.42618,0.05768
1880.49746,0.05760
1878.56875,0.05739
1876.64003,0.05733
1874.71132,0.05739
1872.78260,0.05725
1870.85389,0.05705
1868.92517,0.05713
1866.99646,0.05723
1865.06774,0.05706
1863.13902,0.05673
1861.21031,0.05637
1859.28159,0.05612
1857.35288,0.05609
1855.42416,0.05615
1853.49545,0.05610
1851.56673,0.05590
1849.63802,0.05572
1847.70930,0.05565
1845.78059,0.05550
1843.85187,0.05515
1841.92316,0.05496
1839.99444,0.05501
1838.06573,0.05498
1836.13701,0.05462
1834.20829,0.05409
1832.27958,0.05372
1830.35086,0.05343
1828.42215,0.05317
1826.49343,0.05308
1824.56472,0.05292
1822.63600,0.05258
1820.70729,0.05217
1818.77857,0.05170
1816.84986,0.05115
1814.92114,0.05057
1812.99243,0.05001
1811.06371,0.04948
1809.13499,0.04890
1807.20628,0.04817
1805.27756,0.04732
1803.34885,0.04638
1801.42013,0.04524
1799.49142,0.04402
1797.56270,0.04313
1795.63399,0.04258
1793.70527,0.04211
1791.77656,0.04195
1789.84784,0.04266
1787.91913,0.04423
1785.99041,0.04681
1784.06170,0.05054
1782.13298,0.05519
1780.20426,0.06060
1778.27555,0.06610
1776.34683,0.07123
1774.41812,0.07642
1772.48940,0.08188
1770.56069,0.08602
1768.63197,0.08781
1766.70326,0.08822
1764.77454,0.08787
1762.84583,0.08654
1760.91711,0.08408
1758.98840,0.08150
1757.05968,0.07905
1755.13097,0.07681
1753.20225,0.07523
1751.27353,0.07393
1749.34482,0.07250
1747.41610,0.07116
1745.48739,0.07011
1743.55867,0.06941
1741.62996,0.06897
1739.70124,0.06841
1737.77253,0.06782
1735.84381,0.06758
1733.91510,0.06753
1731.98638,0.06733
1730.05767,0.06691
1728.12895,0.06643
1726.20024,0.06605
1724.27152,0.06577
1722.34280,0.06552
1720.41409,0.06521
1718.48537,0.06470
1716.55666,0.06419
1714.62794,0.06406
1712.69923,0.06402
1710.77051,0.06398
1708.84180,0.06401
1706.91308,0.06380
1704.98437,0.06331
1703.05565,0.06314
1701.12694,0.06311
1699.19822,0.06264
1697.26950,0.06206
1695.34079,0.06164
1693.41207,0.06158
1691.48336,0.06170
1689.55464,0.06173
1687.62593,0.06186
1685.69721,0.06214
1683.76850,0.06176
1681.83978,0.06096
1679.91107,0.06062
1677.98235,0.06053
1676.05364,0.06052
1674.12492,0.06055
1672.19621,0.06045
1670.26749,0.06011
1668.33877,0.05979
1666.41006,0.05988
1664.48134,0.06010
1662.55263,0.06013
1660.62391,0.06004
1658.69520,0.05998
1656.76648,0.05999
1654.83777,0.06005
1652.90905,0.05969
1650.98034,0.05918
1649.05162,0.05919
1647.12291,0.05938
1645.19419,0.05938
1643.26548,0.05927
1641.33676,0.05929
1639.40804,0.05951
1637.47933,0.05969
1635.55061,0.05945
1633.62190,0.05901
1631.69318,0.05871
1629.76447,0.05865
1627.83575,0.05882
1625.90704,0.05882
1623.97832,0.05852
1622.04961,0.05831
1620.12089,0.05833
1618.19218,0.05824
1616.26346,0.05780
1614.33474,0.05747
1612.40603,0.05746
1610.47731,0.05757
1608.54860,0.05770
1606.61988,0.05785
1604.69117,0.05811
1602.76245,0.05830
1600.83374,0.05833
1598.90502,0.05834
1596.97631,0.05833
1595.04759,0.05832
1593.11888,0.05844
1591.19016,0.05863
1589.26145,0.05872
1587.33273,0.05873
1585.40401,0.05863
1583.47530,0.05835
1581.54658,0.05813
1579.61787,0.05810
1577.68915,0.05801
1575.76044,0.05755
1573.83172,0.05715
1571.90301,0.05705
1569.97429,0.05679
1568.04558,0.05632
1566.11686,0.05619
1564.18815,0.05626
1562.25943,0.05623
1560.33072,0.05583
1558.40200,0.05493
1556.47328,0.05470
1554.54457,0.05468
1552.61585,0.05458
1550.68714,0.05447
1548.75842,0.05425
1546.82971,0.05392
1544.90099,0.05342
1542.97228,0.05284
1541.04356,0.05255
1539.11485,0.05244
1537.18613,0.05227
1535.25742,0.05186
1533.32870,0.05110
1531.39999,0.05053
1529.47127,0.05019
1527.54255,0.04960
1525.61384,0.04879
1523.68512,0.04816
1521.75641,0.04733
1519.82769,0.04588
1517.89898,0.04427
1515.97026,0.04274
1514.04155,0.04196
1512.11283,0.04273
1510.18412,0.04554
1508.25540,0.05185
1506.32669,0.06301
1504.39797,0.06990
1502.46925,0.07238
1500.54054,0.07368
1498.61182,0.07387
1496.68311,0.07267
1494.75439,0.07122
1492.82568,0.07029
1490.89696,0.06935
1488.96825,0.06811
1487.03953,0.06678
1485.11082,0.06551
1483.18210,0.06437
1481.25339,0.06343
1479.32467,0.06274
1477.39596,0.06229
1475.46724,0.06190
1473.53852,0.06114
1471.60981,0.06014
1469.68109,0.05968
1467.75238,0.05975
1465.82366,0.06002
1463.89495,0.06033
1461.96623,0.06070
1460.03752,0.06104
1458.10880,0.06091
1456.18009,0.05989
1454.25137,0.05916
1452.32266,0.05908
1450.39394,0.05925
1448.46523,0.05918
1446.53651,0.05861
1444.60779,0.05805
1442.67908,0.05785
1440.75036,0.05785
1438.82165,0.05798
1436.89293,0.05787
1434.96422,0.05727
1433.03550,0.05671
1431.10679,0.05638
1429.17807,0.05605
1427.24936,0.05563
1425.32064,0.05510
1423.39193,0.05456
1421.46321,0.05415
1419.53449,0.05371
1417.60578,0.05315
1415.67706,0.05281
1413.74835,0.05293
1411.81963,0.05357
1409.89092,0.05454
1407.96220,0.05548
1406.03349,0.05598
1404.10477,0.05589
1402.17606,0.05561
1400.24734,0.05531
1398.31863,0.05485
1396.38991,0.05441
1394.46120,0.05402
1392.53248,0.05352
1390.60376,0.05317
1388.67505,0.05324
1386.74633,0.05355
1384.81762,0.05377
1382.88890,0.05383
1380.96019,0.05361
1379.03147,0.05306
1377.10276,0.05241
1375.17404,0.05179
1373.24533,0.05124
1371.31661,0.05066
1369.38790,0.04999
1367.45918,0.04978
1365.53047,0.05049
1363.60175,0.05184
1361.67303,0.05285
1359.74432,0.05274
1357.81560,0.05197
1355.88689,0.05124
1353.95817,0.05075
1352.02946,0.05030
1350.10074,0.04980
1348.17203,0.04937
1346.24331,0.04895
1344.31460,0.04844
1342.38588,0.04792
1340.45717,0.04736
1338.52845,0.04673
1336.59974,0.04617
1334.67102,0.04575
1332.74230,0.04542
1330.81359,0.04497
1328.88487,0.04424
1326.95616,0.04354
1325.02744,0.04309
1323.09873,0.04268
1321.17001,0.04216
1319.24130,0.04146
1317.31258,0.04050
1315.38387,0.03955
1313.45515,0.03897
1311.52644,0.03868
1309.59772,0.03842
1307.66900,0.03804
1305.74029,0.03747
1303.81157,0.03673
1301.88286,0.03601
1299.95414,0.03548
1298.02543,0.03508
1296.09671,0.03476
1294.16800,0.03460
1292.23928,0.03463
1290.31057,0.03471
1288.38185,0.03452
1286.45314,0.03390
1284.52442,0.03298
1282.59571,0.03183
1280.66699,0.03054
1278.73827,0.02915
1276.80956,0.02760
1274.88084,0.02586
1272.95213,0.02409
1271.02341,0.02238
1269.09470,0.02089
1267.16598,0.02017
1265.23727,0.02082
1263.30855,0.02335
1261.37984,0.02864
1259.45112,0.03725
1257.52241,0.04846
1255.59369,0.06060
1253.66498,0.07227
1251.73626,0.08256
1249.80754,0.09090
1247.87883,0.09736
1245.95011,0.10253
1244.02140,0.10683
1242.09268,0.11057
1240.16397,0.11424
1238.23525,0.11831
1236.30654,0.12257
1234.37782,0.12661
1232.44911,0.13041
1230.52039,0.13398
1228.59168,0.13703
1226.66296,0.13922
1224.73424,0.14017
1222.80553,0.13942
1220.87681,0.13664
1218.94810,0.13184
1217.01938,0.12522
1215.09067,0.11680
1213.16195,0.10674
1211.23324,0.09587
1209.30452,0.08544
1207.37581,0.07733
1205.44709,0.07439
1203.51838,0.07927
1201.58966,0.09212
1199.66095,0.11025
1197.73223,0.12969
1195.80351,0.14691
1193.87480,0.15956
1191.94608,0.16641
1190.01737,0.16704
1188.08865,0.16193
1186.15994,0.15256
1184.23122,0.14113
1182.30251,0.12967
1180.37379,0.11949
1178.44508,0.11094
1176.51636,0.10327
1174.58765,0.09547
1172.65893,0.08848
1170.73022,0.08644
1168.80150,0.09419
1166.87278,0.11206
1164.94407,0.13361
1163.01535,0.15003
1161.08664,0.15648
1159.15792,0.15404
1157.22921,0.14688
1155.30049,0.13876
1153.37178,0.13166
1151.44306,0.12601
1149.51435,0.12143
1147.58563,0.11758
1145.65692,0.11437
1143.72820,0.11165
1141.79949,0.10921
1139.87077,0.10703
1137.94205,0.10503
1136.01334,0.10318
1134.08462,0.10149
1132.15591,0.09983
1130.22719,0.09816
1128.29848,0.09651
1126.36976,0.09491
1124.44105,0.09349
1122.51233,0.09225
1120.58362,0.09121
1118.65490,0.09033
1116.72619,0.08940
1114.79747,0.08845
1112.86875,0.08778
1110.94004,0.08759
1109.01132,0.08762
1107.08261,0.08759
1105.15389,0.08765
1103.22518,0.08805
1101.29646,0.08864
1099.36775,0.08888
1097.43903,0.08820
1095.51032,0.08667
1093.58160,0.08468
1091.65289,0.08251
1089.72417,0.08046
1087.79546,0.07872
1085.86674,0.07803
1083.93802,0.08017
1082.00931,0.08583
1080.08059,0.09235
1078.15188,0.09594
1076.22316,0.09562
1074.29445,0.09320
1072.36573,0.09060
1070.43702,0.08860
1068.50830,0.08718
1066.57959,0.08614
1064.65087,0.08546
1062.72216,0.08493
1060.79344,0.08418
1058.86473,0.08321
1056.93601,0.08236
1055.00729,0.08166
1053.07858,0.08095
1051.14986,0.08031
1049.22115,0.07982
1047.29243,0.07928
1045.36372,0.07862
1043.43500,0.07821
1041.50629,0.07819
1039.57757,0.07784
1037.64886,0.07674
1035.72014,0.07547
1033.79143,0.07445
1031.86271,0.07332
1029.93399,0.07176
1028.00528,0.06988
1026.07656,0.06775
1024.14785,0.06537
1022.21913,0.06308
1020.29042,0.06252
1018.36170,0.06745
1016.43299,0.07958
1014.50427,0.09258
1012.57556,0.09804
1010.64684,0.09651
1008.71813,0.09416
1006.78941,0.09355
1004.86070,0.09350
1002.93198,0.09292
1001.00326,0.09169
999.07455,0.09013
997.14583,0.08874
995.21712,0.08774
993.28840,0.08693
991.35969,0.08623
989.43097,0.08566
987.50226,0.08507
985.57354,0.08430
983.64483,0.08347
981.71611,0.08276
979.78740,0.08232
977.85868,0.08215
975.92997,0.08202
974.00125,0.08175
972.07253,0.08121
970.14382,0.08043
968.21510,0.07972
966.28639,0.07928
964.35767,0.07900
962.42896,0.07883
960.50024,0.07882
958.57153,0.07885
956.64281,0.07870
954.71410,0.07846
952.78538,0.07834
950.85667,0.07828
948.92795,0.07809
946.99924,0.07789
945.07052,0.07760
943.14180,0.07714
941.21309,0.07675
939.28437,0.07655
937.35566,0.07652
935.42694,0.07663
933.49823,0.07672
931.56951,0.07650
929.64080,0.07595
927.71208,0.07543
925.78337,0.07507
923.85465,0.07478
921.92594,0.07460
919.99722,0.07445
918.06850,0.07427
916.13979,0.07427
914.21107,0.07442
912.28236,0.07421
910.35364,0.07356
908.42493,0.07295
906.49621,0.07266
904.56750,0.07239
902.63878,0.07190
900.71007,0.07131
898.78135,0.07068
896.85264,0.07001
894.92392,0.06945
892.99521,0.06945
891.06649,0.07046
889.13777,0.07215
887.20906,0.07377
885.28034,0.07501
883.35163,0.07562
881.42291,0.07543
879.49420,0.07503
877.56548,0.07475
875.63677,0.07436
873.70805,0.07397
871.77934,0.07351
869.85062,0.07268
867.92191,0.07166
865.99319,0.07073
864.06448,0.06997
862.13576,0.06936
860.20704,0.06874
858.27833,0.06794
856.34961,0.06695
854.42090,0.06608
852.49218,0.06560
850.56347,0.06554
848.63475,0.06572
846.70604,0.06593
844.77732,0.06626
842.84861,0.06659
840.91989,0.06685
838.99118,0.06740
837.06246,0.06872
835.13375,0.07113
833.20503,0.07456
831.27631,0.07836
829.34760,0.08167
827.41888,0.08371
825.49017,0.08449
823.56145,0.08453
821.63274,0.08403
819.70402,0.08353
817.77531,0.08387
815.84659,0.08492
813.91788,0.08578
811.98916,0.08603
810.06045,0.08573
808.13173,0.08512
806.20301,0.08454
804.27430,0.08397
802.34558,0.08293
800.41687,0.08140
798.48815,0.08007
796.55944,0.07924
794.63072,0.07871
792.70201,0.07829
790.77329,0.07773
788.84458,0.07691
786.91586,0.07572
784.98715,0.07461
783.05843,0.07448
781.12972,0.07487
779.20100,0.07462
777.27228,0.07389
775.34357,0.07366
773.41485,0.07435
771.48614,0.07566
769.55742,0.07717
767.62871,0.07851
765.69999,0.07952
763.77128,0.08028
761.84256,0.08080
759.91385,0.08102
757.98513,0.08095
756.05642,0.08082
754.12770,0.08074
752.19899,0.08052
750.27027,0.08014
748.34155,0.07974
746.41284,0.07937
744.48412,0.07902
742.55541,0.07864
740.62669,0.07817
738.69798,0.07781
736.76926,0.07783
734.84055,0.07781
732.91183,0.07727
730.98312,0.07674
729.05440,0.07693
727.12569,0.07750
725.19697,0.07757
723.26825,0.07712
721.33954,0.07674
719.41082,0.07641
717.48211,0.07571
715.55339,0.07512
713.62468,0.07537
711.69596,0.07616
709.76725,0.07686
707.83853,0.07719
705.90982,0.07729
703.98110,0.07760
702.05239,0.07802
700.12367,0.07800
698.19496,0.07763
696.26624,0.07725
694.33752,0.07686
692.40881,0.07648
690.48009,0.07617
688.55138,0.07612
686.62266,0.07656
684.69395,0.07700
682.76523,0.07671
680.83652,0.07599
678.90780,0.07549
676.97909,0.07521
675.05037,0.07497
673.12166,0.07474
671.19294,0.07469
669.26423,0.07503
667.33551,0.07503
665.40679,0.07440
663.47808,0.07395
661.54936,0.07368
659.62065,0.07363
657.69193,0.07392
655.76322,0.07414
653.83450,0.07387
651.90579,0.07359
649.97707,0.07386
648.04836,0.07377
646.11964,0.07250
644.19093,0.07116
642.26221,0.07067
640.33350,0.07047
638.40478,0.07063
636.47606,0.07161
634.54735,0.07252
632.61863,0.07282
630.68992,0.07300
628.76120,0.07262
626.83249,0.07125
624.90377,0.06997
622.97506,0.06977
621.04634,0.06990
619.11763,0.06921
617.18891,0.06801
615.26020,0.06761
613.33148,0.06840
611.40276,0.06927
609.47405,0.06921
607.54533,0.06823
605.61662,0.06710
603.68790,0.06704
601.75919,0.06797
599.83047,0.06800
