7496.91655,0.09216
7494.98784,0.07770
7493.05912,0.08210
7491.13041,0.08928
7489.20169,0.07164
7487.27297,0.05476
7485.34426,0.06909
7483.41554,0.09191
7481.48683,0.08642
7479.55811,0.06356
7477.62940,0.05672
7475.70068,0.06499
7473.77197,0.06206
7471.84325,0.06099
7469.91454,0.07656
7467.98582,0.08922
7466.05711,0.08546
7464.12839,0.07939
7462.19968,0.08559
7460.27096,0.10127
7458.34224,0.11008
7456.41353,0.11104
7454.48481,0.11026
7452.55610,0.10283
7450.62738,0.08452
7448.69867,0.07305
7446.76995,0.07524
7444.84124,0.07486
7442.91252,0.06539
7440.98381,0.06384
7439.05509,0.07894
7437.12638,0.09773
7435.19766,0.10138
7433.26895,0.08708
7431.34023,0.06599
7429.41151,0.06021
7427.48280,0.07460
7425.55408,0.08686
7423.62537,0.09006
7421.69665,0.10399
7419.76794,0.12097
7417.83922,0.11655
7415.91051,0.09503
7413.98179,0.07929
7412.05308,0.07506
7410.12436,0.08177
7408.19565,0.09712
7406.26693,0.11085
7404.33821,0.10952
7402.40950,0.08963
7400.48078,0.06880
7398.55207,0.07374
7396.62335,0.09575
7394.69464,0.10009
7392.76592,0.08684
7390.83721,0.07673
7388.90849,0.07064
7386.97978,0.07230
7385.05106,0.08230
7383.12235,0.08959
7381.19363,0.08941
7379.26492,0.08108
7377.33620,0.06696
7375.40748,0.05871
7373.47877,0.05990
7371.55005,0.06999
7369.62134,0.09096
7367.69262,0.11108
7365.76391,0.12068
7363.83519,0.11816
7361.90648,0.09801
7359.97776,0.08080
7358.04905,0.09245
7356.12033,0.11341
7354.19162,0.10731
7352.26290,0.08917
7350.33419,0.08425
7348.40547,0.08433
7346.47675,0.07681
7344.54804,0.07151
7342.61932,0.07524
7340.69061,0.08509
7338.76189,0.09925
7336.83318,0.11176
7334.90446,0.10920
7332.97575,0.09335
7331.04703,0.08690
7329.11832,0.09063
7327.18960,0.08302
7325.26089,0.07957
7323.33217,0.09046
7321.40346,0.09462
7319.47474,0.08454
7317.54602,0.08071
7315.61731,0.08336
7313.68859,0.07745
7311.75988,0.06740
7309.83116,0.06164
7307.90245,0.06005
7305.97373,0.06912
7304.04502,0.07685
7302.11630,0.06872
7300.18759,0.05951
7298.25887,0.07074
7296.33016,0.08419
7294.40144,0.08424
7292.47272,0.08605
7290.54401,0.09442
7288.61529,0.08885
7286.68658,0.07154
7284.75786,0.06272
7282.82915,0.06885
7280.90043,0.08207
7278.97172,0.08652
7277.04300,0.07377
7275.11429,0.06817
7273.18557,0.07962
7271.25686,0.09291
7269.32814,0.09643
7267.39943,0.08970
7265.47071,0.07663
7263.54199,0.06340
7261.61328,0.06074
7259.68456,0.07338
7257.75585,0.08104
7255.82713,0.07497
7253.89842,0.06766
7251.96970,0.07059
7250.04099,0.07908
7248.11227,0.08849
7246.18356,0.09770
7244.25484,0.10172
7242.32613,0.09037
7240.39741,0.08213
7238.46870,0.09276
7236.53998,0.09651
7234.61126,0.07963
7232.68255,0.07164
7230.75383,0.08080
7228.82512,0.08439
7226.89640,0.07680
7224.96769,0.06936
7223.03897,0.07211
7221.11026,0.08253
7219.18154,0.09002
7217.25283,0.08561
7215.32411,0.07145
7213.39540,0.05907
7211.46668,0.05847
7209.53796,0.06959
7207.60925,0.08411
7205.68053,0.09479
7203.75182,0.09929
7201.82310,0.09759
7199.89439,0.08821
7197.96567,0.07873
7196.03696,0.07733
7194.10824,0.07879
7192.17953,0.07471
7190.25081,0.06670
7188.32210,0.06564
7186.39338,0.07607
7184.46467,0.08498
7182.53595,0.08827
7180.60723,0.08742
7178.67852,0.08091
7176.74980,0.07124
7174.82109,0.06858
7172.89237,0.06994
7170.96366,0.06533
7169.03494,0.05729
7167.10623,0.05131
7165.17751,0.05199
7163.24880,0.06703
7161.32008,0.08464
7159.39137,0.08212
7157.46265,0.06473
7155.53394,0.05881
7153.60522,0.06753
7151.67650,0.07730
7149.74779,0.08491
7147.81907,0.09124
7145.89036,0.09140
7143.96164,0.08937
7142.03293,0.08432
7140.10421,0.07519
7138.17550,0.07534
7136.24678,0.07985
7134.31807,0.07634
7132.38935,0.07284
7130.46064,0.07449
7128.53192,0.07601
7126.60321,0.07827
7124.67449,0.08746
7122.74577,0.09611
7120.81706,0.09798
7118.88834,0.10109
7116.95963,0.10129
7115.03091,0.08921
7113.10220,0.07636
7111.17348,0.06758
7109.24477,0.05483
7107.31605,0.04499
7105.38734,0.05500
7103.45862,0.07492
7101.52991,0.08340
7099.60119,0.07657
7097.67247,0.06910
7095.74376,0.07413
7093.81504,0.08372
7091.88633,0.08664
7089.95761,0.08862
7088.02890,0.08933
7086.10018,0.08296
7084.17147,0.07449
7082.24275,0.06977
7080.31404,0.07142
7078.38532,0.08309
7076.45661,0.09584
7074.52789,0.09703
7072.59918,0.08845
7070.67046,0.07731
7068.74174,0.06966
7066.81303,0.07325
7064.88431,0.08703
7062.95560,0.09782
7061.02688,0.09533
7059.09817,0.08532
7057.16945,0.07529
7055.24074,0.07056
7053.31202,0.07541
7051.38331,0.08883
7049.45459,0.09627
7047.52588,0.09229
7045.59716,0.08939
7043.66845,0.09855
7041.73973,0.11067
7039.81101,0.10722
7037.88230,0.08735
7035.95358,0.06998
7034.02487,0.06807
7032.09615,0.07789
7030.16744,0.08803
7028.23872,0.09514
7026.31001,0.09798
7024.38129,0.09586
7022.45258,0.09532
7020.52386,0.09686
7018.59515,0.09421
7016.66643,0.08501
7014.73771,0.07096
7012.80900,0.06674
7010.88028,0.08045
7008.95157,0.09777
7007.02285,0.10419
7005.09414,0.09916
7003.16542,0.08942
7001.23671,0.08457
6999.30799,0.09039
6997.37928,0.09865
6995.45056,0.09717
6993.52185,0.09301
6991.59313,0.09475
6989.66442,0.09218
6987.73570,0.08408
6985.80698,0.08487
6983.87827,0.09312
6981.94955,0.09286
6980.02084,0.08619
6978.09212,0.08731
6976.16341,0.09164
6974.23469,0.09181
6972.30598,0.09575
6970.37726,0.10792
6968.44855,0.11428
6966.51983,0.10638
6964.59112,0.09512
6962.66240,0.08979
6960.73369,0.08368
6958.80497,0.07382
6956.87625,0.07008
6954.94754,0.07734
6953.01882,0.08846
6951.09011,0.09693
6949.16139,0.09528
6947.23268,0.08762
6945.30396,0.09049
6943.37525,0.10312
6941.44653,0.10620
6939.51782,0.09690
6937.58910,0.08738
6935.66039,0.08221
6933.73167,0.08131
6931.80296,0.08551
6929.87424,0.09309
6927.94552,0.09943
6926.01681,0.09738
6924.08809,0.09151
6922.15938,0.08680
6920.23066,0.08158
6918.30195,0.07894
6916.37323,0.07906
6914.44452,0.07768
6912.51580,0.08069
6910.58709,0.09136
6908.65837,0.10239
6906.72966,0.10801
6904.80094,0.10742
6902.87222,0.10226
6900.94351,0.09517
6899.01479,0.08643
6897.08608,0.08032
6895.15736,0.08270
6893.22865,0.09022
6891.29993,0.09721
6889.37122,0.10177
6887.44250,0.09940
6885.51379,0.09062
6883.58507,0.08260
6881.65636,0.08170
6879.72764,0.08678
6877.79893,0.08919
6875.87021,0.08924
6873.94149,0.09481
6872.01278,0.10008
6870.08406,0.09488
6868.15535,0.08273
6866.22663,0.08036
6864.29792,0.09278
6862.36920,0.10631
6860.44049,0.11216
6858.51177,0.11126
6856.58306,0.10573
6854.65434,0.10038
6852.72563,0.09778
6850.79691,0.09691
6848.86820,0.09965
6846.93948,0.10549
6845.01076,0.10340
6843.08205,0.08973
6841.15333,0.07678
6839.22462,0.07397
6837.29590,0.08009
6835.36719,0.08955
6833.43847,0.09552
6831.50976,0.09530
6829.58104,0.09206
6827.65233,0.08911
6825.72361,0.08932
6823.79490,0.09621
6821.86618,0.10537
6819.93746,0.10864
6818.00875,0.10471
6816.08003,0.09902
6814.15132,0.09384
6812.22260,0.09086
6810.29389,0.09250
6808.36517,0.09981
6806.43646,0.10589
6804.50774,0.10234
6802.57903,0.09689
6800.65031,0.09960
6798.72160,0.10397
6796.79288,0.10442
6794.86417,0.10237
6792.93545,0.10113
6791.00673,0.10331
6789.07802,0.10691
6787.14930,0.10925
6785.22059,0.10869
6783.29187,0.10178
6781.36316,0.09431
6779.43444,0.09381
6777.50573,0.09894
6775.57701,0.10672
6773.64830,0.11338
6771.71958,0.11401
6769.79087,0.11219
6767.86215,0.10910
6765.93344,0.10215
6764.00472,0.09539
6762.07600,0.09322
6760.14729,0.09554
6758.21857,0.10028
6756.28986,0.10244
6754.36114,0.09887
6752.43243,0.09106
6750.50371,0.08951
6748.57500,0.09972
6746.64628,0.10603
6744.71757,0.09807
6742.78885,0.08768
6740.86014,0.08396
6738.93142,0.08213
6737.00271,0.07677
6735.07399,0.07457
6733.14527,0.07987
6731.21656,0.08676
6729.28784,0.09052
6727.35913,0.09129
6725.43041,0.09309
6723.50170,0.09805
6721.57298,0.10331
6719.64427,0.10793
6717.71555,0.11157
6715.78684,0.11200
6713.85812,0.10777
6711.92941,0.10298
6710.00069,0.10322
6708.07197,0.10564
6706.14326,0.10316
6704.21454,0.09765
6702.28583,0.09675
6700.35711,0.10352
6698.42840,0.11485
6696.49968,0.11951
6694.57097,0.11147
6692.64225,0.10210
6690.71354,0.10063
6688.78482,0.10358
6686.85611,0.10482
6684.92739,0.10323
6682.99868,0.10309
6681.06996,0.10557
6679.14124,0.10483
6677.21253,0.10094
6675.28381,0.10239
6673.35510,0.11060
6671.42638,0.11534
6669.49767,0.11150
6667.56895,0.10286
6665.64024,0.09496
6663.71152,0.09165
6661.78281,0.09289
6659.85409,0.09602
6657.92538,0.09941
6655.99666,0.10152
6654.06795,0.10418
6652.13923,0.11077
6650.21051,0.11779
6648.28180,0.11902
6646.35308,0.11452
6644.42437,0.10770
6642.49565,0.10374
6640.56694,0.10492
6638.63822,0.10849
6636.70951,0.11113
6634.78079,0.10963
6632.85208,0.10350
6630.92336,0.10079
6628.99465,0.10384
6627.06593,0.10625
6625.13722,0.10652
6623.20850,0.10548
6621.27978,0.10270
6619.35107,0.10399
6617.42235,0.11256
6615.49364,0.11882
6613.56492,0.11579
6611.63621,0.11042
6609.70749,0.11016
6607.77878,0.11358
6605.85006,0.11362
6603.92135,0.10912
6601.99263,0.10833
6600.06392,0.11275
6598.13520,0.11407
6596.20648,0.10924
6594.27777,0.10205
6592.34905,0.09798
6590.42034,0.10088
6588.49162,0.10736
6586.56291,0.10936
6584.63419,0.10408
6582.70548,0.09888
6580.77676,0.10001
6578.84805,0.10114
6576.91933,0.09729
6574.99062,0.09504
6573.06190,0.09966
6571.13319,0.10873
6569.20447,0.11473
6567.27575,0.11242
6565.34704,0.10432
6563.41832,0.09778
6561.48961,0.09987
6559.56089,0.10650
6557.63218,0.10864
6555.70346,0.10612
6553.77475,0.10376
6551.84603,0.10466
6549.91732,0.10648
6547.98860,0.10675
6546.05989,0.10610
6544.13117,0.10284
6542.20246,0.10080
6540.27374,0.10469
6538.34502,0.10856
6536.41631,0.10741
6534.48759,0.10408
6532.55888,0.10025
6530.63016,0.09746
6528.70145,0.09943
6526.77273,0.10419
6524.84402,0.10442
6522.91530,0.09948
6520.98659,0.09754
6519.05787,0.10378
6517.12916,0.11140
6515.20044,0.11284
6513.27172,0.11146
6511.34301,0.11281
6509.41429,0.11407
6507.48558,0.11139
6505.55686,0.10689
6503.62815,0.10329
6501.69943,0.10183
6499.77072,0.10466
6497.84200,0.10787
6495.91329,0.10460
6493.98457,0.10192
6492.05586,0.10835
6490.12714,0.11436
6488.19843,0.11402
6486.26971,0.11426
6484.34099,0.11698
6482.41228,0.12043
6480.48356,0.12367
6478.55485,0.12209
6476.62613,0.11569
6474.69742,0.11073
6472.76870,0.10928
6470.83999,0.10959
6468.91127,0.11294
6466.98256,0.11707
6465.05384,0.11309
6463.12513,0.10132
6461.19641,0.09415
6459.26770,0.09530
6457.33898,0.10053
6455.41026,0.10890
6453.48155,0.11580
6451.55283,0.11442
6449.62412,0.10648
6447.69540,0.10129
6445.76669,0.10388
6443.83797,0.10982
6441.90926,0.11583
6439.98054,0.11960
6438.05183,0.11821
6436.12311,0.11669
6434.19440,0.11760
6432.26568,0.11533
6430.33697,0.11154
6428.40825,0.11009
6426.47953,0.10903
6424.55082,0.10917
6422.62210,0.11238
6420.69339,0.11477
6418.76467,0.11305
6416.83596,0.11089
6414.90724,0.11258
6412.97853,0.11385
6411.04981,0.11074
6409.12110,0.10811
6407.19238,0.10932
6405.26367,0.11002
6403.33495,0.10853
6401.40623,0.10619
6399.47752,0.10306
6397.54880,0.10079
6395.62009,0.10135
6393.69137,0.10394
6391.76266,0.10636
6389.83394,0.10664
6387.90523,0.10638
6385.97651,0.10779
6384.04780,0.10869
6382.11908,0.10687
6380.19037,0.10512
6378.26165,0.10456
6376.33294,0.10248
6374.40422,0.09888
6372.47550,0.09687
6370.54679,0.09739
6368.61807,0.09900
6366.68936,0.10017
6364.76064,0.10236
6362.83193,0.10719
6360.90321,0.11149
6358.97450,0.11237
6357.04578,0.11321
6355.11707,0.11509
6353.18835,0.11524
6351.25964,0.11390
6349.33092,0.11355
6347.40221,0.11344
6345.47349,0.11102
6343.54477,0.10871
6341.61606,0.10835
6339.68734,0.10529
6337.75863,0.10083
6335.82991,0.10080
6333.90120,0.10426
6331.97248,0.10815
6330.04377,0.11093
6328.11505,0.11072
6326.18634,0.10885
6324.25762,0.10951
6322.32891,0.11285
6320.40019,0.11382
6318.47147,0.11023
6316.54276,0.10609
6314.61404,0.10608
6312.68533,0.10917
6310.75661,0.11058
6308.82790,0.10904
6306.89918,0.10869
6304.97047,0.11019
6303.04175,0.11080
6301.11304,0.11107
6299.18432,0.11030
6297.25561,0.10697
6295.32689,0.10508
6293.39818,0.10735
6291.46946,0.11063
6289.54074,0.11235
6287.61203,0.11197
6285.68331,0.10893
6283.75460,0.10796
6281.82588,0.11332
6279.89717,0.12010
6277.96845,0.11969
6276.03974,0.11195
6274.11102,0.10675
6272.18231,0.10817
6270.25359,0.10901
6268.32488,0.10559
6266.39616,0.10103
6264.46745,0.09819
6262.53873,0.09746
6260.61001,0.09756
6258.68130,0.09726
6256.75258,0.09705
6254.82387,0.09839
6252.89515,0.10193
6250.96644,0.10498
6249.03772,0.10535
6247.10901,0.10458
6245.18029,0.10297
6243.25158,0.10003
6241.32286,0.09881
6239.39415,0.09932
6237.46543,0.09926
6235.53672,0.09837
6233.60800,0.09771
6231.67928,0.09842
6229.75057,0.09809
6227.82185,0.09507
6225.89314,0.09478
6223.96442,0.09959
6222.03571,0.10369
6220.10699,0.10223
6218.17828,0.09810
6216.24956,0.09533
6214.32085,0.09453
6212.39213,0.09564
6210.46342,0.09795
6208.53470,0.09900
6206.60598,0.09974
6204.67727,0.10142
6202.74855,0.10094
6200.81984,0.09731
6198.89112,0.09466
6196.96241,0.09542
6195.03369,0.09575
6193.10498,0.09265
6191.17626,0.08979
6189.24755,0.08834
6187.31883,0.08743
6185.39012,0.08795
6183.46140,0.08758
6181.53269,0.08400
6179.60397,0.08101
6177.67525,0.08088
6175.74654,0.08135
6173.81782,0.08200
6171.88911,0.08320
6169.96039,0.08316
6168.03168,0.08101
6166.10296,0.07840
6164.17425,0.07962
6162.24553,0.08404
6160.31682,0.08578
6158.38810,0.08673
6156.45939,0.08921
6154.53067,0.08689
6152.60196,0.07895
6150.67324,0.07261
6148.74452,0.07111
6146.81581,0.07284
6144.88709,0.07585
6142.95838,0.07797
6141.02966,0.07873
6139.10095,0.07925
6137.17223,0.07796
6135.24352,0.07374
6133.31480,0.06976
6131.38609,0.06895
6129.45737,0.07102
6127.52866,0.07158
6125.59994,0.06830
6123.67122,0.06550
6121.74251,0.06565
6119.81379,0.06641
6117.88508,0.06704
6115.95636,0.06824
6114.02765,0.06863
6112.09893,0.06753
6110.17022,0.06667
6108.24150,0.06464
6106.31279,0.06091
6104.38407,0.06048
6102.45536,0.06410
6100.52664,0.06654
6098.59793,0.06553
6096.66921,0.06229
6094.74049,0.05926
6092.81178,0.05791
6090.88306,0.05653
6088.95435,0.05473
6087.02563,0.05365
6085.09692,0.05106
6083.16820,0.04754
6081.23949,0.04633
6079.31077,0.04677
6077.38206,0.04753
6075.45334,0.04906
6073.52463,0.05071
6071.59591,0.04989
6069.66720,0.04692
6067.73848,0.04623
6065.80976,0.04699
6063.88105,0.04500
6061.95233,0.04145
6060.02362,0.04088
6058.09490,0.04314
6056.16619,0.04474
6054.23747,0.04569
6052.30876,0.04558
6050.38004,0.04278
6048.45133,0.04146
6046.52261,0.04450
6044.59390,0.04750
6042.66518,0.04742
6040.73647,0.04695
6038.80775,0.04757
6036.87903,0.04752
6034.95032,0.04611
6033.02160,0.04558
6031.09289,0.04570
6029.16417,0.04340
6027.23546,0.03980
6025.30674,0.03834
6023.37803,0.03893
6021.44931,0.03878
6019.52060,0.03628
6017.59188,0.03384
6015.66317,0.03487
6013.73445,0.03845
6011.80573,0.04007
6009.87702,0.04003
6007.94830,0.04138
6006.01959,0.04238
6004.09087,0.04090
6002.16216,0.03889
6000.23344,0.03719
5998.30473,0.03631
5996.37601,0.03780
5994.44730,0.04071
5992.51858,0.04145
5990.58987,0.03928
5988.66115,0.03719
5986.73244,0.03671
5984.80372,0.03633
5982.87500,0.03658
5980.94629,0.03720
5979.01757,0.03757
5977.08886,0.03859
5975.16014,0.03911
5973.23143,0.03844
5971.30271,0.03807
5969.37400,0.03876
5967.44528,0.04053
5965.51657,0.04181
5963.58785,0.04236
5961.65914,0.04338
5959.73042,0.04378
5957.80171,0.04285
5955.87299,0.04245
5953.94427,0.04210
5952.01556,0.04155
5950.08684,0.04188
5948.15813,0.04265
5946.22941,0.04248
5944.30070,0.04207
5942.37198,0.04404
5940.44327,0.04639
5938.51455,0.04541
5936.58584,0.04364
5934.65712,0.04298
5932.72841,0.04161
5930.79969,0.03945
5928.87097,0.03806
5926.94226,0.03755
5925.01354,0.03885
5923.08483,0.04237
5921.15611,0.04482
5919.22740,0.04430
5917.29868,0.04272
5915.36997,0.04078
5913.44125,0.03880
5911.51254,0.03943
5909.58382,0.04294
5907.65511,0.04534
5905.72639,0.04601
5903.79768,0.04616
5901.86896,0.04510
5899.94024,0.04527
5898.01153,0.04811
5896.08281,0.04913
5894.15410,0.04620
5892.22538,0.04341
5890.29667,0.04377
5888.36795,0.04679
5886.43924,0.05208
5884.51052,0.05540
5882.58181,0.05264
5880.65309,0.04764
5878.72438,0.04534
5876.79566,0.04630
5874.86695,0.04938
5872.93823,0.05146
5871.00951,0.04994
5869.08080,0.04773
5867.15208,0.04910
5865.22337,0.05227
5863.29465,0.05478
5861.36594,0.05787
5859.43722,0.06038
5857.50851,0.05860
5855.57979,0.05520
5853.65108,0.05625
5851.72236,0.05993
5849.79365,0.06038
5847.86493,0.05805
5845.93622,0.05672
5844.00750,0.05749
5842.07878,0.05974
5840.15007,0.06227
5838.22135,0.06269
5836.29264,0.06135
5834.36392,0.06162
5832.43521,0.06262
5830.50649,0.06161
5828.57778,0.05990
5826.64906,0.05806
5824.72035,0.05590
5822.79163,0.05592
5820.86292,0.05857
5818.93420,0.06072
5817.00548,0.06181
5815.07677,0.06331
5813.14805,0.06481
5811.21934,0.06503
5809.29062,0.06418
5807.36191,0.06330
5805.43319,0.06218
5803.50448,0.06049
5801.57576,0.05999
5799.64705,0.06220
5797.71833,0.06493
5795.78962,0.06481
5793.86090,0.06247
5791.93219,0.05960
5790.00347,0.05689
5788.07475,0.05676
5786.14604,0.05971
5784.21732,0.06227
5782.28861,0.06280
5780.35989,0.06218
5778.43118,0.06009
5776.50246,0.05641
5774.57375,0.05336
5772.64503,0.05214
5770.71632,0.05274
5768.78760,0.05488
5766.85889,0.05654
5764.93017,0.05650
5763.00146,0.05623
5761.07274,0.05607
5759.14402,0.05612
5757.21531,0.05777
5755.28659,0.06010
5753.35788,0.06082
5751.42916,0.05994
5749.50045,0.05904
5747.57173,0.05944
5745.64302,0.06147
5743.71430,0.06394
5741.78559,0.06488
5739.85687,0.06454
5737.92816,0.06526
5735.99944,0.06780
5734.07072,0.06993
5732.14201,0.06983
5730.21329,0.06957
5728.28458,0.07157
5726.35586,0.07397
5724.42715,0.07409
5722.49843,0.07259
5720.56972,0.07249
5718.64100,0.07513
5716.71229,0.07826
5714.78357,0.07981
5712.85486,0.08068
5710.92614,0.08130
5708.99743,0.08125
5707.06871,0.08138
5705.13999,0.08161
5703.21128,0.08110
5701.28256,0.08147
5699.35385,0.08351
5697.42513,0.08440
5695.49642,0.08304
5693.56770,0.08188
5691.63899,0.08183
5689.71027,0.08095
5687.78156,0.07851
5685.85284,0.07697
5683.92413,0.07713
5681.99541,0.07722
5680.06670,0.07683
5678.13798,0.07582
5676.20926,0.07507
5674.28055,0.07610
5672.35183,0.07665
5670.42312,0.07472
5668.49440,0.07313
5666.56569,0.07406
5664.63697,0.07531
5662.70826,0.07579
5660.77954,0.07620
5658.85083,0.07639
5656.92211,0.07635
5654.99340,0.07570
5653.06468,0.07420
5651.13597,0.07281
5649.20725,0.07289
5647.27853,0.07492
5645.34982,0.07755
5643.42110,0.07929
5641.49239,0.08057
5639.56367,0.08237
5637.63496,0.08391
5635.70624,0.08431
5633.77753,0.08399
5631.84881,0.08311
5629.92010,0.08219
5627.99138,0.08268
5626.06267,0.08575
5624.13395,0.08953
5622.20523,0.09068
5620.27652,0.09094
5618.34780,0.09306
5616.41909,0.09491
5614.49037,0.09462
5612.56166,0.09393
5610.63294,0.09411
5608.70423,0.09424
5606.77551,0.09394
5604.84680,0.09410
5602.91808,0.09445
5600.98937,0.09405
5599.06065,0.09436
5597.13194,0.09646
5595.20322,0.09764
5593.27450,0.09687
5591.34579,0.09654
5589.41707,0.09644
5587.48836,0.09526
5585.55964,0.09460
5583.63093,0.09412
5581.70221,0.09276
5579.77350,0.09264
5577.84478,0.09363
5575.91607,0.09337
5573.98735,0.09218
5572.05864,0.09144
5570.12992,0.09200
5568.20121,0.09355
5566.27249,0.09441
5564.34377,0.09410
5562.41506,0.09417
5560.48634,0.09474
5558.55763,0.09451
5556.62891,0.09379
5554.70020,0.09302
5552.77148,0.09160
5550.84277,0.09003
5548.91405,0.08923
5546.98534,0.08947
5545.05662,0.09076
5543.12791,0.09222
5541.19919,0.09310
5539.27047,0.09354
5537.34176,0.09287
5535.41304,0.09115
5533.48433,0.08996
5531.55561,0.09010
5529.62690,0.09123
5527.69818,0.09180
5525.76947,0.09215
5523.84075,0.09388
5521.91204,0.09492
5519.98332,0.09378
5518.05461,0.09268
5516.12589,0.09203
5514.19718,0.09089
5512.26846,0.09011
5510.33974,0.09038
5508.41103,0.09127
5506.48231,0.09197
5504.55360,0.09178
5502.62488,0.09112
5500.69617,0.09151
5498.76745,0.09255
5496.83874,0.09189
5494.91002,0.09056
5492.98131,0.09064
5491.05259,0.09039
5489.12388,0.08951
5487.19516,0.08974
5485.26645,0.09098
5483.33773,0.09291
5481.40901,0.09459
5479.48030,0.09380
5477.55158,0.09070
5475.62287,0.08863
5473.69415,0.08874
5471.76544,0.08851
5469.83672,0.08730
5467.90801,0.08677
5465.97929,0.08806
5464.05058,0.09010
5462.12186,0.09106
5460.19315,0.09057
5458.26443,0.09008
5456.33572,0.09092
5454.40700,0.09252
5452.47828,0.09391
5450.54957,0.09458
5448.62085,0.09398
5446.69214,0.09349
5444.76342,0.09494
5442.83471,0.09724
5440.90599,0.09786
5438.97728,0.09688
5437.04856,0.09634
5435.11985,0.09705
5433.19113,0.09810
5431.26242,0.09786
5429.33370,0.09719
5427.40498,0.09772
5425.47627,0.09756
5423.54755,0.09597
5421.61884,0.09441
5419.69012,0.09356
5417.76141,0.09360
5415.83269,0.09378
5413.90398,0.09430
5411.97526,0.09621
5410.04655,0.09761
5408.11783,0.09764
5406.18912,0.09728
5404.26040,0.09615
5402.33169,0.09509
5400.40297,0.09602
5398.47425,0.09753
5396.54554,0.09716
5394.61682,0.09647
5392.68811,0.09727
5390.75939,0.09750
5388.83068,0.09650
5386.90196,0.09532
5384.97325,0.09419
5383.04453,0.09434
5381.11582,0.09610
5379.18710,0.09723
5377.25839,0.09718
5375.32967,0.09759
5373.40096,0.09859
5371.47224,0.09897
5369.54352,0.09803
5367.61481,0.09643
5365.68609,0.09547
5363.75738,0.09556
5361.82866,0.09663
5359.89995,0.09804
5357.97123,0.09843
5356.04252,0.09698
5354.11380,0.09499
5352.18509,0.09474
5350.25637,0.09524
5348.32766,0.09485
5346.39894,0.09454
5344.47022,0.09487
5342.54151,0.09509
5340.61279,0.09555
5338.68408,0.09687
5336.75536,0.09790
5334.82665,0.09756
5332.89793,0.09660
5330.96922,0.09546
5329.04050,0.09487
5327.11179,0.09612
5325.18307,0.09775
5323.25436,0.09730
5321.32564,0.09558
5319.39693,0.09516
5317.46821,0.09661
5315.53949,0.09728
5313.61078,0.09549
5311.68206,0.09379
5309.75335,0.09422
5307.82463,0.09539
5305.89592,0.09572
5303.96720,0.09526
5302.03849,0.09442
5300.10977,0.09330
5298.18106,0.09231
5296.25234,0.09207
5294.32363,0.09203
5292.39491,0.09075
5290.46620,0.08821
5288.53748,0.08645
5286.60876,0.08610
5284.68005,0.08596
5282.75133,0.08496
5280.82262,0.08275
5278.89390,0.08027
5276.96519,0.07887
5275.03647,0.07824
5273.10776,0.07742
5271.17904,0.07658
5269.25033,0.07633
5267.32161,0.07609
5265.39290,0.07519
5263.46418,0.07482
5261.53547,0.07599
5259.60675,0.07692
5257.67803,0.07678
5255.74932,0.07731
5253.82060,0.07907
5251.89189,0.07979
5249.96317,0.07933
5248.03446,0.08042
5246.10574,0.08344
5244.17703,0.08582
5242.24831,0.08697
5240.31960,0.08825
5238.39088,0.08975
5236.46217,0.09072
5234.53345,0.09170
5232.60473,0.09323
5230.67602,0.09458
5228.74730,0.09499
5226.81859,0.09485
5224.88987,0.09611
5222.96116,0.09875
5221.03244,0.09989
5219.10373,0.09950
5217.17501,0.10023
5215.24630,0.10199
5213.31758,0.10218
5211.38887,0.10109
5209.46015,0.10082
5207.53144,0.10132
5205.60272,0.10184
5203.67400,0.10233
5201.74529,0.10267
5199.81657,0.10300
5197.88786,0.10306
5195.95914,0.10268
5194.03043,0.10255
5192.10171,0.10261
5190.17300,0.10211
5188.24428,0.10143
5186.31557,0.10150
5184.38685,0.10229
5182.45814,0.10297
5180.52942,0.10333
5178.60071,0.10352
5176.67199,0.10316
5174.74327,0.10296
5172.81456,0.10359
5170.88584,0.10405
5168.95713,0.10432
5167.02841,0.10425
5165.09970,0.10354
5163.17098,0.10387
5161.24227,0.10463
5159.31355,0.10390
5157.38484,0.10347
5155.45612,0.10494
5153.52741,0.10592
5151.59869,0.10528
5149.66997,0.10520
5147.74126,0.10604
5145.81254,0.10640
5143.88383,0.10675
5141.95511,0.10749
5140.02640,0.10711
5138.09768,0.10603
5136.16897,0.10629
5134.24025,0.10755
5132.31154,0.10864
5130.38282,0.10919
5128.45411,0.10851
5126.52539,0.10715
5124.59668,0.10694
5122.66796,0.10789
5120.73924,0.10873
5118.81053,0.10928
5116.88181,0.10913
5114.95310,0.10801
5113.02438,0.10720
5111.09567,0.10698
5109.16695,0.10641
5107.23824,0.10609
5105.30952,0.10656
5103.38081,0.10702
5101.45209,0.10731
5099.52338,0.10764
5097.59466,0.10728
5095.66595,0.10657
5093.73723,0.10692
5091.80851,0.10782
5089.87980,0.10844
5087.95108,0.10948
5086.02237,0.11006
5084.09365,0.10865
5082.16494,0.10631
5080.23622,0.10467
5078.30751,0.10444
5076.37879,0.10575
5074.45008,0.10766
5072.52136,0.10881
5070.59265,0.10898
5068.66393,0.10886
5066.73522,0.10854
5064.80650,0.10798
5062.87778,0.10803
5060.94907,0.10884
5059.02035,0.10935
5057.09164,0.10933
5055.16292,0.10936
5053.23421,0.10917
5051.30549,0.10841
5049.37678,0.10776
5047.44806,0.10776
5045.51935,0.10780
5043.59063,0.10749
5041.66192,0.10743
5039.73320,0.10760
5037.80448,0.10800
5035.87577,0.10857
5033.94705,0.10816
5032.01834,0.10692
5030.08962,0.10642
5028.16091,0.10678
5026.23219,0.10680
5024.30348,0.10573
5022.37476,0.10453
5020.44605,0.10458
5018.51733,0.10541
5016.58862,0.10567
5014.65990,0.10540
5012.73119,0.10500
5010.80247,0.10474
5008.87375,0.10521
5006.94504,0.10617
5005.01632,0.10672
5003.08761,0.10666
5001.15889,0.10576
4999.23018,0.10447
4997.30146,0.10478
4995.37275,0.10608
4993.44403,0.10583
4991.51532,0.10440
4989.58660,0.10304
4987.65789,0.10203
4985.72917,0.10164
4983.80046,0.10198
4981.87174,0.10305
4979.94302,0.10483
4978.01431,0.10658
4976.08559,0.10661
4974.15688,0.10471
4972.22816,0.10288
4970.29945,0.10245
4968.37073,0.10264
4966.44202,0.10233
4964.51330,0.10184
4962.58459,0.10227
4960.65587,0.10337
4958.72716,0.10389
4956.79844,0.10372
4954.86972,0.10345
4952.94101,0.10303
4951.01229,0.10279
4949.08358,0.10326
4947.15486,0.10396
4945.22615,0.10416
4943.29743,0.10376
4941.36872,0.10291
4939.44000,0.10208
4937.51129,0.10195
4935.58257,0.10190
4933.65386,0.10123
4931.72514,0.10041
4929.79643,0.09989
4927.86771,0.09965
4925.93899,0.09959
4924.01028,0.09938
4922.08156,0.09858
4920.15285,0.09727
4918.22413,0.09630
4916.29542,0.09584
4914.36670,0.09504
4912.43799,0.09382
4910.50927,0.09314
4908.58056,0.09336
4906.65184,0.09355
4904.72313,0.09271
4902.79441,0.09142
4900.86570,0.09075
4898.93698,0.09006
4897.00826,0.08850
4895.07955,0.08718
4893.15083,0.08735
4891.22212,0.08813
4889.29340,0.08822
4887.36469,0.08811
4885.43597,0.08827
4883.50726,0.08805
4881.57854,0.08787
4879.64983,0.08840
4877.72111,0.08848
4875.79240,0.08731
4873.86368,0.08631
4871.93497,0.08641
4870.00625,0.08699
4868.07753,0.08698
4866.14882,0.08576
4864.22010,0.08400
4862.29139,0.08302
4860.36267,0.08312
4858.43396,0.08348
4856.50524,0.08356
4854.57653,0.08289
4852.64781,0.08101
4850.71910,0.07915
4848.79038,0.07851
4846.86167,0.07874
4844.93295,0.07929
4843.00423,0.07963
4841.07552,0.07932
4839.14680,0.07894
4837.21809,0.07936
4835.28937,0.07987
4833.36066,0.08015
4831.43194,0.08101
4829.50323,0.08188
4827.57451,0.08191
4825.64580,0.08167
4823.71708,0.08140
4821.78837,0.08134
4819.85965,0.08210
4817.93094,0.08327
4816.00222,0.08383
4814.07350,0.08390
4812.14479,0.08392
4810.21607,0.08411
4808.28736,0.08457
4806.35864,0.08499
4804.42993,0.08538
4802.50121,0.08601
4800.57250,0.08631
4798.64378,0.08575
4796.71507,0.08448
4794.78635,0.08303
4792.85764,0.08217
4790.92892,0.08191
4789.00021,0.08143
4787.07149,0.08077
4785.14277,0.08028
4783.21406,0.08003
4781.28534,0.08011
4779.35663,0.08006
4777.42791,0.07922
4775.49920,0.07802
4773.57048,0.07744
4771.64177,0.07754
4769.71305,0.07736
4767.78434,0.07646
4765.85562,0.07516
4763.92691,0.07408
4761.99819,0.07376
4760.06948,0.07357
4758.14076,0.07276
4756.21204,0.07203
4754.28333,0.07167
4752.35461,0.07119
4750.42590,0.07069
4748.49718,0.07039
4746.56847,0.06975
4744.63975,0.06815
4742.71104,0.06638
4740.78232,0.06511
4738.85361,0.06372
4736.92489,0.06242
4734.99618,0.06161
4733.06746,0.06083
4731.13874,0.05975
4729.21003,0.05840
4727.28131,0.05690
4725.35260,0.05545
4723.42388,0.05491
4721.49517,0.05550
4719.56645,0.05578
4717.63774,0.05538
4715.70902,0.05523
4713.78031,0.05493
4711.85159,0.05375
4709.92288,0.05278
4707.99416,0.05282
4706.06545,0.05295
4704.13673,0.05280
4702.20801,0.05280
4700.27930,0.05267
4698.35058,0.05230
4696.42187,0.05201
4694.49315,0.05157
4692.56444,0.05112
4690.63572,0.05133
4688.70701,0.05193
4686.77829,0.05222
4684.84958,0.05227
4682.92086,0.05231
4680.99215,0.05249
4679.06343,0.05290
4677.13472,0.05295
4675.20600,0.05225
4673.27728,0.05161
4671.34857,0.05151
4669.41985,0.05149
4667.49114,0.05134
4665.56242,0.05156
4663.63371,0.05251
4661.70499,0.05367
4659.77628,0.05410
4657.84756,0.05377
4655.91885,0.05325
4653.99013,0.05281
4652.06142,0.05241
4650.13270,0.05210
4648.20398,0.05227
4646.27527,0.05277
4644.34655,0.05297
4642.41784,0.05275
4640.48912,0.05269
4638.56041,0.05295
4636.63169,0.05270
4634.70298,0.05184
4632.77426,0.05135
4630.84555,0.05178
4628.91683,0.05264
4626.98812,0.05306
4625.05940,0.05297
4623.13069,0.05301
4621.20197,0.05346
4619.27325,0.05414
4617.34454,0.05457
4615.41582,0.05474
4613.48711,0.05523
4611.55839,0.05595
4609.62968,0.05635
4607.70096,0.05669
4605.77225,0.05739
4603.84353,0.05800
4601.91482,0.05800
4599.98610,0.05747
4598.05739,0.05670
4596.12867,0.05616
4594.19996,0.05618
4592.27124,0.05648
4590.34252,0.05660
4588.41381,0.05609
4586.48509,0.05483
4584.55638,0.05378
4582.62766,0.05380
4580.69895,0.05428
4578.77023,0.05421
4576.84152,0.05412
4574.91280,0.05477
4572.98409,0.05552
4571.05537,0.05573
4569.12666,0.05572
4567.19794,0.05587
4565.26923,0.05618
4563.34051,0.05662
4561.41179,0.05743
4559.48308,0.05875
4557.55436,0.06028
4555.62565,0.06144
4553.69693,0.06213
4551.76822,0.06262
4549.83950,0.06299
4547.91079,0.06322
4545.98207,0.06322
4544.05336,0.06304
4542.12464,0.06300
4540.19593,0.06312
4538.26721,0.06319
4536.33849,0.06289
4534.40978,0.06242
4532.48106,0.06253
4530.55235,0.06291
4528.62363,0.06293
4526.69492,0.06287
4524.76620,0.06282
4522.83749,0.06241
4520.90877,0.06203
4518.98006,0.06191
4517.05134,0.06181
4515.12263,0.06197
4513.19391,0.06239
4511.26520,0.06231
4509.33648,0.06190
4507.40776,0.06209
4505.47905,0.06250
4503.55033,0.06222
4501.62162,0.06134
4499.69290,0.06048
4497.76419,0.06008
4495.83547,0.06014
4493.90676,0.05996
4491.97804,0.05915
4490.04933,0.05818
4488.12061,0.05733
4486.19190,0.05677
4484.26318,0.05663
4482.33447,0.05654
4480.40575,0.05630
4478.47703,0.05633
4476.54832,0.05701
4474.61960,0.05791
4472.69089,0.05851
4470.76217,0.05883
4468.83346,0.05888
4466.90474,0.05882
4464.97603,0.05888
4463.04731,0.05868
4461.11860,0.05792
4459.18988,0.05715
4457.26117,0.05721
4455.33245,0.05765
4453.40373,0.05713
4451.47502,0.05594
4449.54630,0.05537
4447.61759,0.05562
4445.68887,0.05597
4443.76016,0.05572
4441.83144,0.05501
4439.90273,0.05447
4437.97401,0.05422
4436.04530,0.05423
4434.11658,0.05439
4432.18787,0.05447
4430.25915,0.05438
4428.33044,0.05404
4426.40172,0.05346
4424.47300,0.05303
4422.54429,0.05306
4420.61557,0.05329
4418.68686,0.05344
4416.75814,0.05364
4414.82943,0.05396
4412.90071,0.05435
4410.97200,0.05476
4409.04328,0.05491
4407.11457,0.05453
4405.18585,0.05421
4403.25714,0.05437
4401.32842,0.05466
4399.39971,0.05502
4397.47099,0.05517
4395.54227,0.05472
4393.61356,0.05449
4391.68484,0.05506
4389.75613,0.05565
4387.82741,0.05573
4385.89870,0.05543
4383.96998,0.05508
4382.04127,0.05473
4380.11255,0.05425
4378.18384,0.05449
4376.25512,0.05546
4374.32641,0.05562
4372.39769,0.05508
4370.46898,0.05494
4368.54026,0.05516
4366.61154,0.05544
4364.68283,0.05569
4362.75411,0.05553
4360.82540,0.05473
4358.89668,0.05422
4356.96797,0.05479
4355.03925,0.05553
4353.11054,0.05533
4351.18182,0.05456
4349.25311,0.05397
4347.32439,0.05382
4345.39568,0.05419
4343.46696,0.05479
4341.53824,0.05486
4339.60953,0.05422
4337.68081,0.05380
4335.75210,0.05411
4333.82338,0.05451
4331.89467,0.05472
4329.96595,0.05519
4328.03724,0.05589
4326.10852,0.05602
4324.17981,0.05531
4322.25109,0.05472
4320.32238,0.05492
4318.39366,0.05537
4316.46495,0.05552
4314.53623,0.05539
4312.60751,0.05520
4310.67880,0.05516
4308.75008,0.05517
4306.82137,0.05524
4304.89265,0.05565
4302.96394,0.05610
4301.03522,0.05615
4299.10651,0.05609
4297.17779,0.05628
4295.24908,0.05648
4293.32036,0.05620
4291.39165,0.05537
4289.46293,0.05487
4287.53422,0.05520
4285.60550,0.05561
4283.67678,0.05568
4281.74807,0.05569
4279.81935,0.05564
4277.89064,0.05568
4275.96192,0.05600
4274.03321,0.05624
4272.10449,0.05614
4270.17578,0.05594
4268.24706,0.05588
4266.31835,0.05606
4264.38963,0.05661
4262.46092,0.05705
4260.53220,0.05677
4258.60348,0.05606
4256.67477,0.05561
4254.74605,0.05556
4252.81734,0.05565
4250.88862,0.05586
4248.95991,0.05615
4247.03119,0.05605
4245.10248,0.05569
4243.17376,0.05573
4241.24505,0.05607
4239.31633,0.05612
4237.38762,0.05570
4235.45890,0.05520
4233.53019,0.05533
4231.60147,0.05610
4229.67275,0.05657
4227.74404,0.05629
4225.81532,0.05589
4223.88661,0.05594
4221.95789,0.05619
4220.02918,0.05641
4218.10046,0.05674
4216.17175,0.05691
4214.24303,0.05650
4212.31432,0.05584
4210.38560,0.05541
4208.45689,0.05533
4206.52817,0.05552
4204.59946,0.05578
4202.67074,0.05588
4200.74202,0.05578
4198.81331,0.05558
4196.88459,0.05548
4194.95588,0.05557
4193.02716,0.05553
4191.09845,0.05525
4189.16973,0.05531
4187.24102,0.05561
4185.31230,0.05556
4183.38359,0.05546
4181.45487,0.05580
4179.52616,0.05618
4177.59744,0.05613
4175.66873,0.05592
4173.74001,0.05590
4171.81129,0.05601
4169.88258,0.05635
4167.95386,0.05658
4166.02515,0.05637
4164.09643,0.05632
4162.16772,0.05654
4160.23900,0.05638
4158.31029,0.05596
4156.38157,0.05583
4154.45286,0.05601
4152.52414,0.05612
4150.59543,0.05586
4148.66671,0.05537
4146.73799,0.05511
4144.80928,0.05526
4142.88056,0.05580
4140.95185,0.05634
4139.02313,0.05639
4137.09442,0.05624
4135.16570,0.05636
4133.23699,0.05666
4131.30827,0.05670
4129.37956,0.05625
4127.45084,0.05578
4125.52213,0.05575
4123.59341,0.05606
4121.66470,0.05644
4119.73598,0.05665
4117.80726,0.05667
4115.87855,0.05674
4113.94983,0.05683
4112.02112,0.05661
4110.09240,0.05631
4108.16369,0.05637
4106.23497,0.05665
4104.30626,0.05677
4102.37754,0.05679
4100.44883,0.05692
4098.52011,0.05691
4096.59140,0.05665
4094.66268,0.05637
4092.73397,0.05606
4090.80525,0.05570
4088.87653,0.05576
4086.94782,0.05645
4085.01910,0.05691
4083.09039,0.05660
4081.16167,0.05613
4079.23296,0.05587
4077.30424,0.05571
4075.37553,0.05571
4073.44681,0.05586
4071.51810,0.05618
4069.58938,0.05677
4067.66067,0.05720
4065.73195,0.05720
4063.80323,0.05703
4061.87452,0.05688
4059.94580,0.05678
4058.01709,0.05666
4056.08837,0.05673
4054.15966,0.05703
4052.23094,0.05731
4050.30223,0.05755
4048.37351,0.05773
4046.44480,0.05782
4044.51608,0.05779
4042.58737,0.05748
4040.65865,0.05685
4038.72994,0.05629
4036.80122,0.05634
4034.87250,0.05689
4032.94379,0.05729
4031.01507,0.05717
4029.08636,0.05673
4027.15764,0.05631
4025.22893,0.05609
4023.30021,0.05630
4021.37150,0.05688
4019.44278,0.05731
4017.51407,0.05715
4015.58535,0.05670
4013.65664,0.05655
4011.72792,0.05679
4009.79921,0.05711
4007.87049,0.05718
4005.94177,0.05699
4004.01306,0.05690
4002.08434,0.05690
4000.15563,0.05699
3998.22691,0.05726
3996.29820,0.05731
3994.36948,0.05700
3992.44077,0.05674
3990.51205,0.05688
3988.58334,0.05719
3986.65462,0.05710
3984.72591,0.05674
3982.79719,0.05663
3980.86848,0.05670
3978.93976,0.05686
3977.01104,0.05730
3975.08233,0.05785
3973.15361,0.05828
3971.22490,0.05865
3969.29618,0.05863
3967.36747,0.05806
3965.43875,0.05759
3963.51004,0.05765
3961.58132,0.05781
3959.65261,0.05774
3957.72389,0.05760
3955.79518,0.05752
3953.86646,0.05750
3951.93774,0.05758
3950.00903,0.05776
3948.08031,0.05785
3946.15160,0.05761
3944.22288,0.05731
3942.29417,0.05729
3940.36545,0.05737
3938.43674,0.05749
3936.50802,0.05765
3934.57931,0.05751
3932.65059,0.05708
3930.72188,0.05682
3928.79316,0.05710
3926.86445,0.05765
3924.93573,0.05787
3923.00701,0.05756
3921.07830,0.05717
3919.14958,0.05712
3917.22087,0.05727
3915.29215,0.05731
3913.36344,0.05728
3911.43472,0.05732
3909.50601,0.05760
3907.57729,0.05791
3905.64858,0.05797
3903.71986,0.05795
3901.79115,0.05781
3899.86243,0.05738
3897.93372,0.05699
3896.00500,0.05691
3894.07628,0.05690
3892.14757,0.05673
3890.21885,0.05677
3888.29014,0.05718
3886.36142,0.05747
3884.43271,0.05725
3882.50399,0.05665
3880.57528,0.05655
3878.64656,0.05730
3876.71785,0.05782
3874.78913,0.05791
3872.86042,0.05792
3870.93170,0.05781
3869.00298,0.05786
3867.07427,0.05792
3865.14555,0.05765
3863.21684,0.05770
3861.28812,0.05832
3859.35941,0.05875
3857.43069,0.05861
3855.50198,0.05792
3853.57326,0.05740
3851.64455,0.05824
3849.71583,0.05910
3847.78712,0.05933
3845.85840,0.05923
3843.92969,0.05909
3842.00097,0.05867
3840.07225,0.05782
3838.14354,0.05774
3836.21482,0.05879
3834.28611,0.05924
3832.35739,0.05886
3830.42868,0.05870
3828.49996,0.05903
3826.57125,0.05950
3824.64253,0.05975
3822.71382,0.05956
3820.78510,0.05939
3818.85639,0.05938
3816.92767,0.05884
3814.99896,0.05836
3813.07024,0.05842
3811.14152,0.05839
3809.21281,0.05822
3807.28409,0.05836
3805.35538,0.05885
3803.42666,0.05912
3801.49795,0.05935
3799.56923,0.05976
3797.64052,0.05987
3795.71180,0.05987
3793.78309,0.06004
3791.85437,0.06016
3789.92566,0.06027
3787.99694,0.06039
3786.06823,0.06031
3784.13951,0.06013
3782.21079,0.06008
3780.28208,0.06025
3778.35336,0.06042
3776.42465,0.06028
3774.49593,0.05992
3772.56722,0.05943
3770.63850,0.05902
3768.70979,0.05904
3766.78107,0.05925
3764.85236,0.05909
3762.92364,0.05864
3760.99493,0.05835
3759.06621,0.05835
3757.13749,0.05863
3755.20878,0.05892
3753.28006,0.05887
3751.35135,0.05869
3749.42263,0.05883
3747.49392,0.05877
3745.56520,0.05858
3743.63649,0.05890
3741.70777,0.05924
3739.77906,0.05889
3737.85034,0.05816
3735.92163,0.05788
3733.99291,0.05849
3732.06420,0.05930
3730.13548,0.05976
3728.20676,0.05970
3726.27805,0.05918
3724.34933,0.05879
3722.42062,0.05884
3720.49190,0.05886
3718.56319,0.05882
3716.63447,0.05885
3714.70576,0.05875
3712.77704,0.05828
3710.84833,0.05783
3708.91961,0.05777
3706.99090,0.05796
3705.06218,0.05828
3703.13347,0.05854
3701.20475,0.05862
3699.27603,0.05863
3697.34732,0.05855
3695.41860,0.05836
3693.48989,0.05816
3691.56117,0.05784
3689.63246,0.05741
3687.70374,0.05759
3685.77503,0.05812
3683.84631,0.05850
3681.91760,0.05865
3679.98888,0.05846
3678.06017,0.05791
3676.13145,0.05711
3674.20273,0.05712
3672.27402,0.05804
3670.34530,0.05881
3668.41659,0.05890
3666.48787,0.05871
3664.55916,0.05864
3662.63044,0.05858
3660.70173,0.05835
3658.77301,0.05805
3656.84430,0.05798
3654.91558,0.05816
3652.98687,0.05811
3651.05815,0.05765
3649.12944,0.05765
3647.20072,0.05845
3645.27200,0.05870
3643.34329,0.05841
3641.41457,0.05814
3639.48586,0.05817
3637.55714,0.05833
3635.62843,0.05820
3633.69971,0.05763
3631.77100,0.05681
3629.84228,0.05617
3627.91357,0.05671
3625.98485,0.05776
3624.05614,0.05807
3622.12742,0.05781
3620.19871,0.05762
3618.26999,0.05794
3616.34127,0.05804
3614.41256,0.05742
3612.48384,0.05687
3610.55513,0.05701
3608.62641,0.05761
3606.69770,0.05823
3604.76898,0.05852
3602.84027,0.05845
3600.91155,0.05812
3598.98284,0.05793
3597.05412,0.05805
3595.12541,0.05782
3593.19669,0.05722
3591.26798,0.05694
3589.33926,0.05684
3587.41054,0.05669
3585.48183,0.05680
3583.55311,0.05703
3581.62440,0.05711
3579.69568,0.05728
3577.76697,0.05766
3575.83825,0.05779
3573.90954,0.05739
3571.98082,0.05699
3570.05211,0.05703
3568.12339,0.05733
3566.19468,0.05762
3564.26596,0.05774
3562.33724,0.05761
3560.40853,0.05739
3558.47981,0.05716
3556.55110,0.05702
3554.62238,0.05725
3552.69367,0.05773
3550.76495,0.05779
3548.83624,0.05733
3546.90752,0.05709
3544.97881,0.05743
3543.05009,0.05764
3541.12138,0.05755
3539.19266,0.05771
3537.26395,0.05807
3535.33523,0.05821
3533.40651,0.05839
3531.47780,0.05862
3529.54908,0.05842
3527.62037,0.05789
3525.69165,0.05750
3523.76294,0.05747
3521.83422,0.05759
3519.90551,0.05741
3517.97679,0.05718
3516.04808,0.05728
3514.11936,0.05764
3512.19065,0.05801
3510.26193,0.05821
3508.33322,0.05816
3506.40450,0.05781
3504.47578,0.05720
3502.54707,0.05675
3500.61835,0.05680
3498.68964,0.05722
3496.76092,0.05774
3494.83221,0.05809
3492.90349,0.05799
3490.97478,0.05728
3489.04606,0.05663
3487.11735,0.05688
3485.18863,0.05759
3483.25992,0.05785
3481.33120,0.05787
3479.40248,0.05813
3477.47377,0.05835
3475.54505,0.05821
3473.61634,0.05781
3471.68762,0.05737
3469.75891,0.05715
3467.83019,0.05732
3465.90148,0.05764
3463.97276,0.05796
3462.04405,0.05820
3460.11533,0.05801
3458.18662,0.05757
3456.25790,0.05748
3454.32919,0.05775
3452.40047,0.05801
3450.47175,0.05815
3448.54304,0.05827
3446.61432,0.05845
3444.68561,0.05867
3442.75689,0.05880
3440.82818,0.05870
3438.89946,0.05857
3436.97075,0.05875
3435.04203,0.05914
3433.11332,0.05942
3431.18460,0.05950
3429.25589,0.05932
3427.32717,0.05885
3425.39846,0.05858
3423.46974,0.05898
3421.54102,0.05971
3419.61231,0.06019
3417.68359,0.06028
3415.75488,0.05998
3413.82616,0.05949
3411.89745,0.05904
3409.96873,0.05881
3408.04002,0.05908
3406.11130,0.05969
3404.18259,0.05986
3402.25387,0.05946
3400.32516,0.05910
3398.39644,0.05879
3396.46773,0.05837
3394.53901,0.05838
3392.61029,0.05893
3390.68158,0.05920
3388.75286,0.05885
3386.82415,0.05835
3384.89543,0.05793
3382.96672,0.05765
3381.03800,0.05781
3379.10929,0.05815
3377.18057,0.05804
3375.25186,0.05764
3373.32314,0.05766
3371.39443,0.05811
3369.46571,0.05846
3367.53699,0.05844
3365.60828,0.05821
3363.67956,0.05803
3361.75085,0.05796
3359.82213,0.05789
3357.89342,0.05794
3355.96470,0.05823
3354.03599,0.05864
3352.10727,0.05890
3350.17856,0.05882
3348.24984,0.05854
3346.32113,0.05840
3344.39241,0.05843
3342.46370,0.05839
3340.53498,0.05825
3338.60626,0.05799
3336.67755,0.05771
3334.74883,0.05766
3332.82012,0.05782
3330.89140,0.05790
3328.96269,0.05776
3327.03397,0.05749
3325.10526,0.05717
3323.17654,0.05707
3321.24783,0.05741
3319.31911,0.05769
3317.39040,0.05726
3315.46168,0.05662
3313.53297,0.05662
3311.60425,0.05718
3309.67553,0.05775
3307.74682,0.05814
3305.81810,0.05838
3303.88939,0.05834
3301.96067,0.05794
3300.03196,0.05738
3298.10324,0.05706
3296.17453,0.05716
3294.24581,0.05751
3292.31710,0.05786
3290.38838,0.05821
3288.45967,0.05849
3286.53095,0.05825
3284.60223,0.05750
3282.67352,0.05698
3280.74480,0.05709
3278.81609,0.05745
3276.88737,0.05760
3274.95866,0.05753
3273.02994,0.05756
3271.10123,0.05758
3269.17251,0.05726
3267.24380,0.05705
3265.31508,0.05727
3263.38637,0.05749
3261.45765,0.05764
3259.52894,0.05791
3257.60022,0.05821
3255.67150,0.05834
3253.74279,0.05810
3251.81407,0.05751
3249.88536,0.05720
3247.95664,0.05735
3246.02793,0.05744
3244.09921,0.05742
3242.17050,0.05757
3240.24178,0.05758
3238.31307,0.05733
3236.38435,0.05744
3234.45564,0.05794
3232.52692,0.05828
3230.59821,0.05856
3228.66949,0.05875
3226.74077,0.05855
3224.81206,0.05826
3222.88334,0.05828
3220.95463,0.05825
3219.02591,0.05795
3217.09720,0.05787
3215.16848,0.05801
3213.23977,0.05810
3211.31105,0.05828
3209.38234,0.05845
3207.45362,0.05875
3205.52491,0.05924
3203.59619,0.05922
3201.66748,0.05859
3199.73876,0.05818
3197.81004,0.05822
3195.88133,0.05822
3193.95261,0.05812
3192.02390,0.05829
3190.09518,0.05869
3188.16647,0.05892
3186.23775,0.05878
3184.30904,0.05843
3182.38032,0.05819
3180.45161,0.05815
3178.52289,0.05821
3176.59418,0.05825
3174.66546,0.05814
3172.73674,0.05802
3170.80803,0.05816
3168.87931,0.05847
3166.95060,0.05873
3165.02188,0.05896
3163.09317,0.05910
3161.16445,0.05903
3159.23574,0.05885
3157.30702,0.05884
3155.37831,0.05881
3153.44959,0.05827
3151.52088,0.05760
3149.59216,0.05760
3147.66345,0.05823
3145.73473,0.05886
3143.80601,0.05908
3141.87730,0.05893
3139.94858,0.05862
3138.01987,0.05837
3136.09115,0.05825
3134.16244,0.05810
3132.23372,0.05785
3130.30501,0.05774
3128.37629,0.05808
3126.44758,0.05855
3124.51886,0.05862
3122.59015,0.05861
3120.66143,0.05882
3118.73272,0.05882
3116.80400,0.05847
3114.87528,0.05834
3112.94657,0.05868
3111.01785,0.05889
3109.08914,0.05861
3107.16042,0.05806
3105.23171,0.05765
3103.30299,0.05757
3101.37428,0.05773
3099.44556,0.05787
3097.51685,0.05793
3095.58813,0.05798
3093.65942,0.05807
3091.73070,0.05816
3089.80198,0.05815
3087.87327,0.05811
3085.94455,0.05819
3084.01584,0.05832
3082.08712,0.05829
3080.15841,0.05815
3078.22969,0.05800
3076.30098,0.05791
3074.37226,0.05795
3072.44355,0.05808
3070.51483,0.05827
3068.58612,0.05851
3066.65740,0.05853
3064.72869,0.05828
3062.79997,0.05818
3060.87125,0.05842
3058.94254,0.05876
3057.01382,0.05886
3055.08511,0.05857
3053.15639,0.05825
3051.22768,0.05815
3049.29896,0.05814
3047.37025,0.05831
3045.44153,0.05854
3043.51282,0.05848
3041.58410,0.05842
3039.65539,0.05855
3037.72667,0.05860
3035.79796,0.05857
3033.86924,0.05857
3031.94052,0.05866
3030.01181,0.05875
3028.08309,0.05871
3026.15438,0.05874
3024.22566,0.05892
3022.29695,0.05891
3020.36823,0.05870
3018.43952,0.05851
3016.51080,0.05823
3014.58209,0.05790
3012.65337,0.05777
3010.72466,0.05784
3008.79594,0.05800
3006.86723,0.05822
3004.93851,0.05830
3003.00979,0.05811
3001.08108,0.05790
2999.15236,0.05784
2997.22365,0.05776
2995.29493,0.05762
2993.36622,0.05753
2991.43750,0.05742
2989.50879,0.05728
2987.58007,0.05730
2985.65136,0.05742
2983.72264,0.05744
2981.79393,0.05738
2979.86521,0.05746
2977.93649,0.05757
2976.00778,0.05757
2974.07906,0.05770
2972.15035,0.05796
2970.22163,0.05818
2968.29292,0.05859
2966.36420,0.05937
2964.43549,0.06014
2962.50677,0.06053
2960.57806,0.06069
2958.64934,0.06094
2956.72063,0.06129
2954.79191,0.06142
2952.86320,0.06121
2950.93448,0.06082
2949.00576,0.06041
2947.07705,0.06008
2945.14833,0.05996
2943.21962,0.06005
2941.29090,0.06022
2939.36219,0.06034
2937.43347,0.06030
2935.50476,0.06018
2933.57604,0.06000
2931.64733,0.05982
2929.71861,0.05989
2927.78990,0.06007
2925.86118,0.06001
2923.93247,0.05998
2922.00375,0.06040
2920.07503,0.06087
2918.14632,0.06095
2916.21760,0.06082
2914.28889,0.06074
2912.36017,0.06071
2910.43146,0.06065
2908.50274,0.06054
2906.57403,0.06042
2904.64531,0.06021
2902.71660,0.05994
2900.78788,0.05985
2898.85917,0.05992
2896.93045,0.05991
2895.00173,0.05970
2893.07302,0.05945
2891.14430,0.05947
2889.21559,0.05974
2887.28687,0.05989
2885.35816,0.06000
2883.42944,0.06024
2881.50073,0.06043
2879.57201,0.06037
2877.64330,0.06021
2875.71458,0.06029
2873.78587,0.06043
2871.85715,0.06020
2869.92844,0.06008
2867.99972,0.06049
2866.07100,0.06095
2864.14229,0.06098
2862.21357,0.06093
2860.28486,0.06098
2858.35614,0.06072
2856.42743,0.06035
2854.49871,0.06049
2852.57000,0.06086
2850.64128,0.06091
2848.71257,0.06064
2846.78385,0.06031
2844.85514,0.06012
2842.92642,0.06007
2840.99771,0.06013
2839.06899,0.06026
2837.14027,0.06028
2835.21156,0.06014
2833.28284,0.06004
2831.35413,0.06018
2829.42541,0.06040
2827.49670,0.06029
2825.56798,0.05998
2823.63927,0.05994
2821.71055,0.06015
2819.78184,0.06023
2817.85312,0.06023
2815.92441,0.06035
2813.99569,0.06047
2812.06698,0.06044
2810.13826,0.06046
2808.20954,0.06065
2806.28083,0.06071
2804.35211,0.06052
2802.42340,0.06032
2800.49468,0.06022
2798.56597,0.06015
2796.63725,0.06008
2794.70854,0.06011
2792.77982,0.06029
2790.85111,0.06041
2788.92239,0.06038
2786.99368,0.06033
2785.06496,0.06024
2783.13624,0.06022
2781.20753,0.06041
2779.27881,0.06070
2777.35010,0.06085
2775.42138,0.06068
2773.49267,0.06035
2771.56395,0.06025
2769.63524,0.06036
2767.70652,0.06030
2765.77781,0.06011
2763.84909,0.06001
2761.92038,0.06001
2759.99166,0.06006
2758.06295,0.06003
2756.13423,0.05996
2754.20551,0.06013
2752.27680,0.06038
2750.34808,0.06046
2748.41937,0.06051
2746.49065,0.06051
2744.56194,0.06029
2742.63322,0.06010
2740.70451,0.06020
2738.77579,0.06035
2736.84708,0.06029
2734.91836,0.06014
2732.98965,0.06017
2731.06093,0.06030
2729.13222,0.06039
2727.20350,0.06042
2725.27478,0.06044
2723.34607,0.06052
2721.41735,0.06070
2719.48864,0.06086
2717.55992,0.06082
2715.63121,0.06072
2713.70249,0.06064
2711.77378,0.06047
2709.84506,0.06037
2707.91635,0.06051
2705.98763,0.06063
2704.05892,0.06065
2702.13020,0.06066
2700.20149,0.06067
2698.27277,0.06056
2696.34405,0.06029
2694.41534,0.06010
2692.48662,0.06021
2690.55791,0.06046
2688.62919,0.06056
2686.70048,0.06050
2684.77176,0.06044
2682.84305,0.06047
2680.91433,0.06048
2678.98562,0.06036
2677.05690,0.06025
2675.12819,0.06034
2673.19947,0.06064
2671.27075,0.06087
2669.34204,0.06078
2667.41332,0.06045
2665.48461,0.06028
2663.55589,0.06037
2661.62718,0.06051
2659.69846,0.06061
2657.76975,0.06063
2655.84103,0.06041
2653.91232,0.06010
2651.98360,0.06006
2650.05489,0.06028
2648.12617,0.06046
2646.19746,0.06042
2644.26874,0.06028
2642.34002,0.06035
2640.41131,0.06048
2638.48259,0.06030
2636.55388,0.06007
2634.62516,0.06010
2632.69645,0.06007
2630.76773,0.05981
2628.83902,0.05967
2626.91030,0.05980
2624.98159,0.06003
2623.05287,0.06028
2621.12416,0.06053
2619.19544,0.06069
2617.26673,0.06068
2615.33801,0.06055
2613.40929,0.06046
2611.48058,0.06038
2609.55186,0.06025
2607.62315,0.06020
2605.69443,0.06030
2603.76572,0.06048
2601.83700,0.06050
2599.90829,0.06029
2597.97957,0.06013
2596.05086,0.06014
2594.12214,0.06018
2592.19343,0.06019
2590.26471,0.06005
2588.33599,0.05984
2586.40728,0.05988
2584.47856,0.06021
2582.54985,0.06050
2580.62113,0.06055
2578.69242,0.06040
2576.76370,0.06020
2574.83499,0.06005
2572.90627,0.05994
2570.97756,0.05993
2569.04884,0.06007
2567.12013,0.06031
2565.19141,0.06054
2563.26270,0.06063
2561.33398,0.06060
2559.40526,0.06059
2557.47655,0.06056
2555.54783,0.06040
2553.61912,0.06026
2551.69040,0.06036
2549.76169,0.06053
2547.83297,0.06044
2545.90426,0.06017
2543.97554,0.06003
2542.04683,0.06009
2540.11811,0.06017
2538.18940,0.06023
2536.26068,0.06029
2534.33197,0.06017
2532.40325,0.05986
2530.47453,0.05973
2528.54582,0.05991
2526.61710,0.06018
2524.68839,0.06045
2522.75967,0.06066
2520.83096,0.06066
2518.90224,0.06046
2516.97353,0.06030
2515.04481,0.06029
2513.11610,0.06041
2511.18738,0.06054
2509.25867,0.06064
2507.32995,0.06068
2505.40124,0.06054
2503.47252,0.06032
2501.54380,0.06019
2499.61509,0.06020
2497.68637,0.06026
2495.75766,0.06038
2493.82894,0.06055
2491.90023,0.06075
2489.97151,0.06078
2488.04280,0.06058
2486.11408,0.06035
2484.18537,0.06032
2482.25665,0.06046
2480.32794,0.06056
2478.39922,0.06050
2476.47050,0.06035
2474.54179,0.06030
2472.61307,0.06042
2470.68436,0.06052
2468.75564,0.06049
2466.82693,0.06044
2464.89821,0.06044
2462.96950,0.06049
2461.04078,0.06065
2459.11207,0.06074
2457.18335,0.06056
2455.25464,0.06034
2453.32592,0.06032
2451.39721,0.06047
2449.46849,0.06062
2447.53977,0.06070
2445.61106,0.06077
2443.68234,0.06091
2441.75363,0.06092
2439.82491,0.06073
2437.89620,0.06061
2435.96748,0.06060
2434.03877,0.06061
2432.11005,0.06068
2430.18134,0.06084
2428.25262,0.06091
2426.32391,0.06088
2424.39519,0.06089
2422.46648,0.06079
2420.53776,0.06057
2418.60904,0.06055
2416.68033,0.06061
2414.75161,0.06053
2412.82290,0.06052
2410.89418,0.06060
2408.96547,0.06054
2407.03675,0.06039
2405.10804,0.06038
2403.17932,0.06049
2401.25061,0.06060
2399.32189,0.06074
2397.39318,0.06082
2395.46446,0.06081
2393.53574,0.06086
2391.60703,0.06096
2389.67831,0.06094
2387.74960,0.06095
2385.82088,0.06110
2383.89217,0.06117
2381.96345,0.06101
2380.03474,0.06080
2378.10602,0.06085
2376.17731,0.06127
2374.24859,0.06167
2372.31988,0.06160
2370.39116,0.06123
2368.46245,0.06095
2366.53373,0.06080
2364.60501,0.06078
2362.67630,0.06085
2360.74758,0.06065
2358.81887,0.06044
2356.89015,0.06072
2354.96144,0.06100
2353.03272,0.06096
2351.10401,0.06094
2349.17529,0.06102
2347.24658,0.06107
2345.31786,0.06091
2343.38915,0.06069
2341.46043,0.06072
2339.53172,0.06081
2337.60300,0.06067
2335.67428,0.06046
2333.74557,0.06054
2331.81685,0.06096
2329.88814,0.06131
2327.95942,0.06124
2326.03071,0.06084
2324.10199,0.06043
2322.17328,0.06035
2320.24456,0.06061
2318.31585,0.06082
2316.38713,0.06072
2314.45842,0.06047
2312.52970,0.06036
2310.60099,0.06038
2308.67227,0.06041
2306.74355,0.06046
2304.81484,0.06057
2302.88612,0.06069
2300.95741,0.06070
2299.02869,0.06062
2297.09998,0.06067
2295.17126,0.06087
2293.24255,0.06098
2291.31383,0.06084
2289.38512,0.06067
2287.45640,0.06067
2285.52769,0.06070
2283.59897,0.06067
2281.67025,0.06057
2279.74154,0.06037
2277.81282,0.06019
2275.88411,0.06015
2273.95539,0.06014
2272.02668,0.06021
2270.09796,0.06045
2268.16925,0.06070
2266.24053,0.06076
2264.31182,0.06064
2262.38310,0.06043
2260.45439,0.06027
2258.52567,0.06030
2256.59696,0.06037
2254.66824,0.06030
2252.73952,0.06025
2250.81081,0.06032
2248.88209,0.06038
2246.95338,0.06036
2245.02466,0.06038
2243.09595,0.06049
2241.16723,0.06058
2239.23852,0.06060
2237.30980,0.06051
2235.38109,0.06043
2233.45237,0.06049
2231.52366,0.06053
2229.59494,0.06049
2227.66623,0.06052
2225.73751,0.06051
2223.80879,0.06043
2221.88008,0.06045
2219.95136,0.06053
2218.02265,0.06056
2216.09393,0.06063
2214.16522,0.06077
2212.23650,0.06077
2210.30779,0.06060
2208.37907,0.06048
2206.45036,0.06045
2204.52164,0.06048
2202.59293,0.06057
2200.66421,0.06063
2198.73549,0.06055
2196.80678,0.06040
2194.87806,0.06032
2192.94935,0.06028
2191.02063,0.06034
2189.09192,0.06049
2187.16320,0.06046
2185.23449,0.06036
2183.30577,0.06049
2181.37706,0.06073
2179.44834,0.06076
2177.51963,0.06060
2175.59091,0.06039
2173.66220,0.06030
2171.73348,0.06039
2169.80476,0.06049
2167.87605,0.06046
2165.94733,0.06038
2164.01862,0.06040
2162.08990,0.06045
2160.16119,0.06036
2158.23247,0.06020
2156.30376,0.06014
2154.37504,0.06023
2152.44633,0.06031
2150.51761,0.06030
2148.58890,0.06029
2146.66018,0.06033
2144.73147,0.06031
2142.80275,0.06025
2140.87403,0.06028
2138.94532,0.06039
2137.01660,0.06052
2135.08789,0.06053
2133.15917,0.06027
2131.23046,0.05996
2129.30174,0.05983
2127.37303,0.05978
2125.44431,0.05974
2123.51560,0.05987
2121.58688,0.06014
2119.65817,0.06028
2117.72945,0.06026
2115.80074,0.06022
2113.87202,0.06022
2111.94330,0.06031
2110.01459,0.06035
2108.08587,0.06015
2106.15716,0.05984
2104.22844,0.05967
2102.29973,0.05970
2100.37101,0.05983
2098.44230,0.05983
2096.51358,0.05973
2094.58487,0.05971
2092.65615,0.05969
2090.72744,0.05963
2088.79872,0.05966
2086.87000,0.05968
2084.94129,0.05959
2083.01257,0.05954
2081.08386,0.05967
2079.15514,0.05989
2077.22643,0.06006
2075.29771,0.06012
2073.36900,0.06012
2071.44028,0.05997
2069.51157,0.05967
2067.58285,0.05955
2065.65414,0.05971
2063.72542,0.05982
2061.79671,0.05983
2059.86799,0.05988
2057.93927,0.05989
2056.01056,0.05976
2054.08184,0.05966
2052.15313,0.05972
2050.22441,0.05986
2048.29570,0.05998
2046.36698,0.06010
2044.43827,0.06021
2042.50955,0.06021
2040.58084,0.06004
2038.65212,0.05975
2036.72341,0.05951
2034.79469,0.05948
2032.86598,0.05955
2030.93726,0.05957
2029.00854,0.05958
2027.07983,0.05956
2025.15111,0.05952
2023.22240,0.05960
2021.29368,0.05965
2019.36497,0.05956
2017.43625,0.05958
2015.50754,0.05971
2013.57882,0.05975
2011.65011,0.05978
2009.72139,0.05988
2007.79268,0.05999
2005.86396,0.05998
2003.93524,0.05968
2002.00653,0.05926
2000.07781,0.05913
1998.14910,0.05925
1996.22038,0.05941
1994.29167,0.05956
1992.36295,0.05960
1990.43424,0.05947
1988.50552,0.05941
1986.57681,0.05947
1984.64809,0.05948
1982.71938,0.05934
1980.79066,0.05908
1978.86195,0.05889
1976.93323,0.05893
1975.00451,0.05913
1973.07580,0.05926
1971.14708,0.05914
1969.21837,0.05894
1967.28965,0.05889
1965.36094,0.05889
1963.43222,0.05878
1961.50351,0.05866
1959.57479,0.05869
1957.64608,0.05880
1955.71736,0.05877
1953.78865,0.05872
1951.85993,0.05875
1949.93122,0.05872
1948.00250,0.05860
1946.07378,0.05857
1944.14507,0.05861
1942.21635,0.05854
1940.28764,0.05838
1938.35892,0.05828
1936.43021,0.05822
1934.50149,0.05817
1932.57278,0.05814
1930.64406,0.05811
1928.71535,0.05813
1926.78663,0.05823
1924.85792,0.05833
1922.92920,0.05834
1921.00049,0.05830
1919.07177,0.05826
1917.14305,0.05812
1915.21434,0.05789
1913.28562,0.05779
1911.35691,0.05785
1909.42819,0.05786
1907.49948,0.05770
1905.57076,0.05764
1903.64205,0.05769
1901.71333,0.05765
1899.78462,0.05761
1897.85590,0.05763
1895.92719,0.05758
1893.99847,0.05763
1892.06975,0.05780
1890.14104,0.05781
1888.21232,0.05771
1886.28361,0.05760
1884.35489,0.05742
1882.42618,0.05728
1880.49746,0.05725
1878.56875,0.05720
1876.64003,0.05708
1874.71132,0.05692
1872.78260,0.05678
1870.85389,0.05667
1868.92517,0.05654
1866.99646,0.05641
1865.06774,0.05633
1863.13902,0.05631
1861.21031,0.05629
1859.28159,0.05625
1857.35288,0.05612
1855.42416,0.05597
1853.49545,0.05597
1851.56673,0.05604
1849.63802,0.05591
1847.70930,0.05564
1845.78059,0.05541
1843.85187,0.05510
1841.92316,0.05468
1839.99444,0.05445
1838.06573,0.05439
1836.13701,0.05435
1834.20829,0.05429
1832.27958,0.05410
1830.35086,0.05372
1828.42215,0.05345
1826.49343,0.05328
1824.56472,0.05282
1822.63600,0.05213
1820.70729,0.05149
1818.77857,0.05102
1816.84986,0.05070
1814.92114,0.05035
1812.99243,0.04982
1811.06371,0.04923
1809.13499,0.04878
1807.20628,0.04825
1805.27756,0.04737
1803.34885,0.04621
1801.42013,0.04505
1799.49142,0.04403
1797.56270,0.04311
1795.63399,0.04227
1793.70527,0.04169
1791.77656,0.04179
1789.84784,0.04277
1787.91913,0.04435
1785.99041,0.04680
1784.06170,0.05041
1782.13298,0.05499
1780.20426,0.06038
1778.27555,0.06592
1776.34683,0.07092
1774.41812,0.07561
1772.48940,0.08078
1770.56069,0.08534
1768.63197,0.08760
1766.70326,0.08813
1764.77454,0.08767
1762.84583,0.08613
1760.91711,0.08340
1758.98840,0.08066
1757.05968,0.07838
1755.13097,0.07656
1753.20225,0.07519
1751.27353,0.07376
1749.34482,0.07218
1747.41610,0.07096
1745.48739,0.07012
1743.55867,0.06949
1741.62996,0.06897
1739.70124,0.06834
1737.77253,0.06771
1735.84381,0.06726
1733.91510,0.06690
1731.98638,0.06662
1730.05767,0.06629
1728.12895,0.06593
1726.20024,0.06567
1724.27152,0.06534
1722.34280,0.06490
1720.41409,0.06458
1718.48537,0.06430
1716.55666,0.06393
1714.62794,0.06381
1712.69923,0.06385
1710.77051,0.06369
1708.84180,0.06326
1706.91308,0.06295
1704.98437,0.06304
1703.05565,0.06299
1701.12694,0.06243
1699.19822,0.06204
1697.26950,0.06215
1695.34079,0.06197
1693.41207,0.06169
1691.48336,0.06158
1689.55464,0.06145
1687.62593,0.06129
1685.69721,0.06102
1683.76850,0.06065
1681.83978,0.06060
1679.91107,0.06068
1677.98235,0.06062
1676.05364,0.06053
1674.12492,0.06054
1672.19621,0.06058
1670.26749,0.06040
1668.33877,0.05994
1666.41006,0.05969
1664.48134,0.05966
1662.55263,0.05956
1660.62391,0.05934
1658.69520,0.05934
1656.76648,0.05968
1654.83777,0.06021
1652.90905,0.06026
1650.98034,0.05983
1649.05162,0.05962
1647.12291,0.05939
1645.19419,0.05926
1643.26548,0.05929
1641.33676,0.05919
1639.40804,0.05904
1637.47933,0.05899
1635.55061,0.05895
1633.62190,0.05899
1631.69318,0.05907
1629.76447,0.05900
1627.83575,0.05885
1625.90704,0.05872
1623.97832,0.05859
1622.04961,0.05847
1620.12089,0.05843
1618.19218,0.05841
1616.26346,0.05809
1614.33474,0.05762
1612.40603,0.05742
1610.47731,0.05742
1608.54860,0.05738
1606.61988,0.05735
1604.69117,0.05758
1602.76245,0.05798
1600.83374,0.05814
1598.90502,0.05798
1596.97631,0.05788
1595.04759,0.05810
1593.11888,0.05832
1591.19016,0.05840
1589.26145,0.05860
1587.33273,0.05885
1585.40401,0.05886
1583.47530,0.05857
1581.54658,0.05813
1579.61787,0.05785
1577.68915,0.05769
1575.76044,0.05728
1573.83172,0.05690
1571.90301,0.05676
1569.97429,0.05660
1568.04558,0.05643
1566.11686,0.05628
1564.18815,0.05614
1562.25943,0.05632
1560.33072,0.05684
1558.40200,0.05643
1556.47328,0.05525
1554.54457,0.05461
1552.61585,0.05416
1550.68714,0.05375
1548.75842,0.05344
1546.82971,0.05338
1544.90099,0.05345
1542.97228,0.05333
1541.04356,0.05273
1539.11485,0.05196
1537.18613,0.05173
1535.25742,0.05144
1533.32870,0.05069
1531.39999,0.05006
1529.47127,0.04982
1527.54255,0.04946
1525.61384,0.04888
1523.68512,0.04823
1521.75641,0.04719
1519.82769,0.04583
1517.89898,0.04444
1515.97026,0.04280
1514.04155,0.04185
1512.11283,0.04261
1510.18412,0.04517
1508.25540,0.05078
1506.32669,0.06153
1504.39797,0.06874
1502.46925,0.07141
1500.54054,0.07280
1498.61182,0.07323
1496.68311,0.07228
1494.75439,0.07079
1492.82568,0.06979
1490.89696,0.06891
1488.96825,0.06755
1487.03953,0.06603
1485.11082,0.06494
1483.18210,0.06416
1481.25339,0.06339
1479.32467,0.06257
1477.39596,0.06177
1475.46724,0.06106
1473.53852,0.06058
1471.60981,0.06029
1469.68109,0.06016
1467.75238,0.06015
1465.82366,0.06009
1463.89495,0.05999
1461.96623,0.06016
1460.03752,0.06062
1458.10880,0.06101
1456.18009,0.06035
1454.25137,0.05933
1452.32266,0.05888
1450.39394,0.05882
1448.46523,0.05882
1446.53651,0.05870
1444.60779,0.05854
1442.67908,0.05838
1440.75036,0.05809
1438.82165,0.05763
1436.89293,0.05712
1434.96422,0.05688
1433.03550,0.05669
1431.10679,0.05619
1429.17807,0.05557
1427.24936,0.05526
1425.32064,0.05517
1423.39193,0.05496
1421.46321,0.05447
1419.53449,0.05370
1417.60578,0.05291
1415.67706,0.05253
1413.74835,0.05265
1411.81963,0.05331
1409.89092,0.05427
1407.96220,0.05506
1406.03349,0.05554
1404.10477,0.05569
1402.17606,0.05566
1400.24734,0.05550
1398.31863,0.05506
1396.38991,0.05438
1394.46120,0.05357
1392.53248,0.05290
1390.60376,0.05265
1388.67505,0.05284
1386.74633,0.05327
1384.81762,0.05354
1382.88890,0.05339
1380.96019,0.05290
1379.03147,0.05234
1377.10276,0.05190
1375.17404,0.05138
1373.24533,0.05068
1371.31661,0.05003
1369.38790,0.04953
1367.45918,0.04956
1365.53047,0.05055
1363.60175,0.05213
1361.67303,0.05300
1359.74432,0.05256
1357.81560,0.05163
1355.88689,0.05079
1353.95817,0.05015
1352.02946,0.04979
1350.10074,0.04946
1348.17203,0.04900
1346.24331,0.04856
1344.31460,0.04826
1342.38588,0.04798
1340.45717,0.04748
1338.52845,0.04670
1336.59974,0.04595
1334.67102,0.04528
1332.74230,0.04469
1330.81359,0.04441
1328.88487,0.04432
1326.95616,0.04398
1325.02744,0.04334
1323.09873,0.04262
1321.17001,0.04184
1319.24130,0.04096
1317.31258,0.04013
1315.38387,0.03943
1313.45515,0.03875
1311.52644,0.03818
1309.59772,0.03789
1307.66900,0.03771
1305.74029,0.03725
1303.81157,0.03642
1301.88286,0.03557
1299.95414,0.03496
1298.02543,0.03451
1296.09671,0.03420
1294.16800,0.03420
1292.23928,0.03441
1290.31057,0.03442
1288.38185,0.03410
1286.45314,0.03362
1284.52442,0.03300
1282.59571,0.03211
1280.66699,0.03086
1278.73827,0.02926
1276.80956,0.02746
1274.88084,0.02563
1272.95213,0.02382
1271.02341,0.02214
1269.09470,0.02093
1267.16598,0.02038
1265.23727,0.02082
1263.30855,0.02313
1261.37984,0.02833
1259.45112,0.03681
1257.52241,0.04791
1255.59369,0.06003
1253.66498,0.07159
1251.73626,0.08168
1249.80754,0.08996
1247.87883,0.09652
1245.95011,0.10178
1244.02140,0.10620
1242.09268,0.11012
1240.16397,0.11382
1238.23525,0.11762
1236.30654,0.12176
1234.37782,0.12608
1232.44911,0.13006
1230.52039,0.13342
1228.59168,0.13617
1226.66296,0.13827
1224.73424,0.13931
1222.80553,0.13880
1220.87681,0.13624
1218.94810,0.13137
1217.01938,0.12437
1215.09067,0.11567
1213.16195,0.10569
1211.23324,0.09508
1209.30452,0.08503
1207.37581,0.07723
1205.44709,0.07422
1203.51838,0.07872
1201.58966,0.09116
1199.66095,0.10903
1197.73223,0.12846
1195.80351,0.14580
1193.87480,0.15855
1191.94608,0.16543
1190.01737,0.16616
1188.08865,0.16120
1186.15994,0.15168
1184.23122,0.13992
1182.30251,0.12851
1180.37379,0.11883
1178.44508,0.11071
1176.51636,0.10295
1174.58765,0.09485
1172.65893,0.08796
1170.73022,0.08623
1168.80150,0.09391
1166.87278,0.11130
1164.94407,0.13239
1163.01535,0.14858
1161.08664,0.15512
1159.15792,0.15294
1157.22921,0.14606
1155.30049,0.13834
1153.37178,0.13152
1151.44306,0.12569
1149.51435,0.12081
1147.58563,0.11690
1145.65692,0.11365
1143.72820,0.11085
1141.79949,0.10840
1139.87077,0.10624
1137.94205,0.10428
1136.01334,0.10243
1134.08462,0.10077
1132.15591,0.09918
1130.22719,0.09756
1128.29848,0.09619
1126.36976,0.09510
1124.44105,0.09398
1122.51233,0.09272
1120.58362,0.09137
1118.65490,0.09018
1116.72619,0.08928
1114.79747,0.08852
1112.86875,0.08792
1110.94004,0.08772
1109.01132,0.08769
1107.08261,0.08745
1105.15389,0.08729
1103.22518,0.08764
1101.29646,0.08818
1099.36775,0.08808
1097.43903,0.08705
1095.51032,0.08558
1093.58160,0.08406
1091.65289,0.08232
1089.72417,0.08013
1087.79546,0.07790
1085.86674,0.07720
1083.93802,0.07975
1082.00931,0.08554
1080.08059,0.09182
1078.15188,0.09506
1076.22316,0.09440
1074.29445,0.09200
1072.36573,0.09000
1070.43702,0.08873
1068.50830,0.08758
1066.57959,0.08631
1064.65087,0.08526
1062.72216,0.08446
1060.79344,0.08359
1058.86473,0.08275
1056.93601,0.08211
1055.00729,0.08160
1053.07858,0.08112
1051.14986,0.08054
1049.22115,0.07986
1047.29243,0.07919
1045.36372,0.07844
1043.43500,0.07793
1041.50629,0.07786
1039.57757,0.07747
1037.64886,0.07632
1035.72014,0.07490
1033.79143,0.07369
1031.86271,0.07254
1029.93399,0.07096
1028.00528,0.06904
1026.07656,0.06716
1024.14785,0.06509
1022.21913,0.06298
1020.29042,0.06265
1018.36170,0.06757
1016.43299,0.07910
1014.50427,0.09146
1012.57556,0.09700
1010.64684,0.09586
1008.71813,0.09359
1006.78941,0.09273
1004.86070,0.09239
1002.93198,0.09181
1001.00326,0.09086
999.07455,0.08945
997.14583,0.08806
995.21712,0.08714
993.28840,0.08652
991.35969,0.08600
989.43097,0.08557
987.50226,0.08496
985.57354,0.08412
983.64483,0.08321
981.71611,0.08234
979.78740,0.08160
977.85868,0.08115
975.92997,0.08097
974.00125,0.08082
972.07253,0.08052
970.14382,0.08007
968.21510,0.07956
966.28639,0.07909
964.35767,0.07873
962.42896,0.07836
960.50024,0.07793
958.57153,0.07764
956.64281,0.07765
954.71410,0.07780
952.78538,0.07771
950.85667,0.07738
948.92795,0.07698
946.99924,0.07663
945.07052,0.07648
943.14180,0.07644
941.21309,0.07644
939.28437,0.07656
937.35566,0.07657
935.42694,0.07616
933.49823,0.07563
931.56951,0.07541
929.64080,0.07549
927.71208,0.07560
925.78337,0.07555
923.85465,0.07535
921.92594,0.07510
919.99722,0.07492
918.06850,0.07468
916.13979,0.07423
914.21107,0.07381
912.28236,0.07358
910.35364,0.07344
908.42493,0.07320
906.49621,0.07257
904.56750,0.07162
902.63878,0.07104
900.71007,0.07076
898.78135,0.07003
896.85264,0.06907
894.92392,0.06860
892.99521,0.06893
891.06649,0.07018
889.13777,0.07196
887.20906,0.07353
885.28034,0.07454
883.35163,0.07496
881.42291,0.07497
879.49420,0.07468
877.56548,0.07427
875.63677,0.07387
873.70805,0.07329
871.77934,0.07263
869.85062,0.07208
867.92191,0.07129
865.99319,0.07038
864.06448,0.06959
862.13576,0.06875
860.20704,0.06807
858.27833,0.06763
856.34961,0.06701
854.42090,0.06591
852.49218,0.06497
850.56347,0.06494
848.63475,0.06550
846.70604,0.06610
844.77732,0.06658
842.84861,0.06701
840.91989,0.06749
838.99118,0.06814
837.06246,0.06936
835.13375,0.07173
833.20503,0.07511
831.27631,0.07875
829.34760,0.08195
827.41888,0.08414
825.49017,0.08490
823.56145,0.08444
821.63274,0.08354
819.70402,0.08274
817.77531,0.08246
815.84659,0.08297
813.91788,0.08402
811.98916,0.08505
810.06045,0.08544
808.13173,0.08503
806.20301,0.08432
804.27430,0.08356
802.34558,0.08242
800.41687,0.08112
798.48815,0.08025
796.55944,0.07966
794.63072,0.07891
792.70201,0.07804
790.77329,0.07731
788.84458,0.07675
786.91586,0.07615
784.98715,0.07537
783.05843,0.07468
781.12972,0.07427
779.20100,0.07377
777.27228,0.07326
775.34357,0.07344
773.41485,0.07432
771.48614,0.07556
769.55742,0.07707
767.62871,0.07847
765.69999,0.07931
763.77128,0.07959
761.84256,0.07982
759.91385,0.08017
757.98513,0.08024
756.05642,0.07999
754.12770,0.07967
752.19899,0.07945
750.27027,0.07957
748.34155,0.07974
746.41284,0.07932
744.48412,0.07837
742.55541,0.07746
740.62669,0.07713
738.69798,0.07717
736.76926,0.07687
734.84055,0.07667
732.91183,0.07723
730.98312,0.07782
729.05440,0.07777
727.12569,0.07734
725.19697,0.07692
723.26825,0.07672
721.33954,0.07642
719.41082,0.07588
717.48211,0.07551
715.55339,0.07527
713.62468,0.07518
711.69596,0.07574
709.76725,0.07668
707.83853,0.07719
705.90982,0.07728
703.98110,0.07751
702.05239,0.07800
700.12367,0.07833
698.19496,0.07809
696.26624,0.07731
694.33752,0.07650
692.40881,0.07644
690.48009,0.07698
688.55138,0.07722
686.62266,0.07700
684.69395,0.07675
682.76523,0.07638
680.83652,0.07582
678.90780,0.07565
676.97909,0.07604
675.05037,0.07608
673.12166,0.07575
671.19294,0.07591
669.26423,0.07633
667.33551,0.07567
665.40679,0.07425
663.47808,0.07369
661.54936,0.07402
659.62065,0.07442
657.69193,0.07433
655.76322,0.07373
653.83450,0.07318
651.90579,0.07281
649.97707,0.07268
648.04836,0.07327
646.11964,0.07376
644.19093,0.07314
642.26221,0.07228
640.33350,0.07215
638.40478,0.07222
636.47606,0.07205
634.54735,0.07183
632.61863,0.07173
630.68992,0.07178
628.76120,0.07180
626.83249,0.07196
624.90377,0.07234
622.97506,0.07245
621.04634,0.07232
619.11763,0.07212
617.18891,0.07163
615.26020,0.07055
613.33148,0.06906
611.40276,0.06804
609.47405,0.06780
607.54533,0.06757
605.61662,0.06696
603.68790,0.06679
601.75919,0.06775
599.83047,0.06877
