7496.91655,0.07358
7494.98784,0.05525
7493.05912,0.03406
7491.13041,0.03314
7489.20169,0.04384
7487.27297,0.04817
7485.34426,0.05509
7483.41554,0.07360
7481.48683,0.07878
7479.55811,0.06642
7477.62940,0.05406
7475.70068,0.05775
7473.77197,0.07765
7471.84325,0.09215
7469.91454,0.08470
7467.98582,0.06996
7466.05711,0.06510
7464.12839,0.06344
7462.19968,0.05662
7460.27096,0.05631
7458.34224,0.05603
7456.41353,0.05437
7454.48481,0.06498
7452.55610,0.08052
7450.62738,0.07743
7448.69867,0.05568
7446.76995,0.02767
7444.84124,0.01820
7442.91252,0.02795
7440.98381,0.04771
7439.05509,0.05806
7437.12638,0.05051
7435.19766,0.04601
7433.26895,0.04998
7431.34023,0.04744
7429.41151,0.03504
7427.48280,0.02000
7425.55408,0.01895
7423.62537,0.04134
7421.69665,0.06817
7419.76794,0.07025
7417.83922,0.05396
7415.91051,0.03861
7413.98179,0.03770
7412.05308,0.05231
7410.12436,0.06615
7408.19565,0.06128
7406.26693,0.04976
7404.33821,0.04092
7402.40950,0.02791
7400.48078,0.01976
7398.55207,0.02832
7396.62335,0.03990
7394.69464,0.05338
7392.76592,0.06059
7390.83721,0.05337
7388.90849,0.04847
7386.97978,0.04835
7385.05106,0.04100
7383.12235,0.04152
7381.19363,0.04961
7379.26492,0.05569
7377.33620,0.05753
7375.40748,0.06174
7373.47877,0.06032
7371.55005,0.04685
7369.62134,0.03156
7367.69262,0.03560
7365.76391,0.05266
7363.83519,0.06996
7361.90648,0.06951
7359.97776,0.06028
7358.04905,0.06348
7356.12033,0.06989
7354.19162,0.05460
7352.26290,0.02914
7350.33419,0.02393
7348.40547,0.03383
7346.47675,0.03522
7344.54804,0.05487
7342.61932,0.07380
7340.69061,0.08232
7338.76189,0.06831
7336.83318,0.04527
7334.90446,0.03916
7332.97575,0.05861
7331.04703,0.08100
7329.11832,0.07675
7327.18960,0.04765
7325.26089,0.02936
7323.33217,0.03254
7321.40346,0.04283
7319.47474,0.05682
7317.54602,0.06983
7315.61731,0.06526
7313.68859,0.04296
7311.75988,0.02657
7309.83116,0.03449
7307.90245,0.05077
7305.97373,0.06556
7304.04502,0.07094
7302.11630,0.06386
7300.18759,0.04461
7298.25887,0.03500
7296.33016,0.03897
7294.40144,0.04259
7292.47272,0.03907
7290.54401,0.04295
7288.61529,0.04841
7286.68658,0.05551
7284.75786,0.06250
7282.82915,0.06173
7280.90043,0.05351
7278.97172,0.04455
7277.04300,0.02922
7275.11429,0.02245
7273.18557,0.03299
7271.25686,0.05501
7269.32814,0.06170
7267.39943,0.05221
7265.47071,0.04092
7263.54199,0.03622
7261.61328,0.03688
7259.68456,0.04380
7257.75585,0.05477
7255.82713,0.06265
7253.89842,0.06053
7251.96970,0.05262
7250.04099,0.04997
7248.11227,0.05025
7246.18356,0.05085
7244.25484,0.05415
7242.32613,0.04953
7240.39741,0.03999
7238.46870,0.04002
7236.53998,0.04608
7234.61126,0.04729
7232.68255,0.05143
7230.75383,0.05654
7228.82512,0.05291
7226.89640,0.04852
7224.96769,0.06063
7223.03897,0.08362
7221.11026,0.09408
7219.18154,0.07981
7217.25283,0.06478
7215.32411,0.05646
7213.39540,0.04591
7211.46668,0.03338
7209.53796,0.02603
7207.60925,0.02385
7205.68053,0.03430
7203.75182,0.04783
7201.82310,0.05468
7199.89439,0.04474
7197.96567,0.02489
7196.03696,0.02336
7194.10824,0.04759
7192.17953,0.06088
7190.25081,0.04866
7188.32210,0.02967
7186.39338,0.03337
7184.46467,0.04742
7182.53595,0.05179
7180.60723,0.04484
7178.67852,0.04415
7176.74980,0.05403
7174.82109,0.06279
7172.89237,0.05621
7170.96366,0.04603
7169.03494,0.04944
7167.10623,0.05997
7165.17751,0.05701
7163.24880,0.04023
7161.32008,0.02755
7159.39137,0.02918
7157.46265,0.04400
7155.53394,0.05972
7153.60522,0.06093
7151.67650,0.05410
7149.74779,0.05240
7147.81907,0.05361
7145.89036,0.04815
7143.96164,0.03994
7142.03293,0.03832
7140.10421,0.03881
7138.17550,0.03736
7136.24678,0.03646
7134.31807,0.03561
7132.38935,0.04185
7130.46064,0.05753
7128.53192,0.06897
7126.60321,0.06384
7124.67449,0.04694
7122.74577,0.03032
7120.81706,0.02526
7118.88834,0.02253
7116.95963,0.02727
7115.03091,0.04083
7113.10220,0.05324
7111.17348,0.05192
7109.24477,0.04542
7107.31605,0.04183
7105.38734,0.03350
7103.45862,0.02216
7101.52991,0.02496
7099.60119,0.04490
7097.67247,0.06127
7095.74376,0.05873
7093.81504,0.04832
7091.88633,0.03802
7089.95761,0.02928
7088.02890,0.03433
7086.10018,0.05294
7084.17147,0.06757
7082.24275,0.07296
7080.31404,0.06831
7078.38532,0.05089
7076.45661,0.03592
7074.52789,0.03929
7072.59918,0.04663
7070.67046,0.04033
7068.74174,0.03312
7066.81303,0.03563
7064.88431,0.03929
7062.95560,0.03715
7061.02688,0.02715
7059.09817,0.02412
7057.16945,0.03064
7055.24074,0.03711
7053.31202,0.04199
7051.38331,0.05068
7049.45459,0.05658
7047.52588,0.05657
7045.59716,0.05394
7043.66845,0.05140
7041.73973,0.05516
7039.81101,0.06009
7037.88230,0.05469
7035.95358,0.04892
7034.02487,0.04808
7032.09615,0.04915
7030.16744,0.05154
7028.23872,0.05305
7026.31001,0.05391
7024.38129,0.05661
7022.45258,0.05779
7020.52386,0.05599
7018.59515,0.05055
7016.66643,0.04740
7014.73771,0.04640
7012.80900,0.04202
7010.88028,0.04024
7008.95157,0.04753
7007.02285,0.05392
7005.09414,0.05306
7003.16542,0.04343
7001.23671,0.03550
6999.30799,0.03397
6997.37928,0.02782
6995.45056,0.01508
6993.52185,0.01617
6991.59313,0.03464
6989.66442,0.04747
6987.73570,0.04488
6985.80698,0.04133
6983.87827,0.04364
6981.94955,0.04973
6980.02084,0.05856
6978.09212,0.06258
6976.16341,0.05611
6974.23469,0.04780
6972.30598,0.04639
6970.37726,0.04947
6968.44855,0.04900
6966.51983,0.04560
6964.59112,0.04374
6962.66240,0.04251
6960.73369,0.03959
6958.80497,0.03649
6956.87625,0.03436
6954.94754,0.03410
6953.01882,0.03474
6951.09011,0.03593
6949.16139,0.04057
6947.23268,0.04664
6945.30396,0.04762
6943.37525,0.04705
6941.44653,0.04980
6939.51782,0.05363
6937.58910,0.05374
6935.66039,0.04715
6933.73167,0.03513
6931.80296,0.03132
6929.87424,0.04197
6927.94552,0.05460
6926.01681,0.05851
6924.08809,0.05597
6922.15938,0.05287
6920.23066,0.04832
6918.30195,0.03969
6916.37323,0.03400
6914.44452,0.03001
6912.51580,0.03042
6910.58709,0.04182
6908.65837,0.05135
6906.72966,0.04498
6904.80094,0.03816
6902.87222,0.03879
6900.94351,0.03963
6899.01479,0.03856
6897.08608,0.03703
6895.15736,0.03658
6893.22865,0.04185
6891.29993,0.04373
6889.37122,0.03832
6887.44250,0.03629
6885.51379,0.03763
6883.58507,0.03679
6881.65636,0.03459
6879.72764,0.03128
6877.79893,0.02935
6875.87021,0.03499
6873.94149,0.04678
6872.01278,0.05293
6870.08406,0.04796
6868.15535,0.03969
6866.22663,0.03531
6864.29792,0.03685
6862.36920,0.04303
6860.44049,0.04581
6858.51177,0.04305
6856.58306,0.04030
6854.65434,0.04349
6852.72563,0.04985
6850.79691,0.05197
6848.86820,0.04895
6846.93948,0.04671
6845.01076,0.04452
6843.08205,0.03880
6841.15333,0.03608
6839.22462,0.04062
6837.29590,0.04312
6835.36719,0.04123
6833.43847,0.04032
6831.50976,0.04358
6829.58104,0.04785
6827.65233,0.04493
6825.72361,0.03401
6823.79490,0.02316
6821.86618,0.01869
6819.93746,0.02231
6818.00875,0.02932
6816.08003,0.03415
6814.15132,0.03691
6812.22260,0.03979
6810.29389,0.04206
6808.36517,0.04025
6806.43646,0.03562
6804.50774,0.03398
6802.57903,0.02966
6800.65031,0.02424
6798.72160,0.02779
6796.79288,0.03566
6794.86417,0.03590
6792.93545,0.03604
6791.00673,0.03908
6789.07802,0.04118
6787.14930,0.04170
6785.22059,0.04141
6783.29187,0.03964
6781.36316,0.03604
6779.43444,0.03321
6777.50573,0.03560
6775.57701,0.04337
6773.64830,0.05110
6771.71958,0.05132
6769.79087,0.04616
6767.86215,0.04280
6765.93344,0.04202
6764.00472,0.04202
6762.07600,0.04216
6760.14729,0.04276
6758.21857,0.04507
6756.28986,0.04541
6754.36114,0.04276
6752.43243,0.04253
6750.50371,0.04488
6748.57500,0.04350
6746.64628,0.03964
6744.71757,0.03696
6742.78885,0.03337
6740.86014,0.03087
6738.93142,0.03311
6737.00271,0.03541
6735.07399,0.03528
6733.14527,0.03573
6731.21656,0.03667
6729.28784,0.03412
6727.35913,0.03100
6725.43041,0.03150
6723.50170,0.03759
6721.57298,0.04189
6719.64427,0.04445
6717.71555,0.04432
6715.78684,0.03825
6713.85812,0.03112
6711.92941,0.03185
6710.00069,0.03284
6708.07197,0.02816
6706.14326,0.02272
6704.21454,0.02712
6702.28583,0.03566
6700.35711,0.04084
6698.42840,0.04216
6696.49968,0.04396
6694.57097,0.04575
6692.64225,0.04548
6690.71354,0.04972
6688.78482,0.05790
6686.85611,0.05742
6684.92739,0.04721
6682.99868,0.03601
6681.06996,0.03092
6679.14124,0.03563
6677.21253,0.04659
6675.28381,0.05392
6673.35510,0.05545
6671.42638,0.05267
6669.49767,0.04789
6667.56895,0.04324
6665.64024,0.03875
6663.71152,0.03387
6661.78281,0.03032
6659.85409,0.03286
6657.92538,0.04133
6655.99666,0.04359
6654.06795,0.03975
6652.13923,0.03863
6650.21051,0.04014
6648.28180,0.04028
6646.35308,0.03592
6644.42437,0.03211
6642.49565,0.03839
6640.56694,0.04667
6638.63822,0.04740
6636.70951,0.04589
6634.78079,0.04324
6632.85208,0.03620
6630.92336,0.02967
6628.99465,0.02996
6627.06593,0.03343
6625.13722,0.03345
6623.20850,0.03103
6621.27978,0.02952
6619.35107,0.03259
6617.42235,0.03464
6615.49364,0.03190
6613.56492,0.03049
6611.63621,0.03272
6609.70749,0.03667
6607.77878,0.04348
6605.85006,0.04795
6603.92135,0.04603
6601.99263,0.04248
6600.06392,0.04167
6598.13520,0.04165
6596.20648,0.03882
6594.27777,0.03626
6592.34905,0.04040
6590.42034,0.04594
6588.49162,0.04447
6586.56291,0.04151
6584.63419,0.04075
6582.70548,0.03641
6580.77676,0.03202
6578.84805,0.03100
6576.91933,0.03382
6574.99062,0.03909
6573.06190,0.04482
6571.13319,0.05016
6569.20447,0.05240
6567.27575,0.04810
6565.34704,0.04111
6563.41832,0.03587
6561.48961,0.03498
6559.56089,0.04016
6557.63218,0.04822
6555.70346,0.05056
6553.77475,0.04503
6551.84603,0.03918
6549.91732,0.03856
6547.98860,0.04198
6546.05989,0.04685
6544.13117,0.04745
6542.20246,0.04200
6540.27374,0.03777
6538.34502,0.03728
6536.41631,0.03734
6534.48759,0.03975
6532.55888,0.04297
6530.63016,0.04244
6528.70145,0.04051
6526.77273,0.04243
6524.84402,0.04506
6522.91530,0.04337
6520.98659,0.03871
6519.05787,0.03744
6517.12916,0.03920
6515.20044,0.04240
6513.27172,0.04725
6511.34301,0.05124
6509.41429,0.05225
6507.48558,0.04958
6505.55686,0.04512
6503.62815,0.04134
6501.69943,0.03523
6499.77072,0.02774
6497.84200,0.02312
6495.91329,0.02429
6493.98457,0.02960
6492.05586,0.03171
6490.12714,0.02977
6488.19843,0.03223
6486.26971,0.03921
6484.34099,0.04024
6482.41228,0.03524
6480.48356,0.03332
6478.55485,0.03556
6476.62613,0.03912
6474.69742,0.04135
6472.76870,0.04165
6470.83999,0.04211
6468.91127,0.04262
6466.98256,0.04288
6465.05384,0.04126
6463.12513,0.03651
6461.19641,0.03499
6459.26770,0.03795
6457.33898,0.04032
6455.41026,0.04260
6453.48155,0.04498
6451.55283,0.04168
6449.62412,0.03517
6447.69540,0.03346
6445.76669,0.03781
6443.83797,0.04219
6441.90926,0.03865
6439.98054,0.03078
6438.05183,0.02928
6436.12311,0.03184
6434.19440,0.03219
6432.26568,0.03140
6430.33697,0.03273
6428.40825,0.03497
6426.47953,0.03391
6424.55082,0.02919
6422.62210,0.02786
6420.69339,0.03108
6418.76467,0.03513
6416.83596,0.03767
6414.90724,0.03957
6412.97853,0.03793
6411.04981,0.03506
6409.12110,0.03621
6407.19238,0.03902
6405.26367,0.03987
6403.33495,0.04113
6401.40623,0.04399
6399.47752,0.04823
6397.54880,0.05114
6395.62009,0.05077
6393.69137,0.04821
6391.76266,0.04498
6389.83394,0.04218
6387.90523,0.03899
6385.97651,0.03310
6384.04780,0.02639
6382.11908,0.02279
6380.19037,0.02423
6378.26165,0.03057
6376.33294,0.03707
6374.40422,0.03757
6372.47550,0.03533
6370.54679,0.03648
6368.61807,0.03758
6366.68936,0.03486
6364.76064,0.03107
6362.83193,0.02957
6360.90321,0.03200
6358.97450,0.03564
6357.04578,0.03764
6355.11707,0.04068
6353.18835,0.04527
6351.25964,0.04683
6349.33092,0.04265
6347.40221,0.03513
6345.47349,0.03056
6343.54477,0.03020
6341.61606,0.02979
6339.68734,0.02826
6337.75863,0.02841
6335.82991,0.03080
6333.90120,0.03403
6331.97248,0.03532
6330.04377,0.03738
6328.11505,0.04243
6326.18634,0.04513
6324.25762,0.04085
6322.32891,0.03387
6320.40019,0.02985
6318.47147,0.03002
6316.54276,0.03099
6314.61404,0.03148
6312.68533,0.03190
6310.75661,0.03199
6308.82790,0.03349
6306.89918,0.03631
6304.97047,0.03499
6303.04175,0.03194
6301.11304,0.03316
6299.18432,0.03751
6297.25561,0.04167
6295.32689,0.04391
6293.39818,0.04109
6291.46946,0.03525
6289.54074,0.03258
6287.61203,0.03139
6285.68331,0.02855
6283.75460,0.02706
6281.82588,0.02755
6279.89717,0.02864
6277.96845,0.02860
6276.03974,0.02735
6274.11102,0.03016
6272.18231,0.03632
6270.25359,0.03897
6268.32488,0.03957
6266.39616,0.04270
6264.46745,0.04615
6262.53873,0.04583
6260.61001,0.04210
6258.68130,0.03805
6256.75258,0.03615
6254.82387,0.03654
6252.89515,0.03708
6250.96644,0.03425
6249.03772,0.02737
6247.10901,0.02278
6245.18029,0.02606
6243.25158,0.03185
6241.32286,0.03486
6239.39415,0.03732
6237.46543,0.03875
6235.53672,0.03555
6233.60800,0.03123
6231.67928,0.03108
6229.75057,0.03458
6227.82185,0.03575
6225.89314,0.03336
6223.96442,0.03314
6222.03571,0.03449
6220.10699,0.03227
6218.17828,0.02967
6216.24956,0.02839
6214.32085,0.02606
6212.39213,0.02543
6210.46342,0.02834
6208.53470,0.03107
6206.60598,0.03099
6204.67727,0.02949
6202.74855,0.02781
6200.81984,0.02596
6198.89112,0.02773
6196.96241,0.03252
6195.03369,0.03329
6193.10498,0.03025
6191.17626,0.02893
6189.24755,0.02818
6187.31883,0.02725
6185.39012,0.02751
6183.46140,0.02977
6181.53269,0.03435
6179.60397,0.03701
6177.67525,0.03435
6175.74654,0.03075
6173.81782,0.02880
6171.88911,0.02685
6169.96039,0.02626
6168.03168,0.02969
6166.10296,0.03322
6164.17425,0.03478
6162.24553,0.03588
6160.31682,0.03644
6158.38810,0.03650
6156.45939,0.03740
6154.53067,0.03703
6152.60196,0.03364
6150.67324,0.02982
6148.74452,0.02852
6146.81581,0.03050
6144.88709,0.03522
6142.95838,0.03814
6141.02966,0.03585
6139.10095,0.03137
6137.17223,0.02823
6135.24352,0.02647
6133.31480,0.02601
6131.38609,0.02688
6129.45737,0.02913
6127.52866,0.03184
6125.59994,0.03250
6123.67122,0.02970
6121.74251,0.02771
6119.81379,0.03023
6117.88508,0.03350
6115.95636,0.03422
6114.02765,0.03250
6112.09893,0.02909
6110.17022,0.02926
6108.24150,0.03413
6106.31279,0.03624
6104.38407,0.03283
6102.45536,0.02831
6100.52664,0.02500
6098.59793,0.02357
6096.66921,0.02535
6094.74049,0.02907
6092.81178,0.03224
6090.88306,0.03518
6088.95435,0.03522
6087.02563,0.03213
6085.09692,0.03079
6083.16820,0.03314
6081.23949,0.03575
6079.31077,0.03476
6077.38206,0.03034
6075.45334,0.02681
6073.52463,0.02553
6071.59591,0.02599
6069.66720,0.02787
6067.73848,0.03063
6065.80976,0.03244
6063.88105,0.03304
6061.95233,0.03376
6060.02362,0.03313
6058.09490,0.03003
6056.16619,0.02876
6054.23747,0.03073
6052.30876,0.03207
6050.38004,0.03224
6048.45133,0.03315
6046.52261,0.03352
6044.59390,0.03311
6042.66518,0.03187
6040.73647,0.02802
6038.80775,0.02512
6036.87903,0.02726
6034.95032,0.03070
6033.02160,0.03137
6031.09289,0.02930
6029.16417,0.02793
6027.23546,0.02999
6025.30674,0.03237
6023.37803,0.03164
6021.44931,0.03119
6019.52060,0.03303
6017.59188,0.03347
6015.66317,0.03179
6013.73445,0.03143
6011.80573,0.03114
6009.87702,0.02867
6007.94830,0.02548
6006.01959,0.02542
6004.09087,0.02986
6002.16216,0.03365
6000.23344,0.03142
5998.30473,0.02733
5996.37601,0.02572
5994.44730,0.02656
5992.51858,0.02859
5990.58987,0.03080
5988.66115,0.03171
5986.73244,0.03008
5984.80372,0.02693
5982.87500,0.02615
5980.94629,0.02783
5979.01757,0.02904
5977.08886,0.03002
5975.16014,0.03210
5973.23143,0.03324
5971.30271,0.03272
5969.37400,0.03124
5967.44528,0.02906
5965.51657,0.02781
5963.58785,0.02969
5961.65914,0.03316
5959.73042,0.03505
5957.80171,0.03454
5955.87299,0.03221
5953.94427,0.02955
5952.01556,0.02915
5950.08684,0.03048
5948.15813,0.03199
5946.22941,0.03388
5944.30070,0.03414
5942.37198,0.03202
5940.44327,0.03166
5938.51455,0.03371
5936.58584,0.03564
5934.65712,0.03543
5932.72841,0.03258
5930.79969,0.03000
5928.87097,0.02944
5926.94226,0.02955
5925.01354,0.03164
5923.08483,0.03516
5921.15611,0.03652
5919.22740,0.03411
5917.29868,0.03031
5915.36997,0.02909
5913.44125,0.03105
5911.51254,0.03234
5909.58382,0.03201
5907.65511,0.03125
5905.72639,0.02923
5903.79768,0.02453
5901.86896,0.02025
5899.94024,0.01981
5898.01153,0.02142
5896.08281,0.02412
5894.15410,0.02927
5892.22538,0.03387
5890.29667,0.03459
5888.36795,0.03273
5886.43924,0.03127
5884.51052,0.03006
5882.58181,0.02948
5880.65309,0.03129
5878.72438,0.03320
5876.79566,0.03148
5874.86695,0.02804
5872.93823,0.02596
5871.00951,0.02617
5869.08080,0.02848
5867.15208,0.03054
5865.22337,0.03035
5863.29465,0.02992
5861.36594,0.02907
5859.43722,0.02666
5857.50851,0.02613
5855.57979,0.02875
5853.65108,0.03017
5851.72236,0.02817
5849.79365,0.02516
5847.86493,0.02390
5845.93622,0.02323
5844.00750,0.02318
5842.07878,0.02524
5840.15007,0.02822
5838.22135,0.02958
5836.29264,0.02952
5834.36392,0.02921
5832.43521,0.02901
5830.50649,0.02870
5828.57778,0.02840
5826.64906,0.02822
5824.72035,0.02840
5822.79163,0.02794
5820.86292,0.02768
5818.93420,0.02883
5817.00548,0.03020
5815.07677,0.02973
5813.14805,0.02730
5811.21934,0.02494
5809.29062,0.02489
5807.36191,0.02733
5805.43319,0.03131
5803.50448,0.03450
5801.57576,0.03410
5799.64705,0.03138
5797.71833,0.02975
5795.78962,0.02917
5793.86090,0.02784
5791.93219,0.02656
5790.00347,0.02682
5788.07475,0.02819
5786.14604,0.02971
5784.21732,0.02915
5782.28861,0.02683
5780.35989,0.02668
5778.43118,0.02832
5776.50246,0.02893
5774.57375,0.02793
5772.64503,0.02589
5770.71632,0.02519
5768.78760,0.02623
5766.85889,0.02687
5764.93017,0.02735
5763.00146,0.02877
5761.07274,0.03008
5759.14402,0.03061
5757.21531,0.02999
5755.28659,0.02844
5753.35788,0.02754
5751.42916,0.02796
5749.50045,0.02970
5747.57173,0.03211
5745.64302,0.03242
5743.71430,0.03086
5741.78559,0.03013
5739.85687,0.03015
5737.92816,0.02926
5735.99944,0.02759
5734.07072,0.02685
5732.14201,0.02735
5730.21329,0.02759
5728.28458,0.02604
5726.35586,0.02233
5724.42715,0.02000
5722.49843,0.02259
5720.56972,0.02756
5718.64100,0.03031
5716.71229,0.03091
5714.78357,0.03072
5712.85486,0.02951
5710.92614,0.02808
5708.99743,0.02778
5707.06871,0.02809
5705.13999,0.02858
5703.21128,0.03017
5701.28256,0.03296
5699.35385,0.03489
5697.42513,0.03394
5695.49642,0.03083
5693.56770,0.02901
5691.63899,0.02901
5689.71027,0.02849
5687.78156,0.02814
5685.85284,0.02975
5683.92413,0.03096
5681.99541,0.03047
5680.06670,0.02984
5678.13798,0.03009
5676.20926,0.03062
5674.28055,0.03089
5672.35183,0.03080
5670.42312,0.03042
5668.49440,0.02900
5666.56569,0.02678
5664.63697,0.02546
5662.70826,0.02547
5660.77954,0.02588
5658.85083,0.02617
5656.92211,0.02547
5654.99340,0.02373
5653.06468,0.02297
5651.13597,0.02432
5649.20725,0.02654
5647.27853,0.02872
5645.34982,0.03074
5643.42110,0.03168
5641.49239,0.02965
5639.56367,0.02625
5637.63496,0.02502
5635.70624,0.02577
5633.77753,0.02586
5631.84881,0.02474
5629.92010,0.02377
5627.99138,0.02376
5626.06267,0.02452
5624.13395,0.02629
5622.20523,0.02819
5620.27652,0.02928
5618.34780,0.02854
5616.41909,0.02605
5614.49037,0.02476
5612.56166,0.02513
5610.63294,0.02562
5608.70423,0.02630
5606.77551,0.02613
5604.84680,0.02529
5602.91808,0.02508
5600.98937,0.02486
5599.06065,0.02400
5597.13194,0.02373
5595.20322,0.02536
5593.27450,0.02736
5591.34579,0.02807
5589.41707,0.02838
5587.48836,0.02837
5585.55964,0.02738
5583.63093,0.02582
5581.70221,0.02421
5579.77350,0.02345
5577.84478,0.02465
5575.91607,0.02599
5573.98735,0.02567
5572.05864,0.02509
5570.12992,0.02516
5568.20121,0.02520
5566.27249,0.02571
5564.34377,0.02674
5562.41506,0.02699
5560.48634,0.02624
5558.55763,0.02591
5556.62891,0.02594
5554.70020,0.02563
5552.77148,0.02521
5550.84277,0.02512
5548.91405,0.02581
5546.98534,0.02702
5545.05662,0.02727
5543.12791,0.02696
5541.19919,0.02836
5539.27047,0.03026
5537.34176,0.02968
5535.41304,0.02738
5533.48433,0.02574
5531.55561,0.02519
5529.62690,0.02449
5527.69818,0.02331
5525.76947,0.02302
5523.84075,0.02335
5521.91204,0.02323
5519.98332,0.02429
5518.05461,0.02718
5516.12589,0.02899
5514.19718,0.02796
5512.26846,0.02622
5510.33974,0.02654
5508.41103,0.02848
5506.48231,0.02948
5504.55360,0.02934
5502.62488,0.02900
5500.69617,0.02807
5498.76745,0.02664
5496.83874,0.02550
5494.91002,0.02406
5492.98131,0.02219
5491.05259,0.02105
5489.12388,0.02193
5487.19516,0.02498
5485.26645,0.02745
5483.33773,0.02715
5481.40901,0.02529
5479.48030,0.02397
5477.55158,0.02405
5475.62287,0.02457
5473.69415,0.02533
5471.76544,0.02622
5469.83672,0.02661
5467.90801,0.02701
5465.97929,0.02779
5464.05058,0.02754
5462.12186,0.02444
5460.19315,0.02066
5458.26443,0.02139
5456.33572,0.02517
5454.40700,0.02611
5452.47828,0.02391
5450.54957,0.02245
5448.62085,0.02323
5446.69214,0.02508
5444.76342,0.02682
5442.83471,0.02806
5440.90599,0.02817
5438.97728,0.02684
5437.04856,0.02593
5435.11985,0.02745
5433.19113,0.03002
5431.26242,0.03100
5429.33370,0.03022
5427.40498,0.02893
5425.47627,0.02745
5423.54755,0.02584
5421.61884,0.02503
5419.69012,0.02507
5417.76141,0.02505
5415.83269,0.02557
5413.90398,0.02692
5411.97526,0.02691
5410.04655,0.02448
5408.11783,0.02247
5406.18912,0.02248
5404.26040,0.02309
5402.33169,0.02356
5400.40297,0.02452
5398.47425,0.02643
5396.54554,0.02899
5394.61682,0.03019
5392.68811,0.02902
5390.75939,0.02715
5388.83068,0.02629
5386.90196,0.02646
5384.97325,0.02559
5383.04453,0.02357
5381.11582,0.02344
5379.18710,0.02486
5377.25839,0.02549
5375.32967,0.02488
5373.40096,0.02325
5371.47224,0.02185
5369.54352,0.02276
5367.61481,0.02490
5365.68609,0.02603
5363.75738,0.02657
5361.82866,0.02680
5359.89995,0.02618
5357.97123,0.02647
5356.04252,0.02850
5354.11380,0.02950
5352.18509,0.02817
5350.25637,0.02703
5348.32766,0.02690
5346.39894,0.02653
5344.47022,0.02572
5342.54151,0.02563
5340.61279,0.02585
5338.68408,0.02535
5336.75536,0.02510
5334.82665,0.02591
5332.89793,0.02573
5330.96922,0.02397
5329.04050,0.02295
5327.11179,0.02334
5325.18307,0.02402
5323.25436,0.02461
5321.32564,0.02419
5319.39693,0.02349
5317.46821,0.02443
5315.53949,0.02587
5313.61078,0.02560
5311.68206,0.02438
5309.75335,0.02396
5307.82463,0.02469
5305.89592,0.02530
5303.96720,0.02480
5302.03849,0.02446
5300.10977,0.02551
5298.18106,0.02636
5296.25234,0.02548
5294.32363,0.02432
5292.39491,0.02456
5290.46620,0.02557
5288.53748,0.02621
5286.60876,0.02563
5284.68005,0.02435
5282.75133,0.02394
5280.82262,0.02409
5278.89390,0.02373
5276.96519,0.02350
5275.03647,0.02374
5273.10776,0.02409
5271.17904,0.02412
5269.25033,0.02399
5267.32161,0.02448
5265.39290,0.02542
5263.46418,0.02581
5261.53547,0.02563
5259.60675,0.02480
5257.67803,0.02329
5255.74932,0.02239
5253.82060,0.02320
5251.89189,0.02423
5249.96317,0.02348
5248.03446,0.02133
5246.10574,0.02058
5244.17703,0.02232
5242.24831,0.02482
5240.31960,0.02611
5238.39088,0.02576
5236.46217,0.02477
5234.53345,0.02400
5232.60473,0.02314
5230.67602,0.02261
5228.74730,0.02350
5226.81859,0.02488
5224.88987,0.02540
5222.96116,0.02557
5221.03244,0.02582
5219.10373,0.02605
5217.17501,0.02627
5215.24630,0.02653
5213.31758,0.02748
5211.38887,0.02890
5209.46015,0.02899
5207.53144,0.02750
5205.60272,0.02627
5203.67400,0.02620
5201.74529,0.02645
5199.81657,0.02635
5197.88786,0.02629
5195.95914,0.02673
5194.03043,0.02669
5192.10171,0.02572
5190.17300,0.02457
5188.24428,0.02379
5186.31557,0.02446
5184.38685,0.02667
5182.45814,0.02792
5180.52942,0.02684
5178.60071,0.02544
5176.67199,0.02573
5174.74327,0.02617
5172.81456,0.02455
5170.88584,0.02240
5168.95713,0.02174
5167.02841,0.02199
5165.09970,0.02269
5163.17098,0.02371
5161.24227,0.02442
5159.31355,0.02519
5157.38484,0.02640
5155.45612,0.02638
5153.52741,0.02484
5151.59869,0.02436
5149.66997,0.02506
5147.74126,0.02491
5145.81254,0.02372
5143.88383,0.02227
5141.95511,0.02209
5140.02640,0.02390
5138.09768,0.02571
5136.16897,0.02584
5134.24025,0.02481
5132.31154,0.02359
5130.38282,0.02337
5128.45411,0.02487
5126.52539,0.02667
5124.59668,0.02716
5122.66796,0.02664
5120.73924,0.02559
5118.81053,0.02466
5116.88181,0.02467
5114.95310,0.02471
5113.02438,0.02402
5111.09567,0.02400
5109.16695,0.02499
5107.23824,0.02537
5105.30952,0.02461
5103.38081,0.02411
5101.45209,0.02462
5099.52338,0.02528
5097.59466,0.02534
5095.66595,0.02487
5093.73723,0.02383
5091.80851,0.02285
5089.87980,0.02291
5087.95108,0.02366
5086.02237,0.02413
5084.09365,0.02443
5082.16494,0.02440
5080.23622,0.02398
5078.30751,0.02439
5076.37879,0.02565
5074.45008,0.02643
5072.52136,0.02648
5070.59265,0.02589
5068.66393,0.02492
5066.73522,0.02397
5064.80650,0.02287
5062.87778,0.02141
5060.94907,0.02076
5059.02035,0.02203
5057.09164,0.02377
5055.16292,0.02433
5053.23421,0.02465
5051.30549,0.02511
5049.37678,0.02502
5047.44806,0.02480
5045.51935,0.02522
5043.59063,0.02569
5041.66192,0.02550
5039.73320,0.02493
5037.80448,0.02478
5035.87577,0.02499
5033.94705,0.02460
5032.01834,0.02372
5030.08962,0.02366
5028.16091,0.02440
5026.23219,0.02469
5024.30348,0.02442
5022.37476,0.02408
5020.44605,0.02382
5018.51733,0.02437
5016.58862,0.02562
5014.65990,0.02610
5012.73119,0.02523
5010.80247,0.02451
5008.87375,0.02485
5006.94504,0.02513
5005.01632,0.02454
5003.08761,0.02382
5001.15889,0.02406
4999.23018,0.02464
4997.30146,0.02451
4995.37275,0.02448
4993.44403,0.02434
4991.51532,0.02333
4989.58660,0.02291
4987.65789,0.02391
4985.72917,0.02505
4983.80046,0.02537
4981.87174,0.02519
4979.94302,0.02473
4978.01431,0.02398
4976.08559,0.02367
4974.15688,0.02436
4972.22816,0.02515
4970.29945,0.02514
4968.37073,0.02477
4966.44202,0.02433
4964.51330,0.02349
4962.58459,0.02267
4960.65587,0.02236
4958.72716,0.02239
4956.79844,0.02313
4954.86972,0.02451
4952.94101,0.02490
4951.01229,0.02407
4949.08358,0.02338
4947.15486,0.02315
4945.22615,0.02329
4943.29743,0.02355
4941.36872,0.02326
4939.44000,0.02274
4937.51129,0.02294
4935.58257,0.02353
4933.65386,0.02375
4931.72514,0.02395
4929.79643,0.02410
4927.86771,0.02320
4925.93899,0.02212
4924.01028,0.02244
4922.08156,0.02338
4920.15285,0.02372
4918.22413,0.02373
4916.29542,0.02416
4914.36670,0.02485
4912.43799,0.02483
4910.50927,0.02430
4908.58056,0.02437
4906.65184,0.02501
4904.72313,0.02522
4902.79441,0.02498
4900.86570,0.02472
4898.93698,0.02435
4897.00826,0.02430
4895.07955,0.02481
4893.15083,0.02497
4891.22212,0.02416
4889.29340,0.02319
4887.36469,0.02327
4885.43597,0.02390
4883.50726,0.02403
4881.57854,0.02395
4879.64983,0.02405
4877.72111,0.02405
4875.79240,0.02455
4873.86368,0.02565
4871.93497,0.02579
4870.00625,0.02460
4868.07753,0.02352
4866.14882,0.02329
4864.22010,0.02378
4862.29139,0.02432
4860.36267,0.02417
4858.43396,0.02406
4856.50524,0.02478
4854.57653,0.02528
4852.64781,0.02502
4850.71910,0.02455
4848.79038,0.02387
4846.86167,0.02327
4844.93295,0.02316
4843.00423,0.02286
4841.07552,0.02253
4839.14680,0.02305
4837.21809,0.02418
4835.28937,0.02499
4833.36066,0.02521
4831.43194,0.02521
4829.50323,0.02519
4827.57451,0.02518
4825.64580,0.02526
4823.71708,0.02484
4821.78837,0.02377
4819.85965,0.02284
4817.93094,0.02276
4816.00222,0.02358
4814.07350,0.02433
4812.14479,0.02403
4810.21607,0.02338
4808.28736,0.02331
4806.35864,0.02348
4804.42993,0.02381
4802.50121,0.02449
4800.57250,0.02475
4798.64378,0.02437
4796.71507,0.02402
4794.78635,0.02356
4792.85764,0.02280
4790.92892,0.02236
4789.00021,0.02271
4787.07149,0.02351
4785.14277,0.02420
4783.21406,0.02451
4781.28534,0.02445
4779.35663,0.02431
4777.42791,0.02457
4775.49920,0.02515
4773.57048,0.02527
4771.64177,0.02479
4769.71305,0.02427
4767.78434,0.02373
4765.85562,0.02306
4763.92691,0.02305
4761.99819,0.02374
4760.06948,0.02419
4758.14076,0.02447
4756.21204,0.02462
4754.28333,0.02428
4752.35461,0.02420
4750.42590,0.02461
4748.49718,0.02491
4746.56847,0.02484
4744.63975,0.02461
4742.71104,0.02458
4740.78232,0.02466
4738.85361,0.02459
4736.92489,0.02436
4734.99618,0.02386
4733.06746,0.02349
4731.13874,0.02366
4729.21003,0.02364
4727.28131,0.02328
4725.35260,0.02313
4723.42388,0.02293
4721.49517,0.02251
4719.56645,0.02202
4717.63774,0.02181
4715.70902,0.02221
4713.78031,0.02296
4711.85159,0.02353
4709.92288,0.02344
4707.99416,0.02325
4706.06545,0.02376
4704.13673,0.02441
4702.20801,0.02477
4700.27930,0.02515
4698.35058,0.02547
4696.42187,0.02532
4694.49315,0.02477
4692.56444,0.02414
4690.63572,0.02366
4688.70701,0.02333
4686.77829,0.02313
4684.84958,0.02290
4682.92086,0.02270
4680.99215,0.02295
4679.06343,0.02392
4677.13472,0.02538
4675.20600,0.02638
4673.27728,0.02611
4671.34857,0.02501
4669.41985,0.02390
4667.49114,0.02323
4665.56242,0.02328
4663.63371,0.02371
4661.70499,0.02383
4659.77628,0.02351
4657.84756,0.02298
4655.91885,0.02266
4653.99013,0.02272
4652.06142,0.02293
4650.13270,0.02354
4648.20398,0.02432
4646.27527,0.02440
4644.34655,0.02405
4642.41784,0.02389
4640.48912,0.02361
4638.56041,0.02304
4636.63169,0.02289
4634.70298,0.02325
4632.77426,0.02341
4630.84555,0.02298
4628.91683,0.02252
4626.98812,0.02266
4625.05940,0.02293
4623.13069,0.02283
4621.20197,0.02250
4619.27325,0.02210
4617.34454,0.02202
4615.41582,0.02262
4613.48711,0.02342
4611.55839,0.02359
4609.62968,0.02302
4607.70096,0.02224
4605.77225,0.02216
4603.84353,0.02303
4601.91482,0.02329
4599.98610,0.02239
4598.05739,0.02195
4596.12867,0.02248
4594.19996,0.02325
4592.27124,0.02405
4590.34252,0.02457
4588.41381,0.02445
4586.48509,0.02432
4584.55638,0.02433
4582.62766,0.02392
4580.69895,0.02299
4578.77023,0.02234
4576.84152,0.02287
4574.91280,0.02373
4572.98409,0.02361
4571.05537,0.02305
4569.12666,0.02286
4567.19794,0.02304
4565.26923,0.02326
4563.34051,0.02310
4561.41179,0.02275
4559.48308,0.02265
4557.55436,0.02266
4555.62565,0.02272
4553.69693,0.02303
4551.76822,0.02354
4549.83950,0.02401
4547.91079,0.02422
4545.98207,0.02420
4544.05336,0.02387
4542.12464,0.02379
4540.19593,0.02455
4538.26721,0.02526
4536.33849,0.02528
4534.40978,0.02506
4532.48106,0.02466
4530.55235,0.02391
4528.62363,0.02321
4526.69492,0.02331
4524.76620,0.02403
4522.83749,0.02439
4520.90877,0.02422
4518.98006,0.02412
4517.05134,0.02438
4515.12263,0.02435
4513.19391,0.02346
4511.26520,0.02276
4509.33648,0.02292
4507.40776,0.02317
4505.47905,0.02315
4503.55033,0.02313
4501.62162,0.02320
4499.69290,0.02337
4497.76419,0.02361
4495.83547,0.02365
4493.90676,0.02364
4491.97804,0.02416
4490.04933,0.02465
4488.12061,0.02428
4486.19190,0.02370
4484.26318,0.02338
4482.33447,0.02331
4480.40575,0.02372
4478.47703,0.02417
4476.54832,0.02415
4474.61960,0.02404
4472.69089,0.02409
4470.76217,0.02411
4468.83346,0.02377
4466.90474,0.02318
4464.97603,0.02293
4463.04731,0.02301
4461.11860,0.02288
4459.18988,0.02287
4457.26117,0.02310
4455.33245,0.02281
4453.40373,0.02208
4451.47502,0.02195
4449.54630,0.02261
4447.61759,0.02337
4445.68887,0.02375
4443.76016,0.02363
4441.83144,0.02321
4439.90273,0.02296
4437.97401,0.02291
4436.04530,0.02300
4434.11658,0.02334
4432.18787,0.02365
4430.25915,0.02366
4428.33044,0.02367
4426.40172,0.02376
4424.47300,0.02369
4422.54429,0.02340
4420.61557,0.02288
4418.68686,0.02274
4416.75814,0.02366
4414.82943,0.02459
4412.90071,0.02420
4410.97200,0.02315
4409.04328,0.02248
4407.11457,0.02198
4405.18585,0.02172
4403.25714,0.02215
4401.32842,0.02288
4399.39971,0.02334
4397.47099,0.02340
4395.54227,0.02314
4393.61356,0.02307
4391.68484,0.02294
4389.75613,0.02211
4387.82741,0.02160
4385.89870,0.02213
4383.96998,0.02265
4382.04127,0.02277
4380.11255,0.02294
4378.18384,0.02310
4376.25512,0.02298
4374.32641,0.02284
4372.39769,0.02298
4370.46898,0.02297
4368.54026,0.02286
4366.61154,0.02304
4364.68283,0.02335
4362.75411,0.02384
4360.82540,0.02449
4358.89668,0.02472
4356.96797,0.02430
4355.03925,0.02364
4353.11054,0.02320
4351.18182,0.02273
4349.25311,0.02200
4347.32439,0.02179
4345.39568,0.02238
4343.46696,0.02313
4341.53824,0.02381
4339.60953,0.02412
4337.68081,0.02364
4335.75210,0.02278
4333.82338,0.02244
4331.89467,0.02251
4329.96595,0.02236
4328.03724,0.02245
4326.10852,0.02310
4324.17981,0.02366
4322.25109,0.02360
4320.32238,0.02326
4318.39366,0.02322
4316.46495,0.02349
4314.53623,0.02359
4312.60751,0.02334
4310.67880,0.02326
4308.75008,0.02376
4306.82137,0.02402
4304.89265,0.02329
4302.96394,0.02251
4301.03522,0.02258
4299.10651,0.02288
4297.17779,0.02294
4295.24908,0.02297
4293.32036,0.02310
4291.39165,0.02325
4289.46293,0.02304
4287.53422,0.02225
4285.60550,0.02142
4283.67678,0.02120
4281.74807,0.02196
4279.81935,0.02318
4277.89064,0.02368
4275.96192,0.02308
4274.03321,0.02250
4272.10449,0.02280
4270.17578,0.02328
4268.24706,0.02328
4266.31835,0.02333
4264.38963,0.02371
4262.46092,0.02387
4260.53220,0.02354
4258.60348,0.02316
4256.67477,0.02300
4254.74605,0.02309
4252.81734,0.02364
4250.88862,0.02421
4248.95991,0.02378
4247.03119,0.02263
4245.10248,0.02221
4243.17376,0.02282
4241.24505,0.02328
4239.31633,0.02301
4237.38762,0.02267
4235.45890,0.02279
4233.53019,0.02306
4231.60147,0.02341
4229.67275,0.02393
4227.74404,0.02395
4225.81532,0.02308
4223.88661,0.02222
4221.95789,0.02211
4220.02918,0.02249
4218.10046,0.02290
4216.17175,0.02313
4214.24303,0.02326
4212.31432,0.02360
4210.38560,0.02405
4208.45689,0.02374
4206.52817,0.02295
4204.59946,0.02311
4202.67074,0.02388
4200.74202,0.02377
4198.81331,0.02283
4196.88459,0.02238
4194.95588,0.02293
4193.02716,0.02364
4191.09845,0.02373
4189.16973,0.02339
4187.24102,0.02288
4185.31230,0.02218
4183.38359,0.02186
4181.45487,0.02253
4179.52616,0.02347
4177.59744,0.02398
4175.66873,0.02428
4173.74001,0.02414
4171.81129,0.02347
4169.88258,0.02302
4167.95386,0.02305
4166.02515,0.02305
4164.09643,0.02282
4162.16772,0.02271
4160.23900,0.02280
4158.31029,0.02297
4156.38157,0.02323
4154.45286,0.02348
4152.52414,0.02369
4150.59543,0.02417
4148.66671,0.02473
4146.73799,0.02464
4144.80928,0.02380
4142.88056,0.02328
4140.95185,0.02357
4139.02313,0.02381
4137.09442,0.02352
4135.16570,0.02334
4133.23699,0.02326
4131.30827,0.02276
4129.37956,0.02212
4127.45084,0.02190
4125.52213,0.02217
4123.59341,0.02262
4121.66470,0.02302
4119.73598,0.02324
4117.80726,0.02308
4115.87855,0.02283
4113.94983,0.02297
4112.02112,0.02342
4110.09240,0.02365
4108.16369,0.02354
4106.23497,0.02336
4104.30626,0.02334
4102.37754,0.02320
4100.44883,0.02274
4098.52011,0.02235
4096.59140,0.02223
4094.66268,0.02248
4092.73397,0.02302
4090.80525,0.02321
4088.87653,0.02321
4086.94782,0.02350
4085.01910,0.02371
4083.09039,0.02359
4081.16167,0.02312
4079.23296,0.02247
4077.30424,0.02222
4075.37553,0.02246
4073.44681,0.02270
4071.51810,0.02281
4069.58938,0.02295
4067.66067,0.02312
4065.73195,0.02321
4063.80323,0.02321
4061.87452,0.02321
4059.94580,0.02320
4058.01709,0.02317
4056.08837,0.02296
4054.15966,0.02245
4052.23094,0.02199
4050.30223,0.02205
4048.37351,0.02263
4046.44480,0.02327
4044.51608,0.02356
4042.58737,0.02342
4040.65865,0.02325
4038.72994,0.02353
4036.80122,0.02393
4034.87250,0.02398
4032.94379,0.02377
4031.01507,0.02348
4029.08636,0.02301
4027.15764,0.02250
4025.22893,0.02249
4023.30021,0.02303
4021.37150,0.02344
4019.44278,0.02349
4017.51407,0.02351
4015.58535,0.02359
4013.65664,0.02366
4011.72792,0.02377
4009.79921,0.02371
4007.87049,0.02349
4005.94177,0.02342
4004.01306,0.02336
4002.08434,0.02288
4000.15563,0.02220
3998.22691,0.02184
3996.29820,0.02200
3994.36948,0.02250
3992.44077,0.02290
3990.51205,0.02309
3988.58334,0.02315
3986.65462,0.02293
3984.72591,0.02256
3982.79719,0.02222
3980.86848,0.02218
3978.93976,0.02248
3977.01104,0.02274
3975.08233,0.02279
3973.15361,0.02277
3971.22490,0.02275
3969.29618,0.02276
3967.36747,0.02285
3965.43875,0.02296
3963.51004,0.02303
3961.58132,0.02277
3959.65261,0.02216
3957.72389,0.02195
3955.79518,0.02242
3953.86646,0.02310
3951.93774,0.02345
3950.00903,0.02337
3948.08031,0.02332
3946.15160,0.02339
3944.22288,0.02319
3942.29417,0.02288
3940.36545,0.02292
3938.43674,0.02331
3936.50802,0.02367
3934.57931,0.02389
3932.65059,0.02414
3930.72188,0.02459
3928.79316,0.02482
3926.86445,0.02446
3924.93573,0.02404
3923.00701,0.02389
3921.07830,0.02348
3919.14958,0.02291
3917.22087,0.02290
3915.29215,0.02356
3913.36344,0.02412
3911.43472,0.02412
3909.50601,0.02396
3907.57729,0.02404
3905.64858,0.02434
3903.71986,0.02456
3901.79115,0.02428
3899.86243,0.02385
3897.93372,0.02368
3896.00500,0.02372
3894.07628,0.02403
3892.14757,0.02431
3890.21885,0.02419
3888.29014,0.02397
3886.36142,0.02359
3884.43271,0.02310
3882.50399,0.02276
3880.57528,0.02232
3878.64656,0.02216
3876.71785,0.02249
3874.78913,0.02299
3872.86042,0.02377
3870.93170,0.02451
3869.00298,0.02450
3867.07427,0.02391
3865.14555,0.02334
3863.21684,0.02315
3861.28812,0.02319
3859.35941,0.02313
3857.43069,0.02293
3855.50198,0.02266
3853.57326,0.02261
3851.64455,0.02318
3849.71583,0.02386
3847.78712,0.02409
3845.85840,0.02385
3843.92969,0.02342
3842.00097,0.02280
3840.07225,0.02220
3838.14354,0.02254
3836.21482,0.02374
3834.28611,0.02445
3832.35739,0.02453
3830.42868,0.02430
3828.49996,0.02361
3826.57125,0.02276
3824.64253,0.02249
3822.71382,0.02279
3820.78510,0.02317
3818.85639,0.02326
3816.92767,0.02302
3814.99896,0.02280
3813.07024,0.02296
3811.14152,0.02333
3809.21281,0.02376
3807.28409,0.02398
3805.35538,0.02382
3803.42666,0.02342
3801.49795,0.02309
3799.56923,0.02325
3797.64052,0.02327
3795.71180,0.02302
3793.78309,0.02299
3791.85437,0.02312
3789.92566,0.02327
3787.99694,0.02347
3786.06823,0.02364
3784.13951,0.02355
3782.21079,0.02319
3780.28208,0.02292
3778.35336,0.02294
3776.42465,0.02296
3774.49593,0.02275
3772.56722,0.02254
3770.63850,0.02276
3768.70979,0.02326
3766.78107,0.02333
3764.85236,0.02292
3762.92364,0.02263
3760.99493,0.02280
3759.06621,0.02343
3757.13749,0.02405
3755.20878,0.02427
3753.28006,0.02426
3751.35135,0.02416
3749.42263,0.02415
3747.49392,0.02449
3745.56520,0.02473
3743.63649,0.02420
3741.70777,0.02370
3739.77906,0.02358
3737.85034,0.02340
3735.92163,0.02338
3733.99291,0.02357
3732.06420,0.02375
3730.13548,0.02392
3728.20676,0.02364
3726.27805,0.02302
3724.34933,0.02294
3722.42062,0.02326
3720.49190,0.02321
3718.56319,0.02310
3716.63447,0.02330
3714.70576,0.02349
3712.77704,0.02329
3710.84833,0.02279
3708.91961,0.02274
3706.99090,0.02309
3705.06218,0.02342
3703.13347,0.02354
3701.20475,0.02368
3699.27603,0.02394
3697.34732,0.02387
3695.41860,0.02348
3693.48989,0.02351
3691.56117,0.02427
3689.63246,0.02465
3687.70374,0.02401
3685.77503,0.02368
3683.84631,0.02365
3681.91760,0.02353
3679.98888,0.02370
3678.06017,0.02428
3676.13145,0.02438
3674.20273,0.02386
3672.27402,0.02370
3670.34530,0.02360
3668.41659,0.02354
3666.48787,0.02363
3664.55916,0.02369
3662.63044,0.02361
3660.70173,0.02319
3658.77301,0.02248
3656.84430,0.02185
3654.91558,0.02188
3652.98687,0.02260
3651.05815,0.02342
3649.12944,0.02378
3647.20072,0.02385
3645.27200,0.02366
3643.34329,0.02308
3641.41457,0.02224
3639.48586,0.02160
3637.55714,0.02175
3635.62843,0.02233
3633.69971,0.02249
3631.77100,0.02215
3629.84228,0.02168
3627.91357,0.02201
3625.98485,0.02299
3624.05614,0.02329
3622.12742,0.02292
3620.19871,0.02274
3618.26999,0.02326
3616.34127,0.02365
3614.41256,0.02360
3612.48384,0.02342
3610.55513,0.02323
3608.62641,0.02305
3606.69770,0.02311
3604.76898,0.02331
3602.84027,0.02310
3600.91155,0.02240
3598.98284,0.02185
3597.05412,0.02162
3595.12541,0.02163
3593.19669,0.02180
3591.26798,0.02173
3589.33926,0.02181
3587.41054,0.02228
3585.48183,0.02212
3583.55311,0.02158
3581.62440,0.02149
3579.69568,0.02173
3577.76697,0.02195
3575.83825,0.02180
3573.90954,0.02145
3571.98082,0.02136
3570.05211,0.02144
3568.12339,0.02144
3566.19468,0.02153
3564.26596,0.02180
3562.33724,0.02184
3560.40853,0.02152
3558.47981,0.02108
3556.55110,0.02089
3554.62238,0.02104
3552.69367,0.02140
3550.76495,0.02165
3548.83624,0.02156
3546.90752,0.02133
3544.97881,0.02134
3543.05009,0.02152
3541.12138,0.02155
3539.19266,0.02151
3537.26395,0.02151
3535.33523,0.02145
3533.40651,0.02154
3531.47780,0.02175
3529.54908,0.02166
3527.62037,0.02138
3525.69165,0.02129
3523.76294,0.02136
3521.83422,0.02169
3519.90551,0.02219
3517.97679,0.02235
3516.04808,0.02212
3514.11936,0.02196
3512.19065,0.02192
3510.26193,0.02171
3508.33322,0.02162
3506.40450,0.02198
3504.47578,0.02246
3502.54707,0.02245
3500.61835,0.02211
3498.68964,0.02200
3496.76092,0.02206
3494.83221,0.02218
3492.90349,0.02234
3490.97478,0.02211
3489.04606,0.02166
3487.11735,0.02146
3485.18863,0.02145
3483.25992,0.02153
3481.33120,0.02157
3479.40248,0.02130
3477.47377,0.02079
3475.54505,0.02050
3473.61634,0.02072
3471.68762,0.02105
3469.75891,0.02115
3467.83019,0.02119
3465.90148,0.02122
3463.97276,0.02091
3462.04405,0.02039
3460.11533,0.02045
3458.18662,0.02091
3456.25790,0.02102
3454.32919,0.02099
3452.40047,0.02120
3450.47175,0.02138
3448.54304,0.02143
3446.61432,0.02159
3444.68561,0.02157
3442.75689,0.02116
3440.82818,0.02076
3438.89946,0.02058
3436.97075,0.02076
3435.04203,0.02135
3433.11332,0.02183
3431.18460,0.02178
3429.25589,0.02137
3427.32717,0.02110
3425.39846,0.02119
3423.46974,0.02107
3421.54102,0.02072
3419.61231,0.02101
3417.68359,0.02175
3415.75488,0.02218
3413.82616,0.02234
3411.89745,0.02254
3409.96873,0.02277
3408.04002,0.02258
3406.11130,0.02189
3404.18259,0.02131
3402.25387,0.02108
3400.32516,0.02118
3398.39644,0.02149
3396.46773,0.02160
3394.53901,0.02151
3392.61029,0.02145
3390.68158,0.02159
3388.75286,0.02169
3386.82415,0.02134
3384.89543,0.02091
3382.96672,0.02112
3381.03800,0.02169
3379.10929,0.02190
3377.18057,0.02158
3375.25186,0.02104
3373.32314,0.02069
3371.39443,0.02049
3369.46571,0.02027
3367.53699,0.02037
3365.60828,0.02077
3363.67956,0.02104
3361.75085,0.02119
3359.82213,0.02120
3357.89342,0.02094
3355.96470,0.02072
3354.03599,0.02066
3352.10727,0.02053
3350.17856,0.02056
3348.24984,0.02092
3346.32113,0.02126
3344.39241,0.02142
3342.46370,0.02160
3340.53498,0.02188
3338.60626,0.02204
3336.67755,0.02178
3334.74883,0.02134
3332.82012,0.02113
3330.89140,0.02102
3328.96269,0.02073
3327.03397,0.02051
3325.10526,0.02069
3323.17654,0.02105
3321.24783,0.02118
3319.31911,0.02108
3317.39040,0.02125
3315.46168,0.02180
3313.53297,0.02204
3311.60425,0.02175
3309.67553,0.02131
3307.74682,0.02098
3305.81810,0.02068
3303.88939,0.02035
3301.96067,0.02039
3300.03196,0.02092
3298.10324,0.02129
3296.17453,0.02109
3294.24581,0.02084
3292.31710,0.02111
3290.38838,0.02168
3288.45967,0.02166
3286.53095,0.02110
3284.60223,0.02090
3282.67352,0.02126
3280.74480,0.02156
3278.81609,0.02147
3276.88737,0.02116
3274.95866,0.02096
3273.02994,0.02122
3271.10123,0.02198
3269.17251,0.02237
3267.24380,0.02199
3265.31508,0.02156
3263.38637,0.02152
3261.45765,0.02164
3259.52894,0.02186
3257.60022,0.02217
3255.67150,0.02238
3253.74279,0.02246
3251.81407,0.02235
3249.88536,0.02198
3247.95664,0.02163
3246.02793,0.02157
3244.09921,0.02151
3242.17050,0.02135
3240.24178,0.02142
3238.31307,0.02149
3236.38435,0.02123
3234.45564,0.02094
3232.52692,0.02095
3230.59821,0.02125
3228.66949,0.02150
3226.74077,0.02166
3224.81206,0.02197
3222.88334,0.02220
3220.95463,0.02214
3219.02591,0.02178
3217.09720,0.02128
3215.16848,0.02109
3213.23977,0.02132
3211.31105,0.02149
3209.38234,0.02135
3207.45362,0.02115
3205.52491,0.02119
3203.59619,0.02155
3201.66748,0.02193
3199.73876,0.02191
3197.81004,0.02168
3195.88133,0.02161
3193.95261,0.02164
3192.02390,0.02172
3190.09518,0.02192
3188.16647,0.02224
3186.23775,0.02255
3184.30904,0.02244
3182.38032,0.02193
3180.45161,0.02159
3178.52289,0.02151
3176.59418,0.02147
3174.66546,0.02124
3172.73674,0.02096
3170.80803,0.02121
3168.87931,0.02180
3166.95060,0.02200
3165.02188,0.02185
3163.09317,0.02168
3161.16445,0.02151
3159.23574,0.02155
3157.30702,0.02186
3155.37831,0.02204
3153.44959,0.02197
3151.52088,0.02180
3149.59216,0.02158
3147.66345,0.02157
3145.73473,0.02201
3143.80601,0.02234
3141.87730,0.02211
3139.94858,0.02183
3138.01987,0.02190
3136.09115,0.02213
3134.16244,0.02232
3132.23372,0.02234
3130.30501,0.02214
3128.37629,0.02203
3126.44758,0.02217
3124.51886,0.02239
3122.59015,0.02253
3120.66143,0.02255
3118.73272,0.02238
3116.80400,0.02205
3114.87528,0.02178
3112.94657,0.02186
3111.01785,0.02217
3109.08914,0.02239
3107.16042,0.02241
3105.23171,0.02230
3103.30299,0.02231
3101.37428,0.02247
3099.44556,0.02244
3097.51685,0.02223
3095.58813,0.02213
3093.65942,0.02207
3091.73070,0.02187
3089.80198,0.02174
3087.87327,0.02191
3085.94455,0.02206
3084.01584,0.02202
3082.08712,0.02203
3080.15841,0.02215
3078.22969,0.02220
3076.30098,0.02210
3074.37226,0.02187
3072.44355,0.02175
3070.51483,0.02203
3068.58612,0.02236
3066.65740,0.02222
3064.72869,0.02184
3062.79997,0.02186
3060.87125,0.02212
3058.94254,0.02211
3057.01382,0.02187
3055.08511,0.02186
3053.15639,0.02206
3051.22768,0.02221
3049.29896,0.02206
3047.37025,0.02170
3045.44153,0.02161
3043.51282,0.02195
3041.58410,0.02221
3039.65539,0.02213
3037.72667,0.02197
3035.79796,0.02188
3033.86924,0.02181
3031.94052,0.02177
3030.01181,0.02182
3028.08309,0.02186
3026.15438,0.02170
3024.22566,0.02144
3022.29695,0.02141
3020.36823,0.02146
3018.43952,0.02135
3016.51080,0.02142
3014.58209,0.02175
3012.65337,0.02194
3010.72466,0.02202
3008.79594,0.02204
3006.86723,0.02183
3004.93851,0.02162
3003.00979,0.02158
3001.08108,0.02164
2999.15236,0.02169
2997.22365,0.02165
2995.29493,0.02144
2993.36622,0.02111
2991.43750,0.02091
2989.50879,0.02096
2987.58007,0.02104
2985.65136,0.02112
2983.72264,0.02120
2981.79393,0.02118
2979.86521,0.02120
2977.93649,0.02125
2976.00778,0.02120
2974.07906,0.02113
2972.15035,0.02089
2970.22163,0.02058
2968.29292,0.02044
2966.36420,0.02050
2964.43549,0.02068
2962.50677,0.02094
2960.57806,0.02121
2958.64934,0.02129
2956.72063,0.02103
2954.79191,0.02059
2952.86320,0.02027
2950.93448,0.02032
2949.00576,0.02061
2947.07705,0.02084
2945.14833,0.02094
2943.21962,0.02089
2941.29090,0.02072
2939.36219,0.02077
2937.43347,0.02108
2935.50476,0.02118
2933.57604,0.02104
2931.64733,0.02093
2929.71861,0.02088
2927.78990,0.02092
2925.86118,0.02098
2923.93247,0.02089
2922.00375,0.02070
2920.07503,0.02077
2918.14632,0.02112
2916.21760,0.02148
2914.28889,0.02165
2912.36017,0.02169
2910.43146,0.02181
2908.50274,0.02198
2906.57403,0.02189
2904.64531,0.02158
2902.71660,0.02132
2900.78788,0.02130
2898.85917,0.02146
2896.93045,0.02149
2895.00173,0.02131
2893.07302,0.02127
2891.14430,0.02154
2889.21559,0.02190
2887.28687,0.02209
2885.35816,0.02208
2883.42944,0.02208
2881.50073,0.02229
2879.57201,0.02242
2877.64330,0.02225
2875.71458,0.02208
2873.78587,0.02192
2871.85715,0.02157
2869.92844,0.02125
2867.99972,0.02117
2866.07100,0.02128
2864.14229,0.02158
2862.21357,0.02183
2860.28486,0.02181
2858.35614,0.02184
2856.42743,0.02203
2854.49871,0.02198
2852.57000,0.02185
2850.64128,0.02197
2848.71257,0.02193
2846.78385,0.02143
2844.85514,0.02106
2842.92642,0.02127
2840.99771,0.02175
2839.06899,0.02205
2837.14027,0.02215
2835.21156,0.02215
2833.28284,0.02202
2831.35413,0.02201
2829.42541,0.02234
2827.49670,0.02251
2825.56798,0.02212
2823.63927,0.02165
2821.71055,0.02167
2819.78184,0.02195
2817.85312,0.02224
2815.92441,0.02249
2813.99569,0.02263
2812.06698,0.02276
2810.13826,0.02285
2808.20954,0.02270
2806.28083,0.02241
2804.35211,0.02220
2802.42340,0.02209
2800.49468,0.02206
2798.56597,0.02206
2796.63725,0.02220
2794.70854,0.02251
2792.77982,0.02261
2790.85111,0.02238
2788.92239,0.02225
2786.99368,0.02237
2785.06496,0.02254
2783.13624,0.02257
2781.20753,0.02245
2779.27881,0.02236
2777.35010,0.02229
2775.42138,0.02226
2773.49267,0.02243
2771.56395,0.02254
2769.63524,0.02233
2767.70652,0.02204
2765.77781,0.02191
2763.84909,0.02190
2761.92038,0.02193
2759.99166,0.02193
2758.06295,0.02181
2756.13423,0.02188
2754.20551,0.02234
2752.27680,0.02278
2750.34808,0.02290
2748.41937,0.02274
2746.49065,0.02250
2744.56194,0.02239
2742.63322,0.02245
2740.70451,0.02256
2738.77579,0.02258
2736.84708,0.02260
2734.91836,0.02264
2732.98965,0.02255
2731.06093,0.02237
2729.13222,0.02217
2727.20350,0.02198
2725.27478,0.02181
2723.34607,0.02182
2721.41735,0.02200
2719.48864,0.02221
2717.55992,0.02244
2715.63121,0.02257
2713.70249,0.02249
2711.77378,0.02242
2709.84506,0.02241
2707.91635,0.02230
2705.98763,0.02216
2704.05892,0.02199
2702.13020,0.02176
2700.20149,0.02179
2698.27277,0.02210
2696.34405,0.02231
2694.41534,0.02235
2692.48662,0.02232
2690.55791,0.02227
2688.62919,0.02217
2686.70048,0.02199
2684.77176,0.02203
2682.84305,0.02239
2680.91433,0.02268
2678.98562,0.02272
2677.05690,0.02281
2675.12819,0.02285
2673.19947,0.02258
2671.27075,0.02225
2669.34204,0.02218
2667.41332,0.02224
2665.48461,0.02236
2663.55589,0.02248
2661.62718,0.02255
2659.69846,0.02266
2657.76975,0.02270
2655.84103,0.02252
2653.91232,0.02232
2651.98360,0.02239
2650.05489,0.02262
2648.12617,0.02281
2646.19746,0.02298
2644.26874,0.02299
2642.34002,0.02273
2640.41131,0.02241
2638.48259,0.02218
2636.55388,0.02220
2634.62516,0.02243
2632.69645,0.02256
2630.76773,0.02248
2628.83902,0.02233
2626.91030,0.02219
2624.98159,0.02197
2623.05287,0.02168
2621.12416,0.02168
2619.19544,0.02196
2617.26673,0.02232
2615.33801,0.02256
2613.40929,0.02251
2611.48058,0.02233
2609.55186,0.02236
2607.62315,0.02255
2605.69443,0.02273
2603.76572,0.02288
2601.83700,0.02290
2599.90829,0.02267
2597.97957,0.02248
2596.05086,0.02244
2594.12214,0.02240
2592.19343,0.02239
2590.26471,0.02237
2588.33599,0.02229
2586.40728,0.02234
2584.47856,0.02238
2582.54985,0.02228
2580.62113,0.02229
2578.69242,0.02237
2576.76370,0.02222
2574.83499,0.02205
2572.90627,0.02207
2570.97756,0.02200
2569.04884,0.02191
2567.12013,0.02221
2565.19141,0.02256
2563.26270,0.02237
2561.33398,0.02192
2559.40526,0.02184
2557.47655,0.02226
2555.54783,0.02274
2553.61912,0.02287
2551.69040,0.02271
2549.76169,0.02249
2547.83297,0.02228
2545.90426,0.02228
2543.97554,0.02245
2542.04683,0.02255
2540.11811,0.02251
2538.18940,0.02250
2536.26068,0.02265
2534.33197,0.02276
2532.40325,0.02276
2530.47453,0.02273
2528.54582,0.02277
2526.61710,0.02285
2524.68839,0.02282
2522.75967,0.02269
2520.83096,0.02264
2518.90224,0.02269
2516.97353,0.02273
2515.04481,0.02261
2513.11610,0.02234
2511.18738,0.02228
2509.25867,0.02250
2507.32995,0.02263
2505.40124,0.02258
2503.47252,0.02264
2501.54380,0.02277
2499.61509,0.02262
2497.68637,0.02227
2495.75766,0.02205
2493.82894,0.02205
2491.90023,0.02223
2489.97151,0.02252
2488.04280,0.02272
2486.11408,0.02259
2484.18537,0.02228
2482.25665,0.02215
2480.32794,0.02224
2478.39922,0.02238
2476.47050,0.02245
2474.54179,0.02253
2472.61307,0.02260
2470.68436,0.02259
2468.75564,0.02261
2466.82693,0.02277
2464.89821,0.02283
2462.96950,0.02264
2461.04078,0.02225
2459.11207,0.02194
2457.18335,0.02196
2455.25464,0.02221
2453.32592,0.02255
2451.39721,0.02282
2449.46849,0.02290
2447.53977,0.02289
2445.61106,0.02294
2443.68234,0.02297
2441.75363,0.02285
2439.82491,0.02269
2437.89620,0.02263
2435.96748,0.02260
2434.03877,0.02259
2432.11005,0.02269
2430.18134,0.02274
2428.25262,0.02260
2426.32391,0.02244
2424.39519,0.02232
2422.46648,0.02217
2420.53776,0.02218
2418.60904,0.02236
2416.68033,0.02250
2414.75161,0.02253
2412.82290,0.02254
2410.89418,0.02259
2408.96547,0.02258
2407.03675,0.02248
2405.10804,0.02240
2403.17932,0.02243
2401.25061,0.02250
2399.32189,0.02254
2397.39318,0.02261
2395.46446,0.02266
2393.53574,0.02259
2391.60703,0.02258
2389.67831,0.02273
2387.74960,0.02290
2385.82088,0.02295
2383.89217,0.02291
2381.96345,0.02297
2380.03474,0.02329
2378.10602,0.02359
2376.17731,0.02355
2374.24859,0.02348
2372.31988,0.02376
2370.39116,0.02412
2368.46245,0.02424
2366.53373,0.02450
2364.60501,0.02495
2362.67630,0.02497
2360.74758,0.02456
2358.81887,0.02427
2356.89015,0.02426
2354.96144,0.02432
2353.03272,0.02413
2351.10401,0.02370
2349.17529,0.02337
2347.24658,0.02334
2345.31786,0.02358
2343.38915,0.02388
2341.46043,0.02404
2339.53172,0.02419
2337.60300,0.02432
2335.67428,0.02405
2333.74557,0.02356
2331.81685,0.02324
2329.88814,0.02317
2327.95942,0.02315
2326.03071,0.02286
2324.10199,0.02243
2322.17328,0.02238
2320.24456,0.02265
2318.31585,0.02297
2316.38713,0.02331
2314.45842,0.02346
2312.52970,0.02334
2310.60099,0.02314
2308.67227,0.02297
2306.74355,0.02278
2304.81484,0.02263
2302.88612,0.02250
2300.95741,0.02242
2299.02869,0.02250
2297.09998,0.02274
2295.17126,0.02294
2293.24255,0.02296
2291.31383,0.02285
2289.38512,0.02263
2287.45640,0.02236
2285.52769,0.02215
2283.59897,0.02212
2281.67025,0.02222
2279.74154,0.02231
2277.81282,0.02236
2275.88411,0.02255
2273.95539,0.02281
2272.02668,0.02290
2270.09796,0.02292
2268.16925,0.02295
2266.24053,0.02284
2264.31182,0.02262
2262.38310,0.02249
2260.45439,0.02243
2258.52567,0.02233
2256.59696,0.02225
2254.66824,0.02225
2252.73952,0.02230
2250.81081,0.02238
2248.88209,0.02253
2246.95338,0.02263
2245.02466,0.02254
2243.09595,0.02240
2241.16723,0.02239
2239.23852,0.02248
2237.30980,0.02255
2235.38109,0.02251
2233.45237,0.02248
2231.52366,0.02260
2229.59494,0.02281
2227.66623,0.02288
2225.73751,0.02274
2223.80879,0.02253
2221.88008,0.02243
2219.95136,0.02243
2218.02265,0.02248
2216.09393,0.02256
2214.16522,0.02261
2212.23650,0.02264
2210.30779,0.02263
2208.37907,0.02253
2206.45036,0.02243
2204.52164,0.02235
2202.59293,0.02234
2200.66421,0.02248
2198.73549,0.02271
2196.80678,0.02276
2194.87806,0.02255
2192.94935,0.02238
2191.02063,0.02249
2189.09192,0.02263
2187.16320,0.02255
2185.23449,0.02244
2183.30577,0.02243
2181.37706,0.02237
2179.44834,0.02224
2177.51963,0.02221
2175.59091,0.02232
2173.66220,0.02251
2171.73348,0.02279
2169.80476,0.02298
2167.87605,0.02286
2165.94733,0.02263
2164.01862,0.02258
2162.08990,0.02265
2160.16119,0.02267
2158.23247,0.02259
2156.30376,0.02247
2154.37504,0.02247
2152.44633,0.02268
2150.51761,0.02281
2148.58890,0.02272
2146.66018,0.02264
2144.73147,0.02260
2142.80275,0.02261
2140.87403,0.02267
2138.94532,0.02261
2137.01660,0.02249
2135.08789,0.02246
2133.15917,0.02255
2131.23046,0.02267
2129.30174,0.02276
2127.37303,0.02283
2125.44431,0.02284
2123.51560,0.02273
2121.58688,0.02259
2119.65817,0.02254
2117.72945,0.02259
2115.80074,0.02268
2113.87202,0.02274
2111.94330,0.02269
2110.01459,0.02253
2108.08587,0.02238
2106.15716,0.02240
2104.22844,0.02257
2102.29973,0.02260
2100.37101,0.02250
2098.44230,0.02245
2096.51358,0.02241
2094.58487,0.02244
2092.65615,0.02257
2090.72744,0.02265
2088.79872,0.02256
2086.87000,0.02249
2084.94129,0.02255
2083.01257,0.02255
2081.08386,0.02237
2079.15514,0.02227
2077.22643,0.02241
2075.29771,0.02249
2073.36900,0.02245
2071.44028,0.02254
2069.51157,0.02266
2067.58285,0.02262
2065.65414,0.02247
2063.72542,0.02238
2061.79671,0.02246
2059.86799,0.02254
2057.93927,0.02250
2056.01056,0.02243
2054.08184,0.02244
2052.15313,0.02245
2050.22441,0.02241
2048.29570,0.02242
2046.36698,0.02250
2044.43827,0.02255
2042.50955,0.02257
2040.58084,0.02259
2038.65212,0.02256
2036.72341,0.02251
2034.79469,0.02250
2032.86598,0.02245
2030.93726,0.02234
2029.00854,0.02230
2027.07983,0.02233
2025.15111,0.02230
2023.22240,0.02232
2021.29368,0.02245
2019.36497,0.02249
2017.43625,0.02241
2015.50754,0.02243
2013.57882,0.02255
2011.65011,0.02259
2009.72139,0.02253
2007.79268,0.02248
2005.86396,0.02248
2003.93524,0.02245
2002.00653,0.02238
2000.07781,0.02226
1998.14910,0.02223
1996.22038,0.02242
1994.29167,0.02265
1992.36295,0.02279
1990.43424,0.02288
1988.50552,0.02278
1986.57681,0.02260
1984.64809,0.02249
1982.71938,0.02237
1980.79066,0.02228
1978.86195,0.02233
1976.93323,0.02245
1975.00451,0.02254
1973.07580,0.02256
1971.14708,0.02251
1969.21837,0.02245
1967.28965,0.02237
1965.36094,0.02232
1963.43222,0.02227
1961.50351,0.02215
1959.57479,0.02211
1957.64608,0.02232
1955.71736,0.02258
1953.78865,0.02266
1951.85993,0.02262
1949.93122,0.02261
1948.00250,0.02269
1946.07378,0.02275
1944.14507,0.02259
1942.21635,0.02231
1940.28764,0.02221
1938.35892,0.02226
1936.43021,0.02227
1934.50149,0.02232
1932.57278,0.02237
1930.64406,0.02226
1928.71535,0.02220
1926.78663,0.02236
1924.85792,0.02244
1922.92920,0.02227
1921.00049,0.02223
1919.07177,0.02244
1917.14305,0.02254
1915.21434,0.02245
1913.28562,0.02246
1911.35691,0.02256
1909.42819,0.02258
1907.49948,0.02251
1905.57076,0.02242
1903.64205,0.02232
1901.71333,0.02219
1899.78462,0.02209
1897.85590,0.02210
1895.92719,0.02225
1893.99847,0.02247
1892.06975,0.02255
1890.14104,0.02241
1888.21232,0.02227
1886.28361,0.02221
1884.35489,0.02207
1882.42618,0.02193
1880.49746,0.02196
1878.56875,0.02209
1876.64003,0.02214
1874.71132,0.02210
1872.78260,0.02203
1870.85389,0.02213
1868.92517,0.02242
1866.99646,0.02244
1865.06774,0.02227
1863.13902,0.02230
1861.21031,0.02238
1859.28159,0.02229
1857.35288,0.02218
1855.42416,0.02212
1853.49545,0.02205
1851.56673,0.02206
1849.63802,0.02212
1847.70930,0.02211
1845.78059,0.02204
1843.85187,0.02198
1841.92316,0.02192
1839.99444,0.02194
1838.06573,0.02209
1836.13701,0.02219
1834.20829,0.02215
1832.27958,0.02214
1830.35086,0.02212
1828.42215,0.02197
1826.49343,0.02195
1824.56472,0.02212
1822.63600,0.02222
1820.70729,0.02216
1818.77857,0.02199
1816.84986,0.02183
1814.92114,0.02185
1812.99243,0.02208
1811.06371,0.02224
1809.13499,0.02203
1807.20628,0.02171
1805.27756,0.02166
1803.34885,0.02177
1801.42013,0.02167
1799.49142,0.02152
1797.56270,0.02158
1795.63399,0.02169
1793.70527,0.02172
1791.77656,0.02159
1789.84784,0.02131
1787.91913,0.02105
1785.99041,0.02089
1784.06170,0.02087
1782.13298,0.02101
1780.20426,0.02119
1778.27555,0.02122
1776.34683,0.02119
1774.41812,0.02130
1772.48940,0.02141
1770.56069,0.02118
1768.63197,0.02059
1766.70326,0.02000
1764.77454,0.01969
1762.84583,0.01951
1760.91711,0.01944
1758.98840,0.01951
1757.05968,0.01937
1755.13097,0.01909
1753.20225,0.01900
1751.27353,0.01900
1749.34482,0.01898
1747.41610,0.01910
1745.48739,0.01940
1743.55867,0.01977
1741.62996,0.02005
1739.70124,0.02021
1737.77253,0.02047
1735.84381,0.02089
1733.91510,0.02129
1731.98638,0.02145
1730.05767,0.02146
1728.12895,0.02149
1726.20024,0.02163
1724.27152,0.02186
1722.34280,0.02217
1720.41409,0.02258
1718.48537,0.02297
1716.55666,0.02282
1714.62794,0.02231
1712.69923,0.02212
1710.77051,0.02210
1708.84180,0.02214
1706.91308,0.02216
1704.98437,0.02190
1703.05565,0.02151
1701.12694,0.02130
1699.19822,0.02151
1697.26950,0.02161
1695.34079,0.02126
1693.41207,0.02108
1691.48336,0.02117
1689.55464,0.02120
1687.62593,0.02096
1685.69721,0.02036
1683.76850,0.01965
1681.83978,0.01975
1679.91107,0.02018
1677.98235,0.02060
1676.05364,0.02107
1674.12492,0.02138
1672.19621,0.02123
1670.26749,0.02057
1668.33877,0.01988
1666.41006,0.01983
1664.48134,0.02006
1662.55263,0.02022
1660.62391,0.02030
1658.69520,0.02043
1656.76648,0.02088
1654.83777,0.02164
1652.90905,0.02152
1650.98034,0.02070
1649.05162,0.02047
1647.12291,0.02031
1645.19419,0.02029
1643.26548,0.02048
1641.33676,0.02058
1639.40804,0.02069
1637.47933,0.02085
1635.55061,0.02064
1633.62190,0.02037
1631.69318,0.02041
1629.76447,0.02045
1627.83575,0.02045
1625.90704,0.02059
1623.97832,0.02075
1622.04961,0.02073
1620.12089,0.02077
1618.19218,0.02087
1616.26346,0.02069
1614.33474,0.02044
1612.40603,0.02048
1610.47731,0.02077
1608.54860,0.02101
1606.61988,0.02093
1604.69117,0.02069
1602.76245,0.02060
1600.83374,0.02073
1598.90502,0.02085
1596.97631,0.02079
1595.04759,0.02071
1593.11888,0.02077
1591.19016,0.02091
1589.26145,0.02086
1587.33273,0.02056
1585.40401,0.02022
1583.47530,0.01993
1581.54658,0.01993
1579.61787,0.02042
1577.68915,0.02088
1575.76044,0.02066
1573.83172,0.02038
1571.90301,0.02048
1569.97429,0.02048
1568.04558,0.02013
1566.11686,0.01985
1564.18815,0.01988
1562.25943,0.02025
1560.33072,0.02079
1558.40200,0.02067
1556.47328,0.02000
1554.54457,0.01985
1552.61585,0.02001
1550.68714,0.02019
1548.75842,0.02023
1546.82971,0.02024
1544.90099,0.02033
1542.97228,0.02061
1541.04356,0.02093
1539.11485,0.02077
1537.18613,0.02061
1535.25742,0.02081
1533.32870,0.02110
1531.39999,0.02105
1529.47127,0.02076
1527.54255,0.02040
1525.61384,0.02011
1523.68512,0.02010
1521.75641,0.02037
1519.82769,0.02069
1517.89898,0.02097
1515.97026,0.02107
1514.04155,0.02084
1512.11283,0.02052
1510.18412,0.02041
1508.25540,0.02051
1506.32669,0.02049
1504.39797,0.02050
1502.46925,0.02064
1500.54054,0.02083
1498.61182,0.02092
1496.68311,0.02075
1494.75439,0.02062
1492.82568,0.02072
1490.89696,0.02079
1488.96825,0.02070
1487.03953,0.02065
1485.11082,0.02064
1483.18210,0.02059
1481.25339,0.02055
1479.32467,0.02052
1477.39596,0.02048
1475.46724,0.02042
1473.53852,0.02031
1471.60981,0.02007
1469.68109,0.01987
1467.75238,0.01979
1465.82366,0.01979
1463.89495,0.01987
1461.96623,0.02010
1460.03752,0.02053
1458.10880,0.02089
1456.18009,0.02052
1454.25137,0.02016
1452.32266,0.02019
1450.39394,0.02026
1448.46523,0.02024
1446.53651,0.02018
1444.60779,0.02023
1442.67908,0.02034
1440.75036,0.02044
1438.82165,0.02054
1436.89293,0.02040
1434.96422,0.02000
1433.03550,0.01990
1431.10679,0.01996
1429.17807,0.01984
1427.24936,0.01966
1425.32064,0.01963
1423.39193,0.01971
1421.46321,0.01990
1419.53449,0.01998
1417.60578,0.01977
1415.67706,0.01962
1413.74835,0.01963
1411.81963,0.01960
1409.89092,0.01946
1407.96220,0.01947
1406.03349,0.01978
1404.10477,0.02008
1402.17606,0.02011
1400.24734,0.02010
1398.31863,0.02021
1396.38991,0.02025
1394.46120,0.02009
1392.53248,0.01989
1390.60376,0.01975
1388.67505,0.01973
1386.74633,0.01979
1384.81762,0.01981
1382.88890,0.01982
1380.96019,0.01982
1379.03147,0.01972
1377.10276,0.01957
1375.17404,0.01963
1373.24533,0.01983
1371.31661,0.01987
1369.38790,0.01982
1367.45918,0.01980
1365.53047,0.01982
1363.60175,0.01979
1361.67303,0.01961
1359.74432,0.01940
1357.81560,0.01931
1355.88689,0.01933
1353.95817,0.01938
1352.02946,0.01937
1350.10074,0.01925
1348.17203,0.01905
1346.24331,0.01897
1344.31460,0.01907
1342.38588,0.01926
1340.45717,0.01945
1338.52845,0.01954
1336.59974,0.01945
1334.67102,0.01934
1332.74230,0.01930
1330.81359,0.01922
1328.88487,0.01904
1326.95616,0.01884
1325.02744,0.01878
1323.09873,0.01883
1321.17001,0.01880
1319.24130,0.01866
1317.31258,0.01849
1315.38387,0.01842
1313.45515,0.01839
1311.52644,0.01835
1309.59772,0.01836
1307.66900,0.01844
1305.74029,0.01858
1303.81157,0.01867
1301.88286,0.01875
1299.95414,0.01890
1298.02543,0.01891
1296.09671,0.01879
1294.16800,0.01885
1292.23928,0.01920
1290.31057,0.01953
1288.38185,0.01964
1286.45314,0.01982
1284.52442,0.02011
1282.59571,0.02018
1280.66699,0.02007
1278.73827,0.02014
1276.80956,0.02031
1274.88084,0.02040
1272.95213,0.02051
1271.02341,0.02071
1269.09470,0.02086
1267.16598,0.02085
1265.23727,0.02078
1263.30855,0.02087
1261.37984,0.02112
1259.45112,0.02122
1257.52241,0.02119
1255.59369,0.02123
1253.66498,0.02134
1251.73626,0.02149
1249.80754,0.02162
1247.87883,0.02161
1245.95011,0.02149
1244.02140,0.02133
1242.09268,0.02129
1240.16397,0.02151
1238.23525,0.02159
1236.30654,0.02132
1234.37782,0.02108
1232.44911,0.02109
1230.52039,0.02109
1228.59168,0.02098
1226.66296,0.02100
1224.73424,0.02113
1222.80553,0.02123
1220.87681,0.02128
1218.94810,0.02122
1217.01938,0.02107
1215.09067,0.02088
1213.16195,0.02061
1211.23324,0.02053
1209.30452,0.02082
1207.37581,0.02111
1205.44709,0.02094
1203.51838,0.02042
1201.58966,0.01997
1199.66095,0.01966
1197.73223,0.01954
1195.80351,0.01963
1193.87480,0.01968
1191.94608,0.01964
1190.01737,0.01967
1188.08865,0.01975
1186.15994,0.01963
1184.23122,0.01946
1182.30251,0.01950
1180.37379,0.01960
1178.44508,0.01963
1176.51636,0.01963
1174.58765,0.01950
1172.65893,0.01930
1170.73022,0.01937
1168.80150,0.01964
1166.87278,0.01968
1164.94407,0.01947
1163.01535,0.01922
1161.08664,0.01903
1159.15792,0.01903
1157.22921,0.01910
1155.30049,0.01911
1153.37178,0.01910
1151.44306,0.01915
1149.51435,0.01934
1147.58563,0.01963
1145.65692,0.01968
1143.72820,0.01935
1141.79949,0.01905
1139.87077,0.01912
1137.94205,0.01944
1136.01334,0.01967
1134.08462,0.01974
1132.15591,0.01972
1130.22719,0.01962
1128.29848,0.01956
1126.36976,0.01967
1124.44105,0.01979
1122.51233,0.01999
1120.58362,0.02033
1118.65490,0.02047
1116.72619,0.02029
1114.79747,0.02019
1112.86875,0.02029
1110.94004,0.02029
1109.01132,0.02006
1107.08261,0.01983
1105.15389,0.01984
1103.22518,0.01990
1101.29646,0.01991
1099.36775,0.02010
1097.43903,0.02029
1095.51032,0.02030
1093.58160,0.02043
1091.65289,0.02059
1089.72417,0.02032
1087.79546,0.01971
1085.86674,0.01927
1083.93802,0.01939
1082.00931,0.01992
1080.08059,0.02036
1078.15188,0.02044
1076.22316,0.02037
1074.29445,0.02056
1072.36573,0.02097
1070.43702,0.02143
1068.50830,0.02184
1066.57959,0.02207
1064.65087,0.02194
1062.72216,0.02156
1060.79344,0.02141
1058.86473,0.02136
1056.93601,0.02088
1055.00729,0.02036
1053.07858,0.02046
1051.14986,0.02087
1049.22115,0.02101
1047.29243,0.02088
1045.36372,0.02074
1043.43500,0.02083
1041.50629,0.02123
1039.57757,0.02164
1037.64886,0.02158
1035.72014,0.02105
1033.79143,0.02084
1031.86271,0.02135
1029.93399,0.02185
1028.00528,0.02175
1026.07656,0.02133
1024.14785,0.02098
1022.21913,0.02089
1020.29042,0.02111
1018.36170,0.02141
1016.43299,0.02141
1014.50427,0.02123
1012.57556,0.02131
1010.64684,0.02174
1008.71813,0.02218
1006.78941,0.02225
1004.86070,0.02212
1002.93198,0.02213
1001.00326,0.02237
999.07455,0.02272
997.14583,0.02292
995.21712,0.02277
993.28840,0.02251
991.35969,0.02231
989.43097,0.02211
987.50226,0.02195
985.57354,0.02199
983.64483,0.02217
981.71611,0.02230
979.78740,0.02238
977.85868,0.02250
975.92997,0.02251
974.00125,0.02229
972.07253,0.02205
970.14382,0.02187
968.21510,0.02172
966.28639,0.02155
964.35767,0.02155
962.42896,0.02181
960.50024,0.02181
958.57153,0.02142
956.64281,0.02130
954.71410,0.02155
952.78538,0.02171
950.85667,0.02172
948.92795,0.02170
946.99924,0.02178
945.07052,0.02202
943.14180,0.02223
941.21309,0.02230
939.28437,0.02216
937.35566,0.02184
935.42694,0.02156
933.49823,0.02134
931.56951,0.02107
929.64080,0.02078
927.71208,0.02068
925.78337,0.02082
923.85465,0.02097
921.92594,0.02113
919.99722,0.02144
918.06850,0.02163
916.13979,0.02147
914.21107,0.02115
912.28236,0.02091
910.35364,0.02077
908.42493,0.02075
906.49621,0.02076
904.56750,0.02079
902.63878,0.02086
900.71007,0.02091
898.78135,0.02106
896.85264,0.02137
894.92392,0.02164
892.99521,0.02189
891.06649,0.02207
889.13777,0.02189
887.20906,0.02139
885.28034,0.02089
883.35163,0.02055
881.42291,0.02058
879.49420,0.02087
877.56548,0.02089
875.63677,0.02065
873.70805,0.02050
871.77934,0.02033
869.85062,0.02028
867.92191,0.02059
865.99319,0.02093
864.06448,0.02109
862.13576,0.02133
860.20704,0.02130
858.27833,0.02068
856.34961,0.02021
854.42090,0.02038
852.49218,0.02065
850.56347,0.02049
848.63475,0.02023
846.70604,0.02040
844.77732,0.02075
842.84861,0.02070
840.91989,0.02038
838.99118,0.02019
837.06246,0.02022
835.13375,0.02041
833.20503,0.02049
831.27631,0.02036
829.34760,0.02023
827.41888,0.02025
825.49017,0.02045
823.56145,0.02072
821.63274,0.02085
819.70402,0.02077
817.77531,0.02060
815.84659,0.02034
813.91788,0.02008
811.98916,0.02015
810.06045,0.02045
808.13173,0.02061
806.20301,0.02091
804.27430,0.02142
802.34558,0.02159
800.41687,0.02116
798.48815,0.02057
796.55944,0.02024
794.63072,0.02024
792.70201,0.02048
790.77329,0.02069
788.84458,0.02055
786.91586,0.02029
784.98715,0.02039
783.05843,0.02067
781.12972,0.02048
779.20100,0.02006
777.27228,0.01996
775.34357,0.01986
773.41485,0.01937
771.48614,0.01897
769.55742,0.01898
767.62871,0.01924
765.69999,0.01958
763.77128,0.01988
761.84256,0.01983
759.91385,0.01941
757.98513,0.01919
756.05642,0.01936
754.12770,0.01947
752.19899,0.01923
750.27027,0.01886
748.34155,0.01867
746.41284,0.01873
744.48412,0.01894
742.55541,0.01951
740.62669,0.02013
738.69798,0.02017
736.76926,0.01984
734.84055,0.01953
732.91183,0.01917
730.98312,0.01886
729.05440,0.01885
727.12569,0.01895
725.19697,0.01906
723.26825,0.01934
721.33954,0.01971
719.41082,0.01996
717.48211,0.02002
715.55339,0.01988
713.62468,0.01947
711.69596,0.01882
709.76725,0.01852
707.83853,0.01900
705.90982,0.01957
703.98110,0.01979
702.05239,0.02010
700.12367,0.02036
698.19496,0.02016
696.26624,0.01970
694.33752,0.01918
692.40881,0.01879
690.48009,0.01885
688.55138,0.01899
686.62266,0.01877
684.69395,0.01880
682.76523,0.01932
680.83652,0.01952
678.90780,0.01953
676.97909,0.01976
675.05037,0.01981
673.12166,0.02001
671.19294,0.02032
669.26423,0.01960
667.33551,0.01842
665.40679,0.01845
663.47808,0.01872
661.54936,0.01843
659.62065,0.01825
657.69193,0.01854
655.76322,0.01850
653.83450,0.01774
651.90579,0.01694
649.97707,0.01648
648.04836,0.01594
646.11964,0.01557
644.19093,0.01620
642.26221,0.01718
640.33350,0.01781
638.40478,0.01837
636.47606,0.01855
634.54735,0.01831
632.61863,0.01836
630.68992,0.01822
628.76120,0.01785
626.83249,0.01830
624.90377,0.01892
622.97506,0.01901
621.04634,0.01908
619.11763,0.01858
617.18891,0.01733
615.26020,0.01640
613.33148,0.01589
611.40276,0.01574
609.47405,0.01667
607.54533,0.01807
605.61662,0.01878
603.68790,0.01894
601.75919,0.01846
599.83047,0.01725
