7496.91655,0.13305
7494.98784,0.12954
7493.05912,0.12500
7491.13041,0.12360
7489.20169,0.12589
7487.27297,0.12775
7485.34426,0.12773
7483.41554,0.12493
7481.48683,0.11781
7479.55811,0.11035
7477.62940,0.10743
7475.70068,0.11153
7473.77197,0.12120
7471.84325,0.12997
7469.91454,0.13391
7467.98582,0.13490
7466.05711,0.13278
7464.12839,0.12619
7462.19968,0.12010
7460.27096,0.12048
7458.34224,0.12399
7456.41353,0.12221
7454.48481,0.11476
7452.55610,0.11040
7450.62738,0.11489
7448.69867,0.12464
7446.76995,0.13387
7444.84124,0.13976
7442.91252,0.13808
7440.98381,0.13257
7439.05509,0.13143
7437.12638,0.12991
7435.19766,0.12268
7433.26895,0.11752
7431.34023,0.12008
7429.41151,0.12379
7427.48280,0.12195
7425.55408,0.11812
7423.62537,0.11666
7421.69665,0.11737
7419.76794,0.11810
7417.83922,0.11852
7415.91051,0.11897
7413.98179,0.11576
7412.05308,0.10926
7410.12436,0.10878
7408.19565,0.11540
7406.26693,0.11952
7404.33821,0.11850
7402.40950,0.11601
7400.48078,0.11362
7398.55207,0.11230
7396.62335,0.10982
7394.69464,0.10572
7392.76592,0.10440
7390.83721,0.10789
7388.90849,0.11193
7386.97978,0.11069
7385.05106,0.10553
7383.12235,0.10455
7381.19363,0.10814
7379.26492,0.11129
7377.33620,0.11369
7375.40748,0.11420
7373.47877,0.11183
7371.55005,0.10866
7369.62134,0.10585
7367.69262,0.10752
7365.76391,0.11140
7363.83519,0.11013
7361.90648,0.10572
7359.97776,0.10415
7358.04905,0.10567
7356.12033,0.10999
7354.19162,0.11526
7352.26290,0.11638
7350.33419,0.11151
7348.40547,0.10362
7346.47675,0.09822
7344.54804,0.09753
7342.61932,0.10128
7340.69061,0.11127
7338.76189,0.11865
7336.83318,0.11351
7334.90446,0.10402
7332.97575,0.10094
7331.04703,0.10345
7329.11832,0.10576
7327.18960,0.10813
7325.26089,0.10897
7323.33217,0.10592
7321.40346,0.10419
7319.47474,0.10404
7317.54602,0.10123
7315.61731,0.09797
7313.68859,0.09930
7311.75988,0.10405
7309.83116,0.10792
7307.90245,0.10922
7305.97373,0.10672
7304.04502,0.09967
7302.11630,0.09226
7300.18759,0.09049
7298.25887,0.09444
7296.33016,0.09674
7294.40144,0.09675
7292.47272,0.09712
7290.54401,0.09518
7288.61529,0.09241
7286.68658,0.09480
7284.75786,0.10103
7282.82915,0.10426
7280.90043,0.10169
7278.97172,0.09809
7277.04300,0.09812
7275.11429,0.09913
7273.18557,0.09828
7271.25686,0.09671
7269.32814,0.09391
7267.39943,0.09002
7265.47071,0.08853
7263.54199,0.08985
7261.61328,0.08973
7259.68456,0.08877
7257.75585,0.08960
7255.82713,0.09038
7253.89842,0.09334
7251.96970,0.10043
7250.04099,0.10468
7248.11227,0.10346
7246.18356,0.10049
7244.25484,0.09773
7242.32613,0.09469
7240.39741,0.09215
7238.46870,0.09238
7236.53998,0.09551
7234.61126,0.09591
7232.68255,0.09253
7230.75383,0.09696
7228.82512,0.10573
7226.89640,0.10556
7224.96769,0.09926
7223.03897,0.09600
7221.11026,0.09669
7219.18154,0.09671
7217.25283,0.09436
7215.32411,0.09336
7213.39540,0.09609
7211.46668,0.09953
7209.53796,0.09980
7207.60925,0.09955
7205.68053,0.10108
7203.75182,0.09786
7201.82310,0.09270
7199.89439,0.09438
7197.96567,0.09718
7196.03696,0.09587
7194.10824,0.09677
7192.17953,0.10218
7190.25081,0.10415
7188.32210,0.09845
7186.39338,0.09170
7184.46467,0.08818
7182.53595,0.08650
7180.60723,0.08832
7178.67852,0.09437
7176.74980,0.10071
7174.82109,0.10352
7172.89237,0.10289
7170.96366,0.10345
7169.03494,0.10476
7167.10623,0.10374
7165.17751,0.10300
7163.24880,0.10415
7161.32008,0.10411
7159.39137,0.09962
7157.46265,0.09439
7155.53394,0.09526
7153.60522,0.09999
7151.67650,0.10247
7149.74779,0.10341
7147.81907,0.10318
7145.89036,0.09919
7143.96164,0.09484
7142.03293,0.09510
7140.10421,0.09808
7138.17550,0.10125
7136.24678,0.10557
7134.31807,0.10928
7132.38935,0.10942
7130.46064,0.10648
7128.53192,0.10309
7126.60321,0.10118
7124.67449,0.10012
7122.74577,0.09934
7120.81706,0.10075
7118.88834,0.10448
7116.95963,0.10863
7115.03091,0.11035
7113.10220,0.10649
7111.17348,0.09890
7109.24477,0.09564
7107.31605,0.09968
7105.38734,0.10468
7103.45862,0.10515
7101.52991,0.10301
7099.60119,0.10180
7097.67247,0.10051
7095.74376,0.09908
7093.81504,0.10281
7091.88633,0.10891
7089.95761,0.11016
7088.02890,0.10828
7086.10018,0.10685
7084.17147,0.10498
7082.24275,0.10247
7080.31404,0.10080
7078.38532,0.10040
7076.45661,0.10111
7074.52789,0.10406
7072.59918,0.10848
7070.67046,0.10902
7068.74174,0.10459
7066.81303,0.10325
7064.88431,0.10800
7062.95560,0.11170
7061.02688,0.11050
7059.09817,0.11070
7057.16945,0.11522
7055.24074,0.11841
7053.31202,0.11742
7051.38331,0.11485
7049.45459,0.11327
7047.52588,0.11130
7045.59716,0.10816
7043.66845,0.10812
7041.73973,0.10997
7039.81101,0.10970
7037.88230,0.10881
7035.95358,0.10756
7034.02487,0.10569
7032.09615,0.10498
7030.16744,0.10621
7028.23872,0.10887
7026.31001,0.10928
7024.38129,0.10610
7022.45258,0.10545
7020.52386,0.11056
7018.59515,0.11389
7016.66643,0.11112
7014.73771,0.10959
7012.80900,0.11202
7010.88028,0.11288
7008.95157,0.11162
7007.02285,0.11097
7005.09414,0.11061
7003.16542,0.10845
7001.23671,0.10602
6999.30799,0.10760
6997.37928,0.11263
6995.45056,0.11569
6993.52185,0.11444
6991.59313,0.11235
6989.66442,0.11331
6987.73570,0.11721
6985.80698,0.12186
6983.87827,0.12302
6981.94955,0.11695
6980.02084,0.10870
6978.09212,0.10506
6976.16341,0.10495
6974.23469,0.10526
6972.30598,0.10334
6970.37726,0.10300
6968.44855,0.10852
6966.51983,0.11216
6964.59112,0.10970
6962.66240,0.10698
6960.73369,0.10596
6958.80497,0.10418
6956.87625,0.10200
6954.94754,0.10345
6953.01882,0.10965
6951.09011,0.11617
6949.16139,0.11861
6947.23268,0.11778
6945.30396,0.11809
6943.37525,0.12081
6941.44653,0.12110
6939.51782,0.11642
6937.58910,0.11261
6935.66039,0.11247
6933.73167,0.11103
6931.80296,0.10873
6929.87424,0.11094
6927.94552,0.11761
6926.01681,0.12343
6924.08809,0.12379
6922.15938,0.12024
6920.23066,0.11715
6918.30195,0.11517
6916.37323,0.11480
6914.44452,0.11761
6912.51580,0.12031
6910.58709,0.11805
6908.65837,0.11260
6906.72966,0.10886
6904.80094,0.10751
6902.87222,0.10712
6900.94351,0.10791
6899.01479,0.11042
6897.08608,0.11238
6895.15736,0.11172
6893.22865,0.11166
6891.29993,0.11422
6889.37122,0.11695
6887.44250,0.11740
6885.51379,0.11595
6883.58507,0.11466
6881.65636,0.11420
6879.72764,0.11481
6877.79893,0.11643
6875.87021,0.11805
6873.94149,0.11962
6872.01278,0.11905
6870.08406,0.11465
6868.15535,0.11057
6866.22663,0.11079
6864.29792,0.11423
6862.36920,0.11882
6860.44049,0.12330
6858.51177,0.12562
6856.58306,0.12505
6854.65434,0.12311
6852.72563,0.12018
6850.79691,0.11674
6848.86820,0.11535
6846.93948,0.11674
6845.01076,0.11779
6843.08205,0.11648
6841.15333,0.11533
6839.22462,0.11698
6837.29590,0.11995
6835.36719,0.12056
6833.43847,0.11760
6831.50976,0.11476
6829.58104,0.11531
6827.65233,0.11768
6825.72361,0.11870
6823.79490,0.11797
6821.86618,0.11804
6819.93746,0.11963
6818.00875,0.12029
6816.08003,0.11942
6814.15132,0.11812
6812.22260,0.11679
6810.29389,0.11561
6808.36517,0.11359
6806.43646,0.11043
6804.50774,0.10894
6802.57903,0.10903
6800.65031,0.10957
6798.72160,0.11305
6796.79288,0.11680
6794.86417,0.11547
6792.93545,0.11320
6791.00673,0.11528
6789.07802,0.11800
6787.14930,0.11819
6785.22059,0.11841
6783.29187,0.11875
6781.36316,0.11649
6779.43444,0.11283
6777.50573,0.11285
6775.57701,0.11627
6773.64830,0.11676
6771.71958,0.11423
6769.79087,0.11364
6767.86215,0.11452
6765.93344,0.11458
6764.00472,0.11534
6762.07600,0.11696
6760.14729,0.11726
6758.21857,0.11709
6756.28986,0.11818
6754.36114,0.11899
6752.43243,0.11790
6750.50371,0.11616
6748.57500,0.11488
6746.64628,0.11484
6744.71757,0.11759
6742.78885,0.12239
6740.86014,0.12609
6738.93142,0.12748
6737.00271,0.12743
6735.07399,0.12699
6733.14527,0.12568
6731.21656,0.12354
6729.28784,0.12218
6727.35913,0.12109
6725.43041,0.11881
6723.50170,0.11813
6721.57298,0.11966
6719.64427,0.12062
6717.71555,0.12187
6715.78684,0.12360
6713.85812,0.12388
6711.92941,0.12416
6710.00069,0.12465
6708.07197,0.12460
6706.14326,0.12513
6704.21454,0.12427
6702.28583,0.12084
6700.35711,0.11857
6698.42840,0.11830
6696.49968,0.11780
6694.57097,0.11865
6692.64225,0.12169
6690.71354,0.12283
6688.78482,0.12233
6686.85611,0.12446
6684.92739,0.12675
6682.99868,0.12554
6681.06996,0.12378
6679.14124,0.12485
6677.21253,0.12782
6675.28381,0.12936
6673.35510,0.12828
6671.42638,0.12567
6669.49767,0.12318
6667.56895,0.12273
6665.64024,0.12397
6663.71152,0.12468
6661.78281,0.12431
6659.85409,0.12453
6657.92538,0.12484
6655.99666,0.12205
6654.06795,0.11901
6652.13923,0.12114
6650.21051,0.12560
6648.28180,0.12644
6646.35308,0.12408
6644.42437,0.12252
6642.49565,0.12301
6640.56694,0.12394
6638.63822,0.12442
6636.70951,0.12435
6634.78079,0.12389
6632.85208,0.12529
6630.92336,0.13066
6628.99465,0.13620
6627.06593,0.13677
6625.13722,0.13445
6623.20850,0.13270
6621.27978,0.13018
6619.35107,0.12680
6617.42235,0.12466
6615.49364,0.12400
6613.56492,0.12474
6611.63621,0.12648
6609.70749,0.12717
6607.77878,0.12554
6605.85006,0.12288
6603.92135,0.12174
6601.99263,0.12270
6600.06392,0.12416
6598.13520,0.12461
6596.20648,0.12407
6594.27777,0.12430
6592.34905,0.12651
6590.42034,0.12941
6588.49162,0.13068
6586.56291,0.12997
6584.63419,0.12869
6582.70548,0.12708
6580.77676,0.12570
6578.84805,0.12681
6576.91933,0.13101
6574.99062,0.13510
6573.06190,0.13614
6571.13319,0.13498
6569.20447,0.13225
6567.27575,0.12845
6565.34704,0.12701
6563.41832,0.12899
6561.48961,0.13130
6559.56089,0.13140
6557.63218,0.12953
6555.70346,0.12782
6553.77475,0.12828
6551.84603,0.13033
6549.91732,0.13175
6547.98860,0.13229
6546.05989,0.13295
6544.13117,0.13335
6542.20246,0.13295
6540.27374,0.13276
6538.34502,0.13309
6536.41631,0.13248
6534.48759,0.13096
6532.55888,0.12974
6530.63016,0.12902
6528.70145,0.12852
6526.77273,0.12910
6524.84402,0.13141
6522.91530,0.13282
6520.98659,0.13107
6519.05787,0.12886
6517.12916,0.12885
6515.20044,0.13040
6513.27172,0.13157
6511.34301,0.12978
6509.41429,0.12585
6507.48558,0.12376
6505.55686,0.12447
6503.62815,0.12810
6501.69943,0.13413
6499.77072,0.13822
6497.84200,0.13712
6495.91329,0.13205
6493.98457,0.12744
6492.05586,0.12811
6490.12714,0.13165
6488.19843,0.13159
6486.26971,0.12961
6484.34099,0.12940
6482.41228,0.12918
6480.48356,0.12905
6478.55485,0.12991
6476.62613,0.12999
6474.69742,0.12895
6472.76870,0.12814
6470.83999,0.12821
6468.91127,0.12872
6466.98256,0.12946
6465.05384,0.13016
6463.12513,0.13080
6461.19641,0.13206
6459.26770,0.13214
6457.33898,0.12976
6455.41026,0.12809
6453.48155,0.12824
6451.55283,0.12729
6449.62412,0.12600
6447.69540,0.12728
6445.76669,0.12978
6443.83797,0.13043
6441.90926,0.12939
6439.98054,0.12903
6438.05183,0.12986
6436.12311,0.13075
6434.19440,0.13063
6432.26568,0.12965
6430.33697,0.12971
6428.40825,0.13054
6426.47953,0.13069
6424.55082,0.13027
6422.62210,0.12866
6420.69339,0.12726
6418.76467,0.12844
6416.83596,0.12938
6414.90724,0.12764
6412.97853,0.12551
6411.04981,0.12439
6409.12110,0.12382
6407.19238,0.12405
6405.26367,0.12490
6403.33495,0.12645
6401.40623,0.12851
6399.47752,0.12924
6397.54880,0.12775
6395.62009,0.12495
6393.69137,0.12236
6391.76266,0.12282
6389.83394,0.12662
6387.90523,0.12924
6385.97651,0.12857
6384.04780,0.12823
6382.11908,0.12951
6380.19037,0.12898
6378.26165,0.12631
6376.33294,0.12482
6374.40422,0.12620
6372.47550,0.12964
6370.54679,0.13236
6368.61807,0.13219
6366.68936,0.12924
6364.76064,0.12574
6362.83193,0.12512
6360.90321,0.12695
6358.97450,0.12758
6357.04578,0.12762
6355.11707,0.12910
6353.18835,0.12948
6351.25964,0.12780
6349.33092,0.12671
6347.40221,0.12661
6345.47349,0.12729
6343.54477,0.12897
6341.61606,0.13026
6339.68734,0.12959
6337.75863,0.12731
6335.82991,0.12543
6333.90120,0.12459
6331.97248,0.12453
6330.04377,0.12552
6328.11505,0.12565
6326.18634,0.12410
6324.25762,0.12311
6322.32891,0.12379
6320.40019,0.12542
6318.47147,0.12605
6316.54276,0.12459
6314.61404,0.12292
6312.68533,0.12196
6310.75661,0.12104
6308.82790,0.12010
6306.89918,0.11943
6304.97047,0.11984
6303.04175,0.12112
6301.11304,0.12228
6299.18432,0.12336
6297.25561,0.12343
6295.32689,0.12187
6293.39818,0.12047
6291.46946,0.12032
6289.54074,0.12105
6287.61203,0.12344
6285.68331,0.12708
6283.75460,0.12849
6281.82588,0.12610
6279.89717,0.12266
6277.96845,0.12077
6276.03974,0.11973
6274.11102,0.11802
6272.18231,0.11700
6270.25359,0.11742
6268.32488,0.11680
6266.39616,0.11556
6264.46745,0.11681
6262.53873,0.11926
6260.61001,0.11899
6258.68130,0.11643
6256.75258,0.11523
6254.82387,0.11561
6252.89515,0.11524
6250.96644,0.11489
6249.03772,0.11586
6247.10901,0.11621
6245.18029,0.11539
6243.25158,0.11504
6241.32286,0.11457
6239.39415,0.11330
6237.46543,0.11183
6235.53672,0.11022
6233.60800,0.11010
6231.67928,0.11215
6229.75057,0.11327
6227.82185,0.11146
6225.89314,0.10927
6223.96442,0.10909
6222.03571,0.10876
6220.10699,0.10718
6218.17828,0.10654
6216.24956,0.10644
6214.32085,0.10576
6212.39213,0.10546
6210.46342,0.10508
6208.53470,0.10410
6206.60598,0.10342
6204.67727,0.10270
6202.74855,0.10225
6200.81984,0.10283
6198.89112,0.10236
6196.96241,0.10088
6195.03369,0.10097
6193.10498,0.10050
6191.17626,0.09681
6189.24755,0.09293
6187.31883,0.09160
6185.39012,0.09201
6183.46140,0.09217
6181.53269,0.09017
6179.60397,0.08764
6177.67525,0.08737
6175.74654,0.08798
6173.81782,0.08757
6171.88911,0.08745
6169.96039,0.08830
6168.03168,0.08922
6166.10296,0.08961
6164.17425,0.08858
6162.24553,0.08618
6160.31682,0.08431
6158.38810,0.08434
6156.45939,0.08525
6154.53067,0.08480
6152.60196,0.08333
6150.67324,0.08222
6148.74452,0.08114
6146.81581,0.08011
6144.88709,0.07941
6142.95838,0.07905
6141.02966,0.07913
6139.10095,0.07829
6137.17223,0.07616
6135.24352,0.07498
6133.31480,0.07471
6131.38609,0.07375
6129.45737,0.07321
6127.52866,0.07315
6125.59994,0.07218
6123.67122,0.07170
6121.74251,0.07271
6119.81379,0.07296
6117.88508,0.07141
6115.95636,0.07021
6114.02765,0.07073
6112.09893,0.07208
6110.17022,0.07268
6108.24150,0.07140
6106.31279,0.06895
6104.38407,0.06711
6102.45536,0.06709
6100.52664,0.06819
6098.59793,0.06815
6096.66921,0.06660
6094.74049,0.06489
6092.81178,0.06374
6090.88306,0.06305
6088.95435,0.06194
6087.02563,0.06053
6085.09692,0.06003
6083.16820,0.05997
6081.23949,0.05926
6079.31077,0.05853
6077.38206,0.05767
6075.45334,0.05637
6073.52463,0.05612
6071.59591,0.05682
6069.66720,0.05710
6067.73848,0.05731
6065.80976,0.05748
6063.88105,0.05759
6061.95233,0.05809
6060.02362,0.05870
6058.09490,0.05945
6056.16619,0.06009
6054.23747,0.05902
6052.30876,0.05603
6050.38004,0.05317
6048.45133,0.05301
6046.52261,0.05513
6044.59390,0.05642
6042.66518,0.05609
6040.73647,0.05547
6038.80775,0.05491
6036.87903,0.05467
6034.95032,0.05520
6033.02160,0.05590
6031.09289,0.05541
6029.16417,0.05459
6027.23546,0.05522
6025.30674,0.05633
6023.37803,0.05669
6021.44931,0.05700
6019.52060,0.05781
6017.59188,0.05831
6015.66317,0.05775
6013.73445,0.05692
6011.80573,0.05621
6009.87702,0.05524
6007.94830,0.05424
6006.01959,0.05372
6004.09087,0.05382
6002.16216,0.05433
6000.23344,0.05494
5998.30473,0.05492
5996.37601,0.05435
5994.44730,0.05499
5992.51858,0.05699
5990.58987,0.05890
5988.66115,0.05978
5986.73244,0.05944
5984.80372,0.05850
5982.87500,0.05718
5980.94629,0.05534
5979.01757,0.05467
5977.08886,0.05622
5975.16014,0.05773
5973.23143,0.05725
5971.30271,0.05623
5969.37400,0.05654
5967.44528,0.05742
5965.51657,0.05767
5963.58785,0.05782
5961.65914,0.05789
5959.73042,0.05705
5957.80171,0.05619
5955.87299,0.05661
5953.94427,0.05767
5952.01556,0.05811
5950.08684,0.05734
5948.15813,0.05629
5946.22941,0.05604
5944.30070,0.05651
5942.37198,0.05769
5940.44327,0.05844
5938.51455,0.05641
5936.58584,0.05359
5934.65712,0.05367
5932.72841,0.05508
5930.79969,0.05504
5928.87097,0.05437
5926.94226,0.05455
5925.01354,0.05516
5923.08483,0.05543
5921.15611,0.05601
5919.22740,0.05705
5917.29868,0.05787
5915.36997,0.05870
5913.44125,0.05956
5911.51254,0.06007
5909.58382,0.06024
5907.65511,0.06001
5905.72639,0.05967
5903.79768,0.05899
5901.86896,0.05723
5899.94024,0.05485
5898.01153,0.05362
5896.08281,0.05432
5894.15410,0.05616
5892.22538,0.05782
5890.29667,0.05850
5888.36795,0.05852
5886.43924,0.05855
5884.51052,0.05844
5882.58181,0.05873
5880.65309,0.05986
5878.72438,0.05998
5876.79566,0.05809
5874.86695,0.05687
5872.93823,0.05761
5871.00951,0.05838
5869.08080,0.05898
5867.15208,0.06000
5865.22337,0.05995
5863.29465,0.05831
5861.36594,0.05673
5859.43722,0.05728
5857.50851,0.06017
5855.57979,0.06254
5853.65108,0.06236
5851.72236,0.06143
5849.79365,0.06147
5847.86493,0.06200
5845.93622,0.06214
5844.00750,0.06208
5842.07878,0.06296
5840.15007,0.06443
5838.22135,0.06474
5836.29264,0.06411
5834.36392,0.06367
5832.43521,0.06294
5830.50649,0.06173
5828.57778,0.06093
5826.64906,0.06087
5824.72035,0.06162
5822.79163,0.06224
5820.86292,0.06187
5818.93420,0.06077
5817.00548,0.05915
5815.07677,0.05841
5813.14805,0.06041
5811.21934,0.06367
5809.29062,0.06506
5807.36191,0.06420
5805.43319,0.06341
5803.50448,0.06415
5801.57576,0.06551
5799.64705,0.06646
5797.71833,0.06709
5795.78962,0.06689
5793.86090,0.06514
5791.93219,0.06313
5790.00347,0.06233
5788.07475,0.06208
5786.14604,0.06156
5784.21732,0.06100
5782.28861,0.06049
5780.35989,0.06021
5778.43118,0.06007
5776.50246,0.05985
5774.57375,0.06035
5772.64503,0.06088
5770.71632,0.06009
5768.78760,0.05861
5766.85889,0.05769
5764.93017,0.05819
5763.00146,0.05963
5761.07274,0.06011
5759.14402,0.05936
5757.21531,0.05900
5755.28659,0.05972
5753.35788,0.06114
5751.42916,0.06259
5749.50045,0.06239
5747.57173,0.06101
5745.64302,0.06150
5743.71430,0.06351
5741.78559,0.06434
5739.85687,0.06395
5737.92816,0.06349
5735.99944,0.06418
5734.07072,0.06689
5732.14201,0.06991
5730.21329,0.07084
5728.28458,0.07027
5726.35586,0.06983
5724.42715,0.06983
5722.49843,0.07042
5720.56972,0.07178
5718.64100,0.07337
5716.71229,0.07481
5714.78357,0.07632
5712.85486,0.07738
5710.92614,0.07747
5708.99743,0.07757
5707.06871,0.07839
5705.13999,0.07875
5703.21128,0.07763
5701.28256,0.07633
5699.35385,0.07668
5697.42513,0.07812
5695.49642,0.07869
5693.56770,0.07779
5691.63899,0.07647
5689.71027,0.07581
5687.78156,0.07596
5685.85284,0.07598
5683.92413,0.07478
5681.99541,0.07298
5680.06670,0.07195
5678.13798,0.07196
5676.20926,0.07304
5674.28055,0.07460
5672.35183,0.07474
5670.42312,0.07317
5668.49440,0.07126
5666.56569,0.06997
5664.63697,0.06978
5662.70826,0.07024
5660.77954,0.07068
5658.85083,0.07107
5656.92211,0.07097
5654.99340,0.07057
5653.06468,0.07095
5651.13597,0.07235
5649.20725,0.07389
5647.27853,0.07473
5645.34982,0.07498
5643.42110,0.07545
5641.49239,0.07669
5639.56367,0.07796
5637.63496,0.07852
5635.70624,0.07917
5633.77753,0.08006
5631.84881,0.08015
5629.92010,0.07994
5627.99138,0.08069
5626.06267,0.08192
5624.13395,0.08264
5622.20523,0.08292
5620.27652,0.08353
5618.34780,0.08492
5616.41909,0.08668
5614.49037,0.08807
5612.56166,0.08905
5610.63294,0.09001
5608.70423,0.09078
5606.77551,0.09104
5604.84680,0.09059
5602.91808,0.08914
5600.98937,0.08766
5599.06065,0.08735
5597.13194,0.08759
5595.20322,0.08744
5593.27450,0.08732
5591.34579,0.08779
5589.41707,0.08807
5587.48836,0.08772
5585.55964,0.08761
5583.63093,0.08746
5581.70221,0.08665
5579.77350,0.08643
5577.84478,0.08700
5575.91607,0.08669
5573.98735,0.08592
5572.05864,0.08625
5570.12992,0.08686
5568.20121,0.08659
5566.27249,0.08619
5564.34377,0.08628
5562.41506,0.08684
5560.48634,0.08772
5558.55763,0.08798
5556.62891,0.08710
5554.70020,0.08637
5552.77148,0.08653
5550.84277,0.08642
5548.91405,0.08534
5546.98534,0.08408
5545.05662,0.08386
5543.12791,0.08456
5541.19919,0.08491
5539.27047,0.08459
5537.34176,0.08402
5535.41304,0.08376
5533.48433,0.08448
5531.55561,0.08566
5529.62690,0.08603
5527.69818,0.08582
5525.76947,0.08582
5523.84075,0.08610
5521.91204,0.08654
5519.98332,0.08632
5518.05461,0.08528
5516.12589,0.08462
5514.19718,0.08490
5512.26846,0.08568
5510.33974,0.08636
5508.41103,0.08697
5506.48231,0.08780
5504.55360,0.08765
5502.62488,0.08610
5500.69617,0.08496
5498.76745,0.08530
5496.83874,0.08609
5494.91002,0.08624
5492.98131,0.08609
5491.05259,0.08625
5489.12388,0.08626
5487.19516,0.08558
5485.26645,0.08468
5483.33773,0.08389
5481.40901,0.08273
5479.48030,0.08131
5477.55158,0.08086
5475.62287,0.08211
5473.69415,0.08358
5471.76544,0.08344
5469.83672,0.08220
5467.90801,0.08114
5465.97929,0.08083
5464.05058,0.08117
5462.12186,0.08231
5460.19315,0.08366
5458.26443,0.08437
5456.33572,0.08457
5454.40700,0.08438
5452.47828,0.08403
5450.54957,0.08419
5448.62085,0.08536
5446.69214,0.08707
5444.76342,0.08771
5442.83471,0.08719
5440.90599,0.08671
5438.97728,0.08634
5437.04856,0.08608
5435.11985,0.08659
5433.19113,0.08762
5431.26242,0.08794
5429.33370,0.08822
5427.40498,0.08947
5425.47627,0.08952
5423.54755,0.08811
5421.61884,0.08768
5419.69012,0.08864
5417.76141,0.08973
5415.83269,0.09025
5413.90398,0.08966
5411.97526,0.08826
5410.04655,0.08733
5408.11783,0.08694
5406.18912,0.08642
5404.26040,0.08623
5402.33169,0.08677
5400.40297,0.08724
5398.47425,0.08765
5396.54554,0.08858
5394.61682,0.08915
5392.68811,0.08874
5390.75939,0.08830
5388.83068,0.08781
5386.90196,0.08704
5384.97325,0.08699
5383.04453,0.08799
5381.11582,0.08935
5379.18710,0.09061
5377.25839,0.09079
5375.32967,0.08955
5373.40096,0.08848
5371.47224,0.08856
5369.54352,0.08929
5367.61481,0.08965
5365.68609,0.08908
5363.75738,0.08798
5361.82866,0.08735
5359.89995,0.08791
5357.97123,0.08866
5356.04252,0.08788
5354.11380,0.08642
5352.18509,0.08688
5350.25637,0.08791
5348.32766,0.08730
5346.39894,0.08568
5344.47022,0.08490
5342.54151,0.08568
5340.61279,0.08663
5338.68408,0.08631
5336.75536,0.08518
5334.82665,0.08558
5332.89793,0.08692
5330.96922,0.08728
5329.04050,0.08687
5327.11179,0.08689
5325.18307,0.08701
5323.25436,0.08710
5321.32564,0.08748
5319.39693,0.08736
5317.46821,0.08646
5315.53949,0.08603
5313.61078,0.08677
5311.68206,0.08780
5309.75335,0.08779
5307.82463,0.08618
5305.89592,0.08426
5303.96720,0.08381
5302.03849,0.08445
5300.10977,0.08496
5298.18106,0.08442
5296.25234,0.08290
5294.32363,0.08163
5292.39491,0.08089
5290.46620,0.08017
5288.53748,0.07960
5286.60876,0.07893
5284.68005,0.07778
5282.75133,0.07649
5280.82262,0.07562
5278.89390,0.07482
5276.96519,0.07345
5275.03647,0.07212
5273.10776,0.07143
5271.17904,0.07074
5269.25033,0.06960
5267.32161,0.06851
5265.39290,0.06818
5263.46418,0.06901
5261.53547,0.07002
5259.60675,0.06953
5257.67803,0.06820
5255.74932,0.06795
5253.82060,0.06940
5251.89189,0.07101
5249.96317,0.07184
5248.03446,0.07294
5246.10574,0.07537
5244.17703,0.07790
5242.24831,0.07914
5240.31960,0.07955
5238.39088,0.08015
5236.46217,0.08144
5234.53345,0.08295
5232.60473,0.08384
5230.67602,0.08443
5228.74730,0.08529
5226.81859,0.08600
5224.88987,0.08660
5222.96116,0.08723
5221.03244,0.08766
5219.10373,0.08858
5217.17501,0.09032
5215.24630,0.09180
5213.31758,0.09268
5211.38887,0.09290
5209.46015,0.09189
5207.53144,0.09100
5205.60272,0.09227
5203.67400,0.09383
5201.74529,0.09408
5199.81657,0.09406
5197.88786,0.09396
5195.95914,0.09295
5194.03043,0.09204
5192.10171,0.09231
5190.17300,0.09257
5188.24428,0.09182
5186.31557,0.09121
5184.38685,0.09161
5182.45814,0.09204
5180.52942,0.09177
5178.60071,0.09145
5176.67199,0.09171
5174.74327,0.09234
5172.81456,0.09293
5170.88584,0.09307
5168.95713,0.09265
5167.02841,0.09213
5165.09970,0.09227
5163.17098,0.09321
5161.24227,0.09367
5159.31355,0.09300
5157.38484,0.09247
5155.45612,0.09274
5153.52741,0.09303
5151.59869,0.09338
5149.66997,0.09419
5147.74126,0.09464
5145.81254,0.09447
5143.88383,0.09457
5141.95511,0.09519
5140.02640,0.09569
5138.09768,0.09574
5136.16897,0.09597
5134.24025,0.09677
5132.31154,0.09702
5130.38282,0.09614
5128.45411,0.09580
5126.52539,0.09678
5124.59668,0.09772
5122.66796,0.09812
5120.73924,0.09836
5118.81053,0.09836
5116.88181,0.09851
5114.95310,0.09901
5113.02438,0.09911
5111.09567,0.09860
5109.16695,0.09815
5107.23824,0.09834
5105.30952,0.09914
5103.38081,0.09956
5101.45209,0.09886
5099.52338,0.09788
5097.59466,0.09743
5095.66595,0.09740
5093.73723,0.09782
5091.80851,0.09838
5089.87980,0.09795
5087.95108,0.09648
5086.02237,0.09547
5084.09365,0.09569
5082.16494,0.09664
5080.23622,0.09753
5078.30751,0.09771
5076.37879,0.09732
5074.45008,0.09704
5072.52136,0.09677
5070.59265,0.09606
5068.66393,0.09546
5066.73522,0.09592
5064.80650,0.09706
5062.87778,0.09740
5060.94907,0.09670
5059.02035,0.09636
5057.09164,0.09674
5055.16292,0.09711
5053.23421,0.09727
5051.30549,0.09703
5049.37678,0.09655
5047.44806,0.09647
5045.51935,0.09689
5043.59063,0.09775
5041.66192,0.09859
5039.73320,0.09856
5037.80448,0.09791
5035.87577,0.09724
5033.94705,0.09677
5032.01834,0.09676
5030.08962,0.09678
5028.16091,0.09629
5026.23219,0.09565
5024.30348,0.09543
5022.37476,0.09566
5020.44605,0.09577
5018.51733,0.09554
5016.58862,0.09497
5014.65990,0.09394
5012.73119,0.09319
5010.80247,0.09341
5008.87375,0.09374
5006.94504,0.09343
5005.01632,0.09304
5003.08761,0.09296
5001.15889,0.09301
4999.23018,0.09300
4997.30146,0.09294
4995.37275,0.09323
4993.44403,0.09382
4991.51532,0.09391
4989.58660,0.09313
4987.65789,0.09195
4985.72917,0.09122
4983.80046,0.09149
4981.87174,0.09189
4979.94302,0.09162
4978.01431,0.09152
4976.08559,0.09215
4974.15688,0.09267
4972.22816,0.09219
4970.29945,0.09086
4968.37073,0.08983
4966.44202,0.08970
4964.51330,0.08958
4962.58459,0.08891
4960.65587,0.08856
4958.72716,0.08894
4956.79844,0.08939
4954.86972,0.08940
4952.94101,0.08909
4951.01229,0.08927
4949.08358,0.09011
4947.15486,0.09057
4945.22615,0.09025
4943.29743,0.08976
4941.36872,0.08948
4939.44000,0.08921
4937.51129,0.08901
4935.58257,0.08908
4933.65386,0.08904
4931.72514,0.08846
4929.79643,0.08750
4927.86771,0.08681
4925.93899,0.08653
4924.01028,0.08635
4922.08156,0.08594
4920.15285,0.08512
4918.22413,0.08423
4916.29542,0.08337
4914.36670,0.08247
4912.43799,0.08188
4910.50927,0.08146
4908.58056,0.08088
4906.65184,0.08046
4904.72313,0.07983
4902.79441,0.07850
4900.86570,0.07752
4898.93698,0.07743
4897.00826,0.07723
4895.07955,0.07651
4893.15083,0.07591
4891.22212,0.07590
4889.29340,0.07636
4887.36469,0.07640
4885.43597,0.07553
4883.50726,0.07485
4881.57854,0.07499
4879.64983,0.07523
4877.72111,0.07523
4875.79240,0.07515
4873.86368,0.07486
4871.93497,0.07400
4870.00625,0.07308
4868.07753,0.07317
4866.14882,0.07395
4864.22010,0.07418
4862.29139,0.07371
4860.36267,0.07317
4858.43396,0.07265
4856.50524,0.07176
4854.57653,0.07063
4852.64781,0.06995
4850.71910,0.06988
4848.79038,0.06976
4846.86167,0.06943
4844.93295,0.06953
4843.00423,0.07005
4841.07552,0.07018
4839.14680,0.06996
4837.21809,0.07014
4835.28937,0.07061
4833.36066,0.07069
4831.43194,0.07035
4829.50323,0.06994
4827.57451,0.06986
4825.64580,0.07048
4823.71708,0.07162
4821.78837,0.07242
4819.85965,0.07257
4817.93094,0.07272
4816.00222,0.07309
4814.07350,0.07296
4812.14479,0.07228
4810.21607,0.07210
4808.28736,0.07275
4806.35864,0.07340
4804.42993,0.07342
4802.50121,0.07312
4800.57250,0.07299
4798.64378,0.07285
4796.71507,0.07259
4794.78635,0.07252
4792.85764,0.07254
4790.92892,0.07239
4789.00021,0.07207
4787.07149,0.07163
4785.14277,0.07128
4783.21406,0.07108
4781.28534,0.07094
4779.35663,0.07100
4777.42791,0.07107
4775.49920,0.07059
4773.57048,0.06982
4771.64177,0.06910
4769.71305,0.06820
4767.78434,0.06757
4765.85562,0.06775
4763.92691,0.06809
4761.99819,0.06802
4760.06948,0.06757
4758.14076,0.06674
4756.21204,0.06587
4754.28333,0.06557
4752.35461,0.06577
4750.42590,0.06585
4748.49718,0.06554
4746.56847,0.06498
4744.63975,0.06431
4742.71104,0.06363
4740.78232,0.06321
4738.85361,0.06291
4736.92489,0.06206
4734.99618,0.06115
4733.06746,0.06120
4731.13874,0.06175
4729.21003,0.06193
4727.28131,0.06178
4725.35260,0.06154
4723.42388,0.06097
4721.49517,0.06042
4719.56645,0.06038
4717.63774,0.06044
4715.70902,0.06051
4713.78031,0.06097
4711.85159,0.06159
4709.92288,0.06201
4707.99416,0.06229
4706.06545,0.06247
4704.13673,0.06232
4702.20801,0.06212
4700.27930,0.06206
4698.35058,0.06187
4696.42187,0.06176
4694.49315,0.06173
4692.56444,0.06140
4690.63572,0.06109
4688.70701,0.06127
4686.77829,0.06164
4684.84958,0.06172
4682.92086,0.06131
4680.99215,0.06051
4679.06343,0.06001
4677.13472,0.06021
4675.20600,0.06059
4673.27728,0.06081
4671.34857,0.06092
4669.41985,0.06112
4667.49114,0.06165
4665.56242,0.06195
4663.63371,0.06156
4661.70499,0.06102
4659.77628,0.06095
4657.84756,0.06116
4655.91885,0.06132
4653.99013,0.06156
4652.06142,0.06194
4650.13270,0.06221
4648.20398,0.06228
4646.27527,0.06232
4644.34655,0.06233
4642.41784,0.06204
4640.48912,0.06151
4638.56041,0.06102
4636.63169,0.06079
4634.70298,0.06082
4632.77426,0.06082
4630.84555,0.06064
4628.91683,0.06066
4626.98812,0.06119
4625.05940,0.06184
4623.13069,0.06173
4621.20197,0.06116
4619.27325,0.06116
4617.34454,0.06155
4615.41582,0.06150
4613.48711,0.06105
4611.55839,0.06085
4609.62968,0.06092
4607.70096,0.06101
4605.77225,0.06125
4603.84353,0.06148
4601.91482,0.06122
4599.98610,0.06070
4598.05739,0.06050
4596.12867,0.06078
4594.19996,0.06114
4592.27124,0.06113
4590.34252,0.06095
4588.41381,0.06097
4586.48509,0.06112
4584.55638,0.06131
4582.62766,0.06153
4580.69895,0.06165
4578.77023,0.06157
4576.84152,0.06129
4574.91280,0.06110
4572.98409,0.06117
4571.05537,0.06141
4569.12666,0.06191
4567.19794,0.06243
4565.26923,0.06240
4563.34051,0.06189
4561.41179,0.06156
4559.48308,0.06163
4557.55436,0.06198
4555.62565,0.06245
4553.69693,0.06256
4551.76822,0.06217
4549.83950,0.06189
4547.91079,0.06195
4545.98207,0.06196
4544.05336,0.06169
4542.12464,0.06149
4540.19593,0.06187
4538.26721,0.06250
4536.33849,0.06266
4534.40978,0.06238
4532.48106,0.06216
4530.55235,0.06214
4528.62363,0.06202
4526.69492,0.06197
4524.76620,0.06230
4522.83749,0.06246
4520.90877,0.06202
4518.98006,0.06168
4517.05134,0.06188
4515.12263,0.06234
4513.19391,0.06273
4511.26520,0.06304
4509.33648,0.06326
4507.40776,0.06319
4505.47905,0.06291
4503.55033,0.06275
4501.62162,0.06275
4499.69290,0.06284
4497.76419,0.06281
4495.83547,0.06234
4493.90676,0.06179
4491.97804,0.06169
4490.04933,0.06169
4488.12061,0.06165
4486.19190,0.06183
4484.26318,0.06186
4482.33447,0.06163
4480.40575,0.06166
4478.47703,0.06183
4476.54832,0.06184
4474.61960,0.06204
4472.69089,0.06251
4470.76217,0.06275
4468.83346,0.06257
4466.90474,0.06219
4464.97603,0.06193
4463.04731,0.06160
4461.11860,0.06118
4459.18988,0.06134
4457.26117,0.06195
4455.33245,0.06213
4453.40373,0.06178
4451.47502,0.06154
4449.54630,0.06162
4447.61759,0.06165
4445.68887,0.06160
4443.76016,0.06168
4441.83144,0.06161
4439.90273,0.06139
4437.97401,0.06150
4436.04530,0.06172
4434.11658,0.06151
4432.18787,0.06128
4430.25915,0.06144
4428.33044,0.06188
4426.40172,0.06240
4424.47300,0.06249
4422.54429,0.06201
4420.61557,0.06176
4418.68686,0.06190
4416.75814,0.06185
4414.82943,0.06153
4412.90071,0.06133
4410.97200,0.06150
4409.04328,0.06184
4407.11457,0.06201
4405.18585,0.06182
4403.25714,0.06135
4401.32842,0.06096
4399.39971,0.06098
4397.47099,0.06152
4395.54227,0.06201
4393.61356,0.06180
4391.68484,0.06127
4389.75613,0.06113
4387.82741,0.06132
4385.89870,0.06143
4383.96998,0.06117
4382.04127,0.06061
4380.11255,0.06019
4378.18384,0.06017
4376.25512,0.06041
4374.32641,0.06092
4372.39769,0.06154
4370.46898,0.06189
4368.54026,0.06202
4366.61154,0.06227
4364.68283,0.06258
4362.75411,0.06270
4360.82540,0.06246
4358.89668,0.06191
4356.96797,0.06157
4355.03925,0.06170
4353.11054,0.06185
4351.18182,0.06182
4349.25311,0.06167
4347.32439,0.06149
4345.39568,0.06152
4343.46696,0.06171
4341.53824,0.06187
4339.60953,0.06209
4337.68081,0.06241
4335.75210,0.06255
4333.82338,0.06261
4331.89467,0.06282
4329.96595,0.06288
4328.03724,0.06273
4326.10852,0.06274
4324.17981,0.06269
4322.25109,0.06219
4320.32238,0.06161
4318.39366,0.06133
4316.46495,0.06134
4314.53623,0.06155
4312.60751,0.06172
4310.67880,0.06161
4308.75008,0.06146
4306.82137,0.06150
4304.89265,0.06162
4302.96394,0.06172
4301.03522,0.06187
4299.10651,0.06211
4297.17779,0.06246
4295.24908,0.06249
4293.32036,0.06204
4291.39165,0.06187
4289.46293,0.06214
4287.53422,0.06213
4285.60550,0.06167
4283.67678,0.06131
4281.74807,0.06138
4279.81935,0.06175
4277.89064,0.06208
4275.96192,0.06219
4274.03321,0.06216
4272.10449,0.06213
4270.17578,0.06209
4268.24706,0.06197
4266.31835,0.06187
4264.38963,0.06193
4262.46092,0.06196
4260.53220,0.06179
4258.60348,0.06169
4256.67477,0.06180
4254.74605,0.06209
4252.81734,0.06245
4250.88862,0.06252
4248.95991,0.06215
4247.03119,0.06173
4245.10248,0.06173
4243.17376,0.06217
4241.24505,0.06247
4239.31633,0.06244
4237.38762,0.06233
4235.45890,0.06225
4233.53019,0.06220
4231.60147,0.06219
4229.67275,0.06204
4227.74404,0.06178
4225.81532,0.06167
4223.88661,0.06181
4221.95789,0.06216
4220.02918,0.06248
4218.10046,0.06242
4216.17175,0.06221
4214.24303,0.06253
4212.31432,0.06313
4210.38560,0.06333
4208.45689,0.06327
4206.52817,0.06310
4204.59946,0.06279
4202.67074,0.06267
4200.74202,0.06270
4198.81331,0.06253
4196.88459,0.06233
4194.95588,0.06227
4193.02716,0.06227
4191.09845,0.06231
4189.16973,0.06248
4187.24102,0.06255
4185.31230,0.06239
4183.38359,0.06250
4181.45487,0.06298
4179.52616,0.06321
4177.59744,0.06297
4175.66873,0.06248
4173.74001,0.06210
4171.81129,0.06197
4169.88258,0.06189
4167.95386,0.06179
4166.02515,0.06191
4164.09643,0.06220
4162.16772,0.06242
4160.23900,0.06253
4158.31029,0.06246
4156.38157,0.06223
4154.45286,0.06206
4152.52414,0.06198
4150.59543,0.06190
4148.66671,0.06174
4146.73799,0.06160
4144.80928,0.06164
4142.88056,0.06192
4140.95185,0.06232
4139.02313,0.06253
4137.09442,0.06214
4135.16570,0.06147
4133.23699,0.06141
4131.30827,0.06212
4129.37956,0.06267
4127.45084,0.06266
4125.52213,0.06257
4123.59341,0.06254
4121.66470,0.06228
4119.73598,0.06203
4117.80726,0.06212
4115.87855,0.06230
4113.94983,0.06230
4112.02112,0.06217
4110.09240,0.06208
4108.16369,0.06196
4106.23497,0.06179
4104.30626,0.06197
4102.37754,0.06241
4100.44883,0.06260
4098.52011,0.06255
4096.59140,0.06239
4094.66268,0.06212
4092.73397,0.06187
4090.80525,0.06188
4088.87653,0.06213
4086.94782,0.06235
4085.01910,0.06235
4083.09039,0.06230
4081.16167,0.06238
4079.23296,0.06251
4077.30424,0.06265
4075.37553,0.06262
4073.44681,0.06248
4071.51810,0.06251
4069.58938,0.06255
4067.66067,0.06243
4065.73195,0.06253
4063.80323,0.06284
4061.87452,0.06292
4059.94580,0.06287
4058.01709,0.06298
4056.08837,0.06316
4054.15966,0.06325
4052.23094,0.06333
4050.30223,0.06310
4048.37351,0.06242
4046.44480,0.06198
4044.51608,0.06228
4042.58737,0.06285
4040.65865,0.06300
4038.72994,0.06275
4036.80122,0.06254
4034.87250,0.06256
4032.94379,0.06270
4031.01507,0.06280
4029.08636,0.06275
4027.15764,0.06258
4025.22893,0.06252
4023.30021,0.06270
4021.37150,0.06279
4019.44278,0.06269
4017.51407,0.06266
4015.58535,0.06268
4013.65664,0.06267
4011.72792,0.06272
4009.79921,0.06281
4007.87049,0.06287
4005.94177,0.06286
4004.01306,0.06276
4002.08434,0.06261
4000.15563,0.06233
3998.22691,0.06213
3996.29820,0.06229
3994.36948,0.06262
3992.44077,0.06298
3990.51205,0.06316
3988.58334,0.06277
3986.65462,0.06214
3984.72591,0.06196
3982.79719,0.06219
3980.86848,0.06241
3978.93976,0.06236
3977.01104,0.06207
3975.08233,0.06182
3973.15361,0.06195
3971.22490,0.06241
3969.29618,0.06269
3967.36747,0.06267
3965.43875,0.06270
3963.51004,0.06294
3961.58132,0.06310
3959.65261,0.06297
3957.72389,0.06250
3955.79518,0.06200
3953.86646,0.06203
3951.93774,0.06248
3950.00903,0.06289
3948.08031,0.06314
3946.15160,0.06317
3944.22288,0.06302
3942.29417,0.06300
3940.36545,0.06320
3938.43674,0.06332
3936.50802,0.06318
3934.57931,0.06285
3932.65059,0.06259
3930.72188,0.06251
3928.79316,0.06255
3926.86445,0.06252
3924.93573,0.06248
3923.00701,0.06273
3921.07830,0.06310
3919.14958,0.06340
3917.22087,0.06370
3915.29215,0.06368
3913.36344,0.06328
3911.43472,0.06291
3909.50601,0.06276
3907.57729,0.06273
3905.64858,0.06266
3903.71986,0.06219
3901.79115,0.06167
3899.86243,0.06205
3897.93372,0.06271
3896.00500,0.06289
3894.07628,0.06269
3892.14757,0.06236
3890.21885,0.06236
3888.29014,0.06277
3886.36142,0.06339
3884.43271,0.06386
3882.50399,0.06365
3880.57528,0.06299
3878.64656,0.06266
3876.71785,0.06271
3874.78913,0.06285
3872.86042,0.06306
3870.93170,0.06310
3869.00298,0.06298
3867.07427,0.06297
3865.14555,0.06296
3863.21684,0.06281
3861.28812,0.06270
3859.35941,0.06264
3857.43069,0.06244
3855.50198,0.06202
3853.57326,0.06179
3851.64455,0.06259
3849.71583,0.06327
3847.78712,0.06335
3845.85840,0.06307
3843.92969,0.06286
3842.00097,0.06296
3840.07225,0.06303
3838.14354,0.06289
3836.21482,0.06313
3834.28611,0.06349
3832.35739,0.06344
3830.42868,0.06325
3828.49996,0.06336
3826.57125,0.06373
3824.64253,0.06400
3822.71382,0.06403
3820.78510,0.06387
3818.85639,0.06326
3816.92767,0.06252
3814.99896,0.06239
3813.07024,0.06283
3811.14152,0.06321
3809.21281,0.06324
3807.28409,0.06283
3805.35538,0.06241
3803.42666,0.06201
3801.49795,0.06168
3799.56923,0.06216
3797.64052,0.06256
3795.71180,0.06245
3793.78309,0.06251
3791.85437,0.06281
3789.92566,0.06312
3787.99694,0.06339
3786.06823,0.06353
3784.13951,0.06352
3782.21079,0.06335
3780.28208,0.06279
3778.35336,0.06240
3776.42465,0.06270
3774.49593,0.06301
3772.56722,0.06311
3770.63850,0.06317
3768.70979,0.06291
3766.78107,0.06249
3764.85236,0.06260
3762.92364,0.06297
3760.99493,0.06278
3759.06621,0.06214
3757.13749,0.06223
3755.20878,0.06284
3753.28006,0.06306
3751.35135,0.06247
3749.42263,0.06179
3747.49392,0.06179
3745.56520,0.06185
3743.63649,0.06213
3741.70777,0.06280
3739.77906,0.06326
3737.85034,0.06337
3735.92163,0.06333
3733.99291,0.06358
3732.06420,0.06385
3730.13548,0.06351
3728.20676,0.06290
3726.27805,0.06253
3724.34933,0.06252
3722.42062,0.06285
3720.49190,0.06316
3718.56319,0.06313
3716.63447,0.06310
3714.70576,0.06324
3712.77704,0.06310
3710.84833,0.06260
3708.91961,0.06270
3706.99090,0.06301
3705.06218,0.06313
3703.13347,0.06300
3701.20475,0.06260
3699.27603,0.06237
3697.34732,0.06256
3695.41860,0.06291
3693.48989,0.06317
3691.56117,0.06338
3689.63246,0.06338
3687.70374,0.06269
3685.77503,0.06209
3683.84631,0.06218
3681.91760,0.06299
3679.98888,0.06391
3678.06017,0.06409
3676.13145,0.06330
3674.20273,0.06278
3672.27402,0.06284
3670.34530,0.06250
3668.41659,0.06224
3666.48787,0.06242
3664.55916,0.06252
3662.63044,0.06249
3660.70173,0.06247
3658.77301,0.06250
3656.84430,0.06262
3654.91558,0.06281
3652.98687,0.06297
3651.05815,0.06310
3649.12944,0.06277
3647.20072,0.06217
3645.27200,0.06225
3643.34329,0.06209
3641.41457,0.06176
3639.48586,0.06208
3637.55714,0.06265
3635.62843,0.06276
3633.69971,0.06272
3631.77100,0.06265
3629.84228,0.06206
3627.91357,0.06161
3625.98485,0.06194
3624.05614,0.06208
3622.12742,0.06197
3620.19871,0.06173
3618.26999,0.06175
3616.34127,0.06192
3614.41256,0.06186
3612.48384,0.06212
3610.55513,0.06269
3608.62641,0.06277
3606.69770,0.06246
3604.76898,0.06262
3602.84027,0.06323
3600.91155,0.06361
3598.98284,0.06319
3597.05412,0.06229
3595.12541,0.06169
3593.19669,0.06160
3591.26798,0.06146
3589.33926,0.06117
3587.41054,0.06129
3585.48183,0.06172
3583.55311,0.06187
3581.62440,0.06192
3579.69568,0.06190
3577.76697,0.06177
3575.83825,0.06161
3573.90954,0.06152
3571.98082,0.06166
3570.05211,0.06189
3568.12339,0.06161
3566.19468,0.06066
3564.26596,0.06056
3562.33724,0.06123
3560.40853,0.06180
3558.47981,0.06197
3556.55110,0.06181
3554.62238,0.06153
3552.69367,0.06148
3550.76495,0.06177
3548.83624,0.06206
3546.90752,0.06205
3544.97881,0.06183
3543.05009,0.06184
3541.12138,0.06199
3539.19266,0.06187
3537.26395,0.06155
3535.33523,0.06161
3533.40651,0.06210
3531.47780,0.06254
3529.54908,0.06256
3527.62037,0.06225
3525.69165,0.06201
3523.76294,0.06202
3521.83422,0.06218
3519.90551,0.06216
3517.97679,0.06187
3516.04808,0.06164
3514.11936,0.06163
3512.19065,0.06163
3510.26193,0.06158
3508.33322,0.06158
3506.40450,0.06167
3504.47578,0.06179
3502.54707,0.06185
3500.61835,0.06198
3498.68964,0.06215
3496.76092,0.06209
3494.83221,0.06183
3492.90349,0.06161
3490.97478,0.06141
3489.04606,0.06125
3487.11735,0.06136
3485.18863,0.06166
3483.25992,0.06177
3481.33120,0.06177
3479.40248,0.06185
3477.47377,0.06185
3475.54505,0.06169
3473.61634,0.06172
3471.68762,0.06224
3469.75891,0.06269
3467.83019,0.06242
3465.90148,0.06179
3463.97276,0.06150
3462.04405,0.06141
3460.11533,0.06127
3458.18662,0.06118
3456.25790,0.06137
3454.32919,0.06185
3452.40047,0.06227
3450.47175,0.06240
3448.54304,0.06227
3446.61432,0.06203
3444.68561,0.06174
3442.75689,0.06135
3440.82818,0.06111
3438.89946,0.06125
3436.97075,0.06155
3435.04203,0.06169
3433.11332,0.06160
3431.18460,0.06158
3429.25589,0.06187
3427.32717,0.06220
3425.39846,0.06231
3423.46974,0.06234
3421.54102,0.06228
3419.61231,0.06202
3417.68359,0.06186
3415.75488,0.06189
3413.82616,0.06197
3411.89745,0.06212
3409.96873,0.06219
3408.04002,0.06210
3406.11130,0.06204
3404.18259,0.06189
3402.25387,0.06156
3400.32516,0.06140
3398.39644,0.06146
3396.46773,0.06143
3394.53901,0.06146
3392.61029,0.06172
3390.68158,0.06181
3388.75286,0.06154
3386.82415,0.06134
3384.89543,0.06136
3382.96672,0.06128
3381.03800,0.06114
3379.10929,0.06105
3377.18057,0.06090
3375.25186,0.06094
3373.32314,0.06137
3371.39443,0.06176
3369.46571,0.06170
3367.53699,0.06147
3365.60828,0.06149
3363.67956,0.06165
3361.75085,0.06174
3359.82213,0.06148
3357.89342,0.06090
3355.96470,0.06071
3354.03599,0.06094
3352.10727,0.06102
3350.17856,0.06112
3348.24984,0.06148
3346.32113,0.06170
3344.39241,0.06166
3342.46370,0.06153
3340.53498,0.06135
3338.60626,0.06123
3336.67755,0.06143
3334.74883,0.06165
3332.82012,0.06150
3330.89140,0.06134
3328.96269,0.06148
3327.03397,0.06165
3325.10526,0.06158
3323.17654,0.06144
3321.24783,0.06147
3319.31911,0.06173
3317.39040,0.06196
3315.46168,0.06201
3313.53297,0.06194
3311.60425,0.06166
3309.67553,0.06112
3307.74682,0.06074
3305.81810,0.06098
3303.88939,0.06150
3301.96067,0.06176
3300.03196,0.06172
3298.10324,0.06170
3296.17453,0.06175
3294.24581,0.06172
3292.31710,0.06166
3290.38838,0.06156
3288.45967,0.06131
3286.53095,0.06106
3284.60223,0.06103
3282.67352,0.06120
3280.74480,0.06150
3278.81609,0.06186
3276.88737,0.06209
3274.95866,0.06215
3273.02994,0.06219
3271.10123,0.06221
3269.17251,0.06203
3267.24380,0.06168
3265.31508,0.06162
3263.38637,0.06194
3261.45765,0.06196
3259.52894,0.06154
3257.60022,0.06135
3255.67150,0.06162
3253.74279,0.06195
3251.81407,0.06201
3249.88536,0.06190
3247.95664,0.06195
3246.02793,0.06215
3244.09921,0.06223
3242.17050,0.06214
3240.24178,0.06201
3238.31307,0.06207
3236.38435,0.06230
3234.45564,0.06223
3232.52692,0.06166
3230.59821,0.06118
3228.66949,0.06131
3226.74077,0.06164
3224.81206,0.06172
3222.88334,0.06173
3220.95463,0.06183
3219.02591,0.06183
3217.09720,0.06178
3215.16848,0.06176
3213.23977,0.06178
3211.31105,0.06176
3209.38234,0.06164
3207.45362,0.06156
3205.52491,0.06155
3203.59619,0.06146
3201.66748,0.06136
3199.73876,0.06136
3197.81004,0.06149
3195.88133,0.06181
3193.95261,0.06215
3192.02390,0.06225
3190.09518,0.06216
3188.16647,0.06208
3186.23775,0.06221
3184.30904,0.06243
3182.38032,0.06250
3180.45161,0.06234
3178.52289,0.06194
3176.59418,0.06163
3174.66546,0.06168
3172.73674,0.06183
3170.80803,0.06181
3168.87931,0.06172
3166.95060,0.06165
3165.02188,0.06158
3163.09317,0.06161
3161.16445,0.06172
3159.23574,0.06185
3157.30702,0.06191
3155.37831,0.06185
3153.44959,0.06189
3151.52088,0.06213
3149.59216,0.06227
3147.66345,0.06221
3145.73473,0.06226
3143.80601,0.06258
3141.87730,0.06273
3139.94858,0.06234
3138.01987,0.06187
3136.09115,0.06167
3134.16244,0.06156
3132.23372,0.06159
3130.30501,0.06191
3128.37629,0.06218
3126.44758,0.06200
3124.51886,0.06170
3122.59015,0.06165
3120.66143,0.06158
3118.73272,0.06152
3116.80400,0.06181
3114.87528,0.06211
3112.94657,0.06207
3111.01785,0.06183
3109.08914,0.06154
3107.16042,0.06147
3105.23171,0.06175
3103.30299,0.06196
3101.37428,0.06192
3099.44556,0.06191
3097.51685,0.06195
3095.58813,0.06184
3093.65942,0.06154
3091.73070,0.06138
3089.80198,0.06153
3087.87327,0.06176
3085.94455,0.06180
3084.01584,0.06162
3082.08712,0.06158
3080.15841,0.06167
3078.22969,0.06156
3076.30098,0.06140
3074.37226,0.06141
3072.44355,0.06159
3070.51483,0.06183
3068.58612,0.06179
3066.65740,0.06139
3064.72869,0.06095
3062.79997,0.06081
3060.87125,0.06106
3058.94254,0.06139
3057.01382,0.06140
3055.08511,0.06134
3053.15639,0.06149
3051.22768,0.06144
3049.29896,0.06112
3047.37025,0.06110
3045.44153,0.06146
3043.51282,0.06179
3041.58410,0.06207
3039.65539,0.06225
3037.72667,0.06218
3035.79796,0.06195
3033.86924,0.06181
3031.94052,0.06186
3030.01181,0.06204
3028.08309,0.06219
3026.15438,0.06219
3024.22566,0.06194
3022.29695,0.06162
3020.36823,0.06150
3018.43952,0.06148
3016.51080,0.06143
3014.58209,0.06143
3012.65337,0.06140
3010.72466,0.06129
3008.79594,0.06131
3006.86723,0.06140
3004.93851,0.06146
3003.00979,0.06149
3001.08108,0.06129
2999.15236,0.06086
2997.22365,0.06050
2995.29493,0.06030
2993.36622,0.06021
2991.43750,0.06016
2989.50879,0.06006
2987.58007,0.05987
2985.65136,0.05963
2983.72264,0.05954
2981.79393,0.05977
2979.86521,0.06036
2977.93649,0.06097
2976.00778,0.06116
2974.07906,0.06114
2972.15035,0.06142
2970.22163,0.06184
2968.29292,0.06213
2966.36420,0.06266
2964.43549,0.06352
2962.50677,0.06405
2960.57806,0.06401
2958.64934,0.06373
2956.72063,0.06342
2954.79191,0.06320
2952.86320,0.06313
2950.93448,0.06310
2949.00576,0.06289
2947.07705,0.06270
2945.14833,0.06292
2943.21962,0.06339
2941.29090,0.06369
2939.36219,0.06380
2937.43347,0.06399
2935.50476,0.06424
2933.57604,0.06425
2931.64733,0.06408
2929.71861,0.06407
2927.78990,0.06436
2925.86118,0.06464
2923.93247,0.06469
2922.00375,0.06472
2920.07503,0.06480
2918.14632,0.06477
2916.21760,0.06454
2914.28889,0.06428
2912.36017,0.06406
2910.43146,0.06371
2908.50274,0.06342
2906.57403,0.06347
2904.64531,0.06355
2902.71660,0.06349
2900.78788,0.06359
2898.85917,0.06388
2896.93045,0.06394
2895.00173,0.06345
2893.07302,0.06281
2891.14430,0.06274
2889.21559,0.06304
2887.28687,0.06316
2885.35816,0.06321
2883.42944,0.06337
2881.50073,0.06331
2879.57201,0.06303
2877.64330,0.06295
2875.71458,0.06314
2873.78587,0.06335
2871.85715,0.06341
2869.92844,0.06339
2867.99972,0.06348
2866.07100,0.06363
2864.14229,0.06364
2862.21357,0.06358
2860.28486,0.06366
2858.35614,0.06380
2856.42743,0.06385
2854.49871,0.06394
2852.57000,0.06419
2850.64128,0.06453
2848.71257,0.06454
2846.78385,0.06405
2844.85514,0.06354
2842.92642,0.06333
2840.99771,0.06339
2839.06899,0.06358
2837.14027,0.06361
2835.21156,0.06342
2833.28284,0.06330
2831.35413,0.06332
2829.42541,0.06341
2827.49670,0.06349
2825.56798,0.06344
2823.63927,0.06320
2821.71055,0.06292
2819.78184,0.06291
2817.85312,0.06311
2815.92441,0.06317
2813.99569,0.06305
2812.06698,0.06299
2810.13826,0.06305
2808.20954,0.06321
2806.28083,0.06338
2804.35211,0.06332
2802.42340,0.06311
2800.49468,0.06299
2798.56597,0.06294
2796.63725,0.06289
2794.70854,0.06288
2792.77982,0.06289
2790.85111,0.06286
2788.92239,0.06273
2786.99368,0.06268
2785.06496,0.06282
2783.13624,0.06303
2781.20753,0.06313
2779.27881,0.06303
2777.35010,0.06280
2775.42138,0.06258
2773.49267,0.06246
2771.56395,0.06247
2769.63524,0.06258
2767.70652,0.06269
2765.77781,0.06273
2763.84909,0.06278
2761.92038,0.06288
2759.99166,0.06296
2758.06295,0.06300
2756.13423,0.06307
2754.20551,0.06309
2752.27680,0.06292
2750.34808,0.06274
2748.41937,0.06280
2746.49065,0.06298
2744.56194,0.06302
2742.63322,0.06288
2740.70451,0.06269
2738.77579,0.06267
2736.84708,0.06274
2734.91836,0.06268
2732.98965,0.06264
2731.06093,0.06274
2729.13222,0.06296
2727.20350,0.06316
2725.27478,0.06334
2723.34607,0.06352
2721.41735,0.06349
2719.48864,0.06313
2717.55992,0.06287
2715.63121,0.06290
2713.70249,0.06294
2711.77378,0.06291
2709.84506,0.06291
2707.91635,0.06296
2705.98763,0.06300
2704.05892,0.06304
2702.13020,0.06308
2700.20149,0.06309
2698.27277,0.06302
2696.34405,0.06286
2694.41534,0.06262
2692.48662,0.06250
2690.55791,0.06269
2688.62919,0.06302
2686.70048,0.06320
2684.77176,0.06310
2682.84305,0.06292
2680.91433,0.06286
2678.98562,0.06281
2677.05690,0.06270
2675.12819,0.06264
2673.19947,0.06269
2671.27075,0.06287
2669.34204,0.06312
2667.41332,0.06318
2665.48461,0.06299
2663.55589,0.06285
2661.62718,0.06285
2659.69846,0.06292
2657.76975,0.06306
2655.84103,0.06313
2653.91232,0.06295
2651.98360,0.06274
2650.05489,0.06274
2648.12617,0.06286
2646.19746,0.06286
2644.26874,0.06283
2642.34002,0.06282
2640.41131,0.06275
2638.48259,0.06273
2636.55388,0.06274
2634.62516,0.06259
2632.69645,0.06236
2630.76773,0.06228
2628.83902,0.06233
2626.91030,0.06249
2624.98159,0.06267
2623.05287,0.06271
2621.12416,0.06271
2619.19544,0.06276
2617.26673,0.06273
2615.33801,0.06266
2613.40929,0.06280
2611.48058,0.06303
2609.55186,0.06297
2607.62315,0.06270
2605.69443,0.06255
2603.76572,0.06254
2601.83700,0.06250
2599.90829,0.06248
2597.97957,0.06263
2596.05086,0.06284
2594.12214,0.06288
2592.19343,0.06275
2590.26471,0.06260
2588.33599,0.06260
2586.40728,0.06270
2584.47856,0.06275
2582.54985,0.06276
2580.62113,0.06287
2578.69242,0.06303
2576.76370,0.06298
2574.83499,0.06268
2572.90627,0.06234
2570.97756,0.06217
2569.04884,0.06225
2567.12013,0.06255
2565.19141,0.06283
2563.26270,0.06291
2561.33398,0.06286
2559.40526,0.06282
2557.47655,0.06282
2555.54783,0.06286
2553.61912,0.06282
2551.69040,0.06273
2549.76169,0.06271
2547.83297,0.06264
2545.90426,0.06255
2543.97554,0.06255
2542.04683,0.06257
2540.11811,0.06259
2538.18940,0.06269
2536.26068,0.06272
2534.33197,0.06263
2532.40325,0.06259
2530.47453,0.06258
2528.54582,0.06259
2526.61710,0.06276
2524.68839,0.06289
2522.75967,0.06271
2520.83096,0.06239
2518.90224,0.06222
2516.97353,0.06232
2515.04481,0.06262
2513.11610,0.06284
2511.18738,0.06284
2509.25867,0.06273
2507.32995,0.06260
2505.40124,0.06248
2503.47252,0.06232
2501.54380,0.06221
2499.61509,0.06233
2497.68637,0.06257
2495.75766,0.06266
2493.82894,0.06256
2491.90023,0.06243
2489.97151,0.06244
2488.04280,0.06253
2486.11408,0.06249
2484.18537,0.06239
2482.25665,0.06249
2480.32794,0.06270
2478.39922,0.06269
2476.47050,0.06254
2474.54179,0.06253
2472.61307,0.06258
2470.68436,0.06250
2468.75564,0.06242
2466.82693,0.06255
2464.89821,0.06277
2462.96950,0.06287
2461.04078,0.06276
2459.11207,0.06259
2457.18335,0.06251
2455.25464,0.06246
2453.32592,0.06240
2451.39721,0.06240
2449.46849,0.06250
2447.53977,0.06264
2445.61106,0.06280
2443.68234,0.06294
2441.75363,0.06300
2439.82491,0.06297
2437.89620,0.06283
2435.96748,0.06263
2434.03877,0.06254
2432.11005,0.06252
2430.18134,0.06248
2428.25262,0.06252
2426.32391,0.06260
2424.39519,0.06256
2422.46648,0.06246
2420.53776,0.06247
2418.60904,0.06251
2416.68033,0.06252
2414.75161,0.06259
2412.82290,0.06268
2410.89418,0.06257
2408.96547,0.06230
2407.03675,0.06212
2405.10804,0.06213
2403.17932,0.06224
2401.25061,0.06234
2399.32189,0.06239
2397.39318,0.06253
2395.46446,0.06277
2393.53574,0.06295
2391.60703,0.06296
2389.67831,0.06291
2387.74960,0.06296
2385.82088,0.06315
2383.89217,0.06333
2381.96345,0.06341
2380.03474,0.06346
2378.10602,0.06345
2376.17731,0.06321
2374.24859,0.06270
2372.31988,0.06232
2370.39116,0.06260
2368.46245,0.06335
2366.53373,0.06337
2364.60501,0.06255
2362.67630,0.06217
2360.74758,0.06211
2358.81887,0.06172
2356.89015,0.06183
2354.96144,0.06242
2353.03272,0.06228
2351.10401,0.06198
2349.17529,0.06239
2347.24658,0.06313
2345.31786,0.06342
2343.38915,0.06287
2341.46043,0.06233
2339.53172,0.06248
2337.60300,0.06298
2335.67428,0.06329
2333.74557,0.06349
2331.81685,0.06394
2329.88814,0.06429
2327.95942,0.06422
2326.03071,0.06387
2324.10199,0.06333
2322.17328,0.06289
2320.24456,0.06284
2318.31585,0.06295
2316.38713,0.06286
2314.45842,0.06250
2312.52970,0.06214
2310.60099,0.06204
2308.67227,0.06208
2306.74355,0.06211
2304.81484,0.06216
2302.88612,0.06213
2300.95741,0.06204
2299.02869,0.06196
2297.09998,0.06195
2295.17126,0.06208
2293.24255,0.06218
2291.31383,0.06215
2289.38512,0.06212
2287.45640,0.06213
2285.52769,0.06204
2283.59897,0.06195
2281.67025,0.06200
2279.74154,0.06206
2277.81282,0.06212
2275.88411,0.06219
2273.95539,0.06212
2272.02668,0.06198
2270.09796,0.06201
2268.16925,0.06214
2266.24053,0.06214
2264.31182,0.06198
2262.38310,0.06169
2260.45439,0.06149
2258.52567,0.06159
2256.59696,0.06168
2254.66824,0.06153
2252.73952,0.06138
2250.81081,0.06136
2248.88209,0.06140
2246.95338,0.06152
2245.02466,0.06169
2243.09595,0.06190
2241.16723,0.06211
2239.23852,0.06205
2237.30980,0.06169
2235.38109,0.06155
2233.45237,0.06171
2231.52366,0.06180
2229.59494,0.06181
2227.66623,0.06196
2225.73751,0.06215
2223.80879,0.06208
2221.88008,0.06180
2219.95136,0.06170
2218.02265,0.06185
2216.09393,0.06195
2214.16522,0.06189
2212.23650,0.06187
2210.30779,0.06191
2208.37907,0.06187
2206.45036,0.06187
2204.52164,0.06204
2202.59293,0.06215
2200.66421,0.06206
2198.73549,0.06188
2196.80678,0.06188
2194.87806,0.06208
2192.94935,0.06216
2191.02063,0.06204
2189.09192,0.06191
2187.16320,0.06187
2185.23449,0.06184
2183.30577,0.06181
2181.37706,0.06174
2179.44834,0.06158
2177.51963,0.06144
2175.59091,0.06140
2173.66220,0.06153
2171.73348,0.06180
2169.80476,0.06199
2167.87605,0.06197
2165.94733,0.06182
2164.01862,0.06171
2162.08990,0.06176
2160.16119,0.06186
2158.23247,0.06181
2156.30376,0.06165
2154.37504,0.06150
2152.44633,0.06141
2150.51761,0.06137
2148.58890,0.06125
2146.66018,0.06117
2144.73147,0.06120
2142.80275,0.06121
2140.87403,0.06123
2138.94532,0.06131
2137.01660,0.06130
2135.08789,0.06125
2133.15917,0.06133
2131.23046,0.06146
2129.30174,0.06151
2127.37303,0.06144
2125.44431,0.06123
2123.51560,0.06112
2121.58688,0.06132
2119.65817,0.06161
2117.72945,0.06159
2115.80074,0.06127
2113.87202,0.06107
2111.94330,0.06114
2110.01459,0.06128
2108.08587,0.06136
2106.15716,0.06140
2104.22844,0.06139
2102.29973,0.06126
2100.37101,0.06104
2098.44230,0.06088
2096.51358,0.06089
2094.58487,0.06099
2092.65615,0.06105
2090.72744,0.06103
2088.79872,0.06105
2086.87000,0.06120
2084.94129,0.06128
2083.01257,0.06111
2081.08386,0.06085
2079.15514,0.06078
2077.22643,0.06100
2075.29771,0.06127
2073.36900,0.06138
2071.44028,0.06131
2069.51157,0.06125
2067.58285,0.06137
2065.65414,0.06144
2063.72542,0.06118
2061.79671,0.06087
2059.86799,0.06085
2057.93927,0.06100
2056.01056,0.06103
2054.08184,0.06090
2052.15313,0.06082
2050.22441,0.06086
2048.29570,0.06088
2046.36698,0.06076
2044.43827,0.06069
2042.50955,0.06087
2040.58084,0.06093
2038.65212,0.06070
2036.72341,0.06055
2034.79469,0.06064
2032.86598,0.06083
2030.93726,0.06095
2029.00854,0.06092
2027.07983,0.06083
2025.15111,0.06078
2023.22240,0.06075
2021.29368,0.06076
2019.36497,0.06073
2017.43625,0.06061
2015.50754,0.06059
2013.57882,0.06062
2011.65011,0.06060
2009.72139,0.06064
2007.79268,0.06065
2005.86396,0.06054
2003.93524,0.06054
2002.00653,0.06056
2000.07781,0.06040
1998.14910,0.06029
1996.22038,0.06036
1994.29167,0.06050
1992.36295,0.06062
1990.43424,0.06075
1988.50552,0.06076
1986.57681,0.06058
1984.64809,0.06041
1982.71938,0.06041
1980.79066,0.06045
1978.86195,0.06042
1976.93323,0.06037
1975.00451,0.06035
1973.07580,0.06029
1971.14708,0.06029
1969.21837,0.06040
1967.28965,0.06040
1965.36094,0.06026
1963.43222,0.06014
1961.50351,0.06003
1959.57479,0.05989
1957.64608,0.05977
1955.71736,0.05974
1953.78865,0.05982
1951.85993,0.05988
1949.93122,0.05989
1948.00250,0.05993
1946.07378,0.05996
1944.14507,0.05996
1942.21635,0.05994
1940.28764,0.05992
1938.35892,0.05990
1936.43021,0.05977
1934.50149,0.05951
1932.57278,0.05933
1930.64406,0.05926
1928.71535,0.05923
1926.78663,0.05931
1924.85792,0.05942
1922.92920,0.05936
1921.00049,0.05910
1919.07177,0.05881
1917.14305,0.05872
1915.21434,0.05886
1913.28562,0.05897
1911.35691,0.05896
1909.42819,0.05895
1907.49948,0.05889
1905.57076,0.05870
1903.64205,0.05848
1901.71333,0.05845
1899.78462,0.05863
1897.85590,0.05880
1895.92719,0.05875
1893.99847,0.05859
1892.06975,0.05847
1890.14104,0.05829
1888.21232,0.05812
1886.28361,0.05817
1884.35489,0.05822
1882.42618,0.05819
1880.49746,0.05813
1878.56875,0.05800
1876.64003,0.05790
1874.71132,0.05791
1872.78260,0.05795
1870.85389,0.05792
1868.92517,0.05768
1866.99646,0.05735
1865.06774,0.05729
1863.13902,0.05734
1861.21031,0.05733
1859.28159,0.05729
1857.35288,0.05723
1855.42416,0.05704
1853.49545,0.05676
1851.56673,0.05657
1849.63802,0.05653
1847.70930,0.05650
1845.78059,0.05636
1843.85187,0.05606
1841.92316,0.05570
1839.99444,0.05539
1838.06573,0.05509
1836.13701,0.05490
1834.20829,0.05490
1832.27958,0.05492
1830.35086,0.05465
1828.42215,0.05420
1826.49343,0.05387
1824.56472,0.05351
1822.63600,0.05305
1820.70729,0.05267
1818.77857,0.05234
1816.84986,0.05192
1814.92114,0.05134
1812.99243,0.05071
1811.06371,0.05005
1809.13499,0.04929
1807.20628,0.04842
1805.27756,0.04758
1803.34885,0.04688
1801.42013,0.04610
1799.49142,0.04498
1797.56270,0.04375
1795.63399,0.04265
1793.70527,0.04175
1791.77656,0.04144
1789.84784,0.04230
1787.91913,0.04389
1785.99041,0.04630
1784.06170,0.04972
1782.13298,0.05398
1780.20426,0.05920
1778.27555,0.06453
1776.34683,0.06923
1774.41812,0.07404
1772.48940,0.07996
1770.56069,0.08528
1768.63197,0.08774
1766.70326,0.08849
1764.77454,0.08821
1762.84583,0.08662
1760.91711,0.08395
1758.98840,0.08176
1757.05968,0.07988
1755.13097,0.07801
1753.20225,0.07661
1751.27353,0.07522
1749.34482,0.07359
1747.41610,0.07232
1745.48739,0.07139
1743.55867,0.07055
1741.62996,0.06991
1739.70124,0.06944
1737.77253,0.06903
1735.84381,0.06869
1733.91510,0.06821
1731.98638,0.06786
1730.05767,0.06762
1728.12895,0.06715
1726.20024,0.06672
1724.27152,0.06654
1722.34280,0.06644
1720.41409,0.06638
1718.48537,0.06637
1716.55666,0.06581
1714.62794,0.06494
1712.69923,0.06466
1710.77051,0.06465
1708.84180,0.06460
1706.91308,0.06431
1704.98437,0.06392
1703.05565,0.06390
1701.12694,0.06414
1699.19822,0.06423
1697.26950,0.06403
1695.34079,0.06330
1693.41207,0.06252
1691.48336,0.06214
1689.55464,0.06206
1687.62593,0.06231
1685.69721,0.06256
1683.76850,0.06182
1681.83978,0.06111
1679.91107,0.06124
1677.98235,0.06142
1676.05364,0.06142
1674.12492,0.06155
1672.19621,0.06208
1670.26749,0.06219
1668.33877,0.06130
1666.41006,0.06088
1664.48134,0.06094
1662.55263,0.06081
1660.62391,0.06058
1658.69520,0.06063
1656.76648,0.06082
1654.83777,0.06076
1652.90905,0.05992
1650.98034,0.05984
1649.05162,0.06035
1647.12291,0.06053
1645.19419,0.06023
1643.26548,0.06006
1641.33676,0.05999
1639.40804,0.05997
1637.47933,0.06001
1635.55061,0.05983
1633.62190,0.05954
1631.69318,0.05950
1629.76447,0.05952
1627.83575,0.05948
1625.90704,0.05935
1623.97832,0.05898
1622.04961,0.05852
1620.12089,0.05843
1618.19218,0.05854
1616.26346,0.05848
1614.33474,0.05829
1612.40603,0.05827
1610.47731,0.05833
1608.54860,0.05836
1606.61988,0.05834
1604.69117,0.05827
1602.76245,0.05820
1600.83374,0.05824
1598.90502,0.05841
1596.97631,0.05861
1595.04759,0.05877
1593.11888,0.05894
1591.19016,0.05913
1589.26145,0.05927
1587.33273,0.05928
1585.40401,0.05910
1583.47530,0.05884
1581.54658,0.05874
1579.61787,0.05873
1577.68915,0.05848
1575.76044,0.05781
1573.83172,0.05763
1571.90301,0.05776
1569.97429,0.05739
1568.04558,0.05678
1566.11686,0.05665
1564.18815,0.05656
1562.25943,0.05628
1560.33072,0.05581
1558.40200,0.05555
1556.47328,0.05564
1554.54457,0.05530
1552.61585,0.05499
1550.68714,0.05490
1548.75842,0.05492
1546.82971,0.05482
1544.90099,0.05440
1542.97228,0.05373
1541.04356,0.05305
1539.11485,0.05222
1537.18613,0.05207
1535.25742,0.05210
1533.32870,0.05167
1531.39999,0.05121
1529.47127,0.05128
1527.54255,0.05121
1525.61384,0.05033
1523.68512,0.04884
1521.75641,0.04703
1519.82769,0.04575
1517.89898,0.04453
1515.97026,0.04251
1514.04155,0.04141
1512.11283,0.04189
1510.18412,0.04359
1508.25540,0.04912
1506.32669,0.06334
1504.39797,0.07006
1502.46925,0.07189
1500.54054,0.07303
1498.61182,0.07340
1496.68311,0.07235
1494.75439,0.07107
1492.82568,0.07046
1490.89696,0.06958
1488.96825,0.06760
1487.03953,0.06595
1485.11082,0.06522
1483.18210,0.06464
1481.25339,0.06392
1479.32467,0.06324
1477.39596,0.06272
1475.46724,0.06214
1473.53852,0.06118
1471.60981,0.06030
1469.68109,0.06016
1467.75238,0.06035
1465.82366,0.06070
1463.89495,0.06107
1461.96623,0.06128
1460.03752,0.06142
1458.10880,0.06108
1456.18009,0.05980
1454.25137,0.05924
1452.32266,0.05917
1450.39394,0.05923
1448.46523,0.05933
1446.53651,0.05929
1444.60779,0.05914
1442.67908,0.05894
1440.75036,0.05870
1438.82165,0.05846
1436.89293,0.05798
1434.96422,0.05731
1433.03550,0.05694
1431.10679,0.05672
1429.17807,0.05638
1427.24936,0.05599
1425.32064,0.05554
1423.39193,0.05497
1421.46321,0.05460
1419.53449,0.05423
1417.60578,0.05360
1415.67706,0.05328
1413.74835,0.05336
1411.81963,0.05377
1409.89092,0.05456
1407.96220,0.05551
1406.03349,0.05605
1404.10477,0.05598
1402.17606,0.05577
1400.24734,0.05561
1398.31863,0.05520
1396.38991,0.05441
1394.46120,0.05352
1392.53248,0.05295
1390.60376,0.05271
1388.67505,0.05272
1386.74633,0.05316
1384.81762,0.05367
1382.88890,0.05382
1380.96019,0.05358
1379.03147,0.05304
1377.10276,0.05239
1375.17404,0.05160
1373.24533,0.05071
1371.31661,0.05012
1369.38790,0.04985
1367.45918,0.05005
1365.53047,0.05098
1363.60175,0.05225
1361.67303,0.05289
1359.74432,0.05260
1357.81560,0.05199
1355.88689,0.05130
1353.95817,0.05075
1352.02946,0.05032
1350.10074,0.04981
1348.17203,0.04932
1346.24331,0.04898
1344.31460,0.04864
1342.38588,0.04834
1340.45717,0.04806
1338.52845,0.04746
1336.59974,0.04665
1334.67102,0.04594
1332.74230,0.04533
1330.81359,0.04485
1328.88487,0.04457
1326.95616,0.04430
1325.02744,0.04383
1323.09873,0.04319
1321.17001,0.04233
1319.24130,0.04126
1317.31258,0.04023
1315.38387,0.03941
1313.45515,0.03888
1311.52644,0.03875
1309.59772,0.03868
1307.66900,0.03829
1305.74029,0.03766
1303.81157,0.03702
1301.88286,0.03634
1299.95414,0.03563
1298.02543,0.03507
1296.09671,0.03474
1294.16800,0.03460
1292.23928,0.03453
1290.31057,0.03432
1288.38185,0.03398
1286.45314,0.03353
1284.52442,0.03285
1282.59571,0.03189
1280.66699,0.03071
1278.73827,0.02919
1276.80956,0.02736
1274.88084,0.02554
1272.95213,0.02392
1271.02341,0.02224
1269.09470,0.02058
1267.16598,0.01956
1265.23727,0.01982
1263.30855,0.02198
1261.37984,0.02706
1259.45112,0.03548
1257.52241,0.04614
1255.59369,0.05768
1253.66498,0.06898
1251.73626,0.07898
1249.80754,0.08719
1247.87883,0.09367
1245.95011,0.09875
1244.02140,0.10299
1242.09268,0.10690
1240.16397,0.11074
1238.23525,0.11481
1236.30654,0.11905
1234.37782,0.12316
1232.44911,0.12719
1230.52039,0.13104
1228.59168,0.13422
1226.66296,0.13642
1224.73424,0.13750
1222.80553,0.13714
1220.87681,0.13490
1218.94810,0.13042
1217.01938,0.12370
1215.09067,0.11527
1213.16195,0.10565
1211.23324,0.09518
1209.30452,0.08488
1207.37581,0.07667
1205.44709,0.07327
1203.51838,0.07733
1201.58966,0.08936
1199.66095,0.10689
1197.73223,0.12601
1195.80351,0.14316
1193.87480,0.15592
1191.94608,0.16311
1190.01737,0.16453
1188.08865,0.16038
1186.15994,0.15151
1184.23122,0.14003
1182.30251,0.12863
1180.37379,0.11914
1178.44508,0.11139
1176.51636,0.10367
1174.58765,0.09524
1172.65893,0.08790
1170.73022,0.08567
1168.80150,0.09284
1166.87278,0.10991
1164.94407,0.13103
1163.01535,0.14755
1161.08664,0.15436
1159.15792,0.15229
1157.22921,0.14571
1155.30049,0.13840
1153.37178,0.13177
1151.44306,0.12592
1149.51435,0.12106
1147.58563,0.11726
1145.65692,0.11410
1143.72820,0.11133
1141.79949,0.10884
1139.87077,0.10650
1137.94205,0.10446
1136.01334,0.10279
1134.08462,0.10128
1132.15591,0.09966
1130.22719,0.09795
1128.29848,0.09649
1126.36976,0.09530
1124.44105,0.09410
1122.51233,0.09270
1120.58362,0.09122
1118.65490,0.09012
1116.72619,0.08938
1114.79747,0.08852
1112.86875,0.08762
1110.94004,0.08721
1109.01132,0.08743
1107.08261,0.08775
1105.15389,0.08784
1103.22518,0.08799
1101.29646,0.08841
1099.36775,0.08849
1097.43903,0.08751
1095.51032,0.08577
1093.58160,0.08392
1091.65289,0.08199
1089.72417,0.07975
1087.79546,0.07777
1085.86674,0.07748
1083.93802,0.08017
1082.00931,0.08575
1080.08059,0.09195
1078.15188,0.09534
1076.22316,0.09485
1074.29445,0.09267
1072.36573,0.09078
1070.43702,0.08919
1068.50830,0.08749
1066.57959,0.08585
1064.65087,0.08465
1062.72216,0.08392
1060.79344,0.08323
1058.86473,0.08245
1056.93601,0.08194
1055.00729,0.08187
1053.07858,0.08168
1051.14986,0.08086
1049.22115,0.07985
1047.29243,0.07920
1045.36372,0.07870
1043.43500,0.07794
1041.50629,0.07722
1039.57757,0.07684
1037.64886,0.07627
1035.72014,0.07522
1033.79143,0.07412
1031.86271,0.07311
1029.93399,0.07171
1028.00528,0.06971
1026.07656,0.06748
1024.14785,0.06545
1022.21913,0.06345
1020.29042,0.06249
1018.36170,0.06668
1016.43299,0.07830
1014.50427,0.09118
1012.57556,0.09709
1010.64684,0.09620
1008.71813,0.09405
1006.78941,0.09320
1004.86070,0.09294
1002.93198,0.09236
1001.00326,0.09124
999.07455,0.08977
997.14583,0.08838
995.21712,0.08734
993.28840,0.08656
991.35969,0.08589
989.43097,0.08529
987.50226,0.08484
985.57354,0.08434
983.64483,0.08357
981.71611,0.08279
979.78740,0.08245
977.85868,0.08237
975.92997,0.08179
974.00125,0.08071
972.07253,0.07983
970.14382,0.07953
968.21510,0.07964
966.28639,0.07971
964.35767,0.07948
962.42896,0.07919
960.50024,0.07906
958.57153,0.07884
956.64281,0.07841
954.71410,0.07799
952.78538,0.07773
950.85667,0.07754
948.92795,0.07743
946.99924,0.07746
945.07052,0.07752
943.14180,0.07727
941.21309,0.07668
939.28437,0.07610
937.35566,0.07588
935.42694,0.07596
933.49823,0.07597
931.56951,0.07555
929.64080,0.07487
927.71208,0.07444
925.78337,0.07437
923.85465,0.07442
921.92594,0.07441
919.99722,0.07430
918.06850,0.07426
916.13979,0.07433
914.21107,0.07430
912.28236,0.07401
910.35364,0.07359
908.42493,0.07322
906.49621,0.07281
904.56750,0.07223
902.63878,0.07161
900.71007,0.07103
898.78135,0.07041
896.85264,0.06961
894.92392,0.06878
892.99521,0.06848
891.06649,0.06940
889.13777,0.07144
887.20906,0.07340
885.28034,0.07449
883.35163,0.07492
881.42291,0.07505
879.49420,0.07498
877.56548,0.07464
875.63677,0.07401
873.70805,0.07326
871.77934,0.07249
869.85062,0.07173
867.92191,0.07106
865.99319,0.07032
864.06448,0.06946
862.13576,0.06876
860.20704,0.06824
858.27833,0.06772
856.34961,0.06720
854.42090,0.06666
852.49218,0.06601
850.56347,0.06540
848.63475,0.06535
846.70604,0.06591
844.77732,0.06644
842.84861,0.06666
840.91989,0.06688
838.99118,0.06757
837.06246,0.06894
835.13375,0.07108
833.20503,0.07414
831.27631,0.07776
829.34760,0.08124
827.41888,0.08368
825.49017,0.08448
823.56145,0.08403
821.63274,0.08325
819.70402,0.08293
817.77531,0.08327
815.84659,0.08381
813.91788,0.08420
811.98916,0.08442
810.06045,0.08432
808.13173,0.08379
806.20301,0.08321
804.27430,0.08274
802.34558,0.08196
800.41687,0.08084
798.48815,0.07979
796.55944,0.07879
794.63072,0.07776
792.70201,0.07683
790.77329,0.07606
788.84458,0.07536
786.91586,0.07477
784.98715,0.07431
783.05843,0.07389
781.12972,0.07360
779.20100,0.07369
777.27228,0.07405
775.34357,0.07446
773.41485,0.07524
771.48614,0.07662
769.55742,0.07795
767.62871,0.07876
765.69999,0.07926
763.77128,0.07958
761.84256,0.07972
759.91385,0.07988
757.98513,0.08021
756.05642,0.08053
754.12770,0.08047
752.19899,0.08001
750.27027,0.07962
748.34155,0.07959
746.41284,0.07945
744.48412,0.07897
742.55541,0.07846
740.62669,0.07799
738.69798,0.07747
736.76926,0.07686
734.84055,0.07633
732.91183,0.07634
730.98312,0.07677
729.05440,0.07684
727.12569,0.07648
725.19697,0.07634
723.26825,0.07657
721.33954,0.07676
719.41082,0.07658
717.48211,0.07616
715.55339,0.07572
713.62468,0.07527
711.69596,0.07486
709.76725,0.07491
707.83853,0.07558
705.90982,0.07658
703.98110,0.07758
702.05239,0.07813
700.12367,0.07796
698.19496,0.07760
696.26624,0.07752
694.33752,0.07738
692.40881,0.07686
690.48009,0.07627
688.55138,0.07574
686.62266,0.07520
684.69395,0.07502
682.76523,0.07525
680.83652,0.07524
678.90780,0.07498
676.97909,0.07519
675.05037,0.07579
673.12166,0.07621
671.19294,0.07620
669.26423,0.07564
667.33551,0.07504
665.40679,0.07484
663.47808,0.07451
661.54936,0.07403
659.62065,0.07357
657.69193,0.07319
655.76322,0.07317
653.83450,0.07335
651.90579,0.07320
649.97707,0.07279
648.04836,0.07226
646.11964,0.07158
644.19093,0.07141
642.26221,0.07186
640.33350,0.07192
638.40478,0.07142
636.47606,0.07105
634.54735,0.07100
632.61863,0.07114
630.68992,0.07133
628.76120,0.07145
626.83249,0.07134
624.90377,0.07086
622.97506,0.07055
621.04634,0.07124
619.11763,0.07206
617.18891,0.07152
615.26020,0.07086
613.33148,0.07094
611.40276,0.07020
609.47405,0.06870
607.54533,0.06735
605.61662,0.06649
603.68790,0.06662
601.75919,0.06697
599.83047,0.06652
