7496.91655,0.12454
7494.98784,0.12490
7493.05912,0.12473
7491.13041,0.11960
7489.20169,0.11402
7487.27297,0.11469
7485.34426,0.11908
7483.41554,0.12324
7481.48683,0.12428
7479.55811,0.12171
7477.62940,0.12129
7475.70068,0.12478
7473.77197,0.12710
7471.84325,0.12841
7469.91454,0.13190
7467.98582,0.13567
7466.05711,0.13520
7464.12839,0.13149
7462.19968,0.12870
7460.27096,0.12824
7458.34224,0.13025
7456.41353,0.13444
7454.48481,0.13754
7452.55610,0.13679
7450.62738,0.13213
7448.69867,0.12594
7446.76995,0.12088
7444.84124,0.11773
7442.91252,0.11731
7440.98381,0.11937
7439.05509,0.11944
7437.12638,0.11710
7435.19766,0.11577
7433.26895,0.11826
7431.34023,0.12261
7429.41151,0.11979
7427.48280,0.11052
7425.55408,0.10542
7423.62537,0.10538
7421.69665,0.10712
7419.76794,0.11178
7417.83922,0.11845
7415.91051,0.11923
7413.98179,0.11394
7412.05308,0.11152
7410.12436,0.11411
7408.19565,0.11990
7406.26693,0.12725
7404.33821,0.13036
7402.40950,0.12509
7400.48078,0.11471
7398.55207,0.10823
7396.62335,0.10886
7394.69464,0.11003
7392.76592,0.10860
7390.83721,0.10910
7388.90849,0.11071
7386.97978,0.10939
7385.05106,0.10773
7383.12235,0.10842
7381.19363,0.11052
7379.26492,0.11361
7377.33620,0.11880
7375.40748,0.12702
7373.47877,0.13053
7371.55005,0.12498
7369.62134,0.11878
7367.69262,0.11920
7365.76391,0.12173
7363.83519,0.11994
7361.90648,0.11440
7359.97776,0.10884
7358.04905,0.10551
7356.12033,0.10556
7354.19162,0.10780
7352.26290,0.10820
7350.33419,0.10654
7348.40547,0.10722
7346.47675,0.11106
7344.54804,0.11347
7342.61932,0.10950
7340.69061,0.10027
7338.76189,0.09250
7336.83318,0.09187
7334.90446,0.09587
7332.97575,0.09842
7331.04703,0.09831
7329.11832,0.09672
7327.18960,0.09274
7325.26089,0.09011
7323.33217,0.09413
7321.40346,0.10158
7319.47474,0.10589
7317.54602,0.10515
7315.61731,0.10051
7313.68859,0.09441
7311.75988,0.09037
7309.83116,0.09402
7307.90245,0.10419
7305.97373,0.11117
7304.04502,0.11217
7302.11630,0.10945
7300.18759,0.10366
7298.25887,0.09916
7296.33016,0.09733
7294.40144,0.09792
7292.47272,0.10190
7290.54401,0.10459
7288.61529,0.10228
7286.68658,0.09939
7284.75786,0.10062
7282.82915,0.10467
7280.90043,0.10768
7278.97172,0.10792
7277.04300,0.10675
7275.11429,0.10708
7273.18557,0.10712
7271.25686,0.10182
7269.32814,0.09449
7267.39943,0.09161
7265.47071,0.09291
7263.54199,0.09674
7261.61328,0.10149
7259.68456,0.10420
7257.75585,0.10417
7255.82713,0.10206
7253.89842,0.09784
7251.96970,0.09530
7250.04099,0.09864
7248.11227,0.10307
7246.18356,0.10051
7244.25484,0.09264
7242.32613,0.08913
7240.39741,0.09215
7238.46870,0.09473
7236.53998,0.09433
7234.61126,0.09329
7232.68255,0.09541
7230.75383,0.09874
7228.82512,0.09886
7226.89640,0.09642
7224.96769,0.09332
7223.03897,0.09368
7221.11026,0.10115
7219.18154,0.11044
7217.25283,0.11229
7215.32411,0.10962
7213.39540,0.10683
7211.46668,0.10223
7209.53796,0.09907
7207.60925,0.09949
7205.68053,0.09964
7203.75182,0.09888
7201.82310,0.09994
7199.89439,0.10178
7197.96567,0.10213
7196.03696,0.10145
7194.10824,0.09987
7192.17953,0.09607
7190.25081,0.09328
7188.32210,0.09340
7186.39338,0.09322
7184.46467,0.09172
7182.53595,0.09252
7180.60723,0.09703
7178.67852,0.10263
7176.74980,0.10723
7174.82109,0.10784
7172.89237,0.10377
7170.96366,0.10044
7169.03494,0.10100
7167.10623,0.10374
7165.17751,0.10529
7163.24880,0.10121
7161.32008,0.09196
7159.39137,0.08778
7157.46265,0.09195
7155.53394,0.09634
7153.60522,0.09890
7151.67650,0.10156
7149.74779,0.10183
7147.81907,0.09930
7145.89036,0.09676
7143.96164,0.09574
7142.03293,0.09644
7140.10421,0.09903
7138.17550,0.10139
7136.24678,0.10253
7134.31807,0.10442
7132.38935,0.10663
7130.46064,0.10557
7128.53192,0.10030
7126.60321,0.09536
7124.67449,0.09522
7122.74577,0.09814
7120.81706,0.09954
7118.88834,0.09880
7116.95963,0.09886
7115.03091,0.09943
7113.10220,0.10061
7111.17348,0.10310
7109.24477,0.10420
7107.31605,0.10457
7105.38734,0.10537
7103.45862,0.10379
7101.52991,0.10127
7099.60119,0.09892
7097.67247,0.09596
7095.74376,0.09640
7093.81504,0.10269
7091.88633,0.10818
7089.95761,0.10833
7088.02890,0.10671
7086.10018,0.10785
7084.17147,0.11049
7082.24275,0.11129
7080.31404,0.11091
7078.38532,0.11023
7076.45661,0.10809
7074.52789,0.10621
7072.59918,0.10583
7070.67046,0.10512
7068.74174,0.10509
7066.81303,0.10703
7064.88431,0.10642
7062.95560,0.10509
7061.02688,0.10846
7059.09817,0.11299
7057.16945,0.11499
7055.24074,0.11566
7053.31202,0.11465
7051.38331,0.11271
7049.45459,0.11120
7047.52588,0.10805
7045.59716,0.10399
7043.66845,0.10385
7041.73973,0.10703
7039.81101,0.11116
7037.88230,0.11602
7035.95358,0.11803
7034.02487,0.11494
7032.09615,0.11064
7030.16744,0.10886
7028.23872,0.10883
7026.31001,0.10735
7024.38129,0.10430
7022.45258,0.10414
7020.52386,0.10708
7018.59515,0.10796
7016.66643,0.10816
7014.73771,0.10977
7012.80900,0.10875
7010.88028,0.10724
7008.95157,0.10954
7007.02285,0.11170
7005.09414,0.11193
7003.16542,0.11331
7001.23671,0.11464
6999.30799,0.11560
6997.37928,0.11813
6995.45056,0.11847
6993.52185,0.11597
6991.59313,0.11647
6989.66442,0.11935
6987.73570,0.11860
6985.80698,0.11378
6983.87827,0.10905
6981.94955,0.10593
6980.02084,0.10454
6978.09212,0.10559
6976.16341,0.10749
6974.23469,0.10905
6972.30598,0.11153
6970.37726,0.11481
6968.44855,0.11628
6966.51983,0.11573
6964.59112,0.11545
6962.66240,0.11553
6960.73369,0.11506
6958.80497,0.11457
6956.87625,0.11286
6954.94754,0.11002
6953.01882,0.10901
6951.09011,0.11099
6949.16139,0.11472
6947.23268,0.11690
6945.30396,0.11536
6943.37525,0.11292
6941.44653,0.11350
6939.51782,0.11742
6937.58910,0.12089
6935.66039,0.12152
6933.73167,0.12169
6931.80296,0.12320
6929.87424,0.12223
6927.94552,0.11578
6926.01681,0.11056
6924.08809,0.11234
6922.15938,0.11599
6920.23066,0.11744
6918.30195,0.11901
6916.37323,0.12166
6914.44452,0.12330
6912.51580,0.12146
6910.58709,0.11624
6908.65837,0.11272
6906.72966,0.11366
6904.80094,0.11544
6902.87222,0.11571
6900.94351,0.11472
6899.01479,0.11215
6897.08608,0.10965
6895.15736,0.11023
6893.22865,0.11338
6891.29993,0.11565
6889.37122,0.11532
6887.44250,0.11327
6885.51379,0.11221
6883.58507,0.11210
6881.65636,0.10982
6879.72764,0.10772
6877.79893,0.11017
6875.87021,0.11527
6873.94149,0.11830
6872.01278,0.11533
6870.08406,0.10965
6868.15535,0.10931
6866.22663,0.11200
6864.29792,0.11113
6862.36920,0.10910
6860.44049,0.10924
6858.51177,0.11157
6856.58306,0.11495
6854.65434,0.11524
6852.72563,0.11175
6850.79691,0.11095
6848.86820,0.11527
6846.93948,0.11879
6845.01076,0.11894
6843.08205,0.11846
6841.15333,0.11660
6839.22462,0.11334
6837.29590,0.11202
6835.36719,0.11189
6833.43847,0.11114
6831.50976,0.11266
6829.58104,0.11679
6827.65233,0.11776
6825.72361,0.11357
6823.79490,0.10960
6821.86618,0.10954
6819.93746,0.11223
6818.00875,0.11424
6816.08003,0.11263
6814.15132,0.10907
6812.22260,0.10803
6810.29389,0.11089
6808.36517,0.11458
6806.43646,0.11623
6804.50774,0.11564
6802.57903,0.11288
6800.65031,0.11072
6798.72160,0.11224
6796.79288,0.11414
6794.86417,0.11479
6792.93545,0.11649
6791.00673,0.11625
6789.07802,0.11414
6787.14930,0.11516
6785.22059,0.11699
6783.29187,0.11543
6781.36316,0.11261
6779.43444,0.11238
6777.50573,0.11534
6775.57701,0.11747
6773.64830,0.11520
6771.71958,0.11266
6769.79087,0.11612
6767.86215,0.12149
6765.93344,0.12150
6764.00472,0.11841
6762.07600,0.11792
6760.14729,0.12087
6758.21857,0.12379
6756.28986,0.12283
6754.36114,0.11932
6752.43243,0.11743
6750.50371,0.11732
6748.57500,0.11689
6746.64628,0.11711
6744.71757,0.11874
6742.78885,0.11952
6740.86014,0.11862
6738.93142,0.11812
6737.00271,0.11851
6735.07399,0.11771
6733.14527,0.11607
6731.21656,0.11736
6729.28784,0.12123
6727.35913,0.12248
6725.43041,0.11986
6723.50170,0.11674
6721.57298,0.11502
6719.64427,0.11487
6717.71555,0.11571
6715.78684,0.11679
6713.85812,0.11842
6711.92941,0.12101
6710.00069,0.12390
6708.07197,0.12524
6706.14326,0.12398
6704.21454,0.12230
6702.28583,0.12181
6700.35711,0.12174
6698.42840,0.12160
6696.49968,0.12171
6694.57097,0.12167
6692.64225,0.12102
6690.71354,0.12105
6688.78482,0.12166
6686.85611,0.12109
6684.92739,0.12136
6682.99868,0.12300
6681.06996,0.12239
6679.14124,0.12066
6677.21253,0.12232
6675.28381,0.12588
6673.35510,0.12587
6671.42638,0.12223
6669.49767,0.11990
6667.56895,0.12071
6665.64024,0.12257
6663.71152,0.12451
6661.78281,0.12658
6659.85409,0.12723
6657.92538,0.12615
6655.99666,0.12497
6654.06795,0.12312
6652.13923,0.12019
6650.21051,0.11844
6648.28180,0.11948
6646.35308,0.12300
6644.42437,0.12671
6642.49565,0.12940
6640.56694,0.13116
6638.63822,0.12995
6636.70951,0.12712
6634.78079,0.12796
6632.85208,0.13210
6630.92336,0.13451
6628.99465,0.13346
6627.06593,0.13131
6625.13722,0.13054
6623.20850,0.13116
6621.27978,0.13063
6619.35107,0.12868
6617.42235,0.12756
6615.49364,0.12638
6613.56492,0.12421
6611.63621,0.12466
6609.70749,0.12957
6607.77878,0.13420
6605.85006,0.13462
6603.92135,0.13281
6601.99263,0.13177
6600.06392,0.13202
6598.13520,0.13152
6596.20648,0.12934
6594.27777,0.12773
6592.34905,0.12749
6590.42034,0.12829
6588.49162,0.12994
6586.56291,0.12962
6584.63419,0.12710
6582.70548,0.12711
6580.77676,0.13008
6578.84805,0.13143
6576.91933,0.12926
6574.99062,0.12631
6573.06190,0.12645
6571.13319,0.12873
6569.20447,0.12948
6567.27575,0.12910
6565.34704,0.12977
6563.41832,0.13107
6561.48961,0.13149
6559.56089,0.13039
6557.63218,0.12751
6555.70346,0.12458
6553.77475,0.12459
6551.84603,0.12780
6549.91732,0.13123
6547.98860,0.13217
6546.05989,0.13170
6544.13117,0.13130
6542.20246,0.13051
6540.27374,0.12923
6538.34502,0.12746
6536.41631,0.12643
6534.48759,0.12692
6532.55888,0.12741
6530.63016,0.12688
6528.70145,0.12574
6526.77273,0.12657
6524.84402,0.13012
6522.91530,0.13234
6520.98659,0.13179
6519.05787,0.13053
6517.12916,0.12816
6515.20044,0.12523
6513.27172,0.12583
6511.34301,0.12988
6509.41429,0.13226
6507.48558,0.13089
6505.55686,0.12798
6503.62815,0.12617
6501.69943,0.12661
6499.77072,0.12802
6497.84200,0.12822
6495.91329,0.12689
6493.98457,0.12580
6492.05586,0.12662
6490.12714,0.12821
6488.19843,0.12912
6486.26971,0.13003
6484.34099,0.13044
6482.41228,0.12939
6480.48356,0.12900
6478.55485,0.13068
6476.62613,0.13195
6474.69742,0.13017
6472.76870,0.12668
6470.83999,0.12538
6468.91127,0.12679
6466.98256,0.12868
6465.05384,0.13017
6463.12513,0.13049
6461.19641,0.13023
6459.26770,0.13089
6457.33898,0.13203
6455.41026,0.13289
6453.48155,0.13275
6451.55283,0.13072
6449.62412,0.12750
6447.69540,0.12605
6445.76669,0.12796
6443.83797,0.13025
6441.90926,0.13038
6439.98054,0.12908
6438.05183,0.12728
6436.12311,0.12635
6434.19440,0.12766
6432.26568,0.13003
6430.33697,0.13180
6428.40825,0.13288
6426.47953,0.13276
6424.55082,0.13085
6422.62210,0.12806
6420.69339,0.12598
6418.76467,0.12593
6416.83596,0.12785
6414.90724,0.13029
6412.97853,0.13128
6411.04981,0.13053
6409.12110,0.13014
6407.19238,0.13039
6405.26367,0.13026
6403.33495,0.13120
6401.40623,0.13305
6399.47752,0.13308
6397.54880,0.13115
6395.62009,0.12980
6393.69137,0.12993
6391.76266,0.12890
6389.83394,0.12581
6387.90523,0.12391
6385.97651,0.12402
6384.04780,0.12500
6382.11908,0.12759
6380.19037,0.13061
6378.26165,0.13098
6376.33294,0.12981
6374.40422,0.13001
6372.47550,0.13052
6370.54679,0.12982
6368.61807,0.12905
6366.68936,0.12937
6364.76064,0.13025
6362.83193,0.13078
6360.90321,0.13112
6358.97450,0.12975
6357.04578,0.12609
6355.11707,0.12452
6353.18835,0.12676
6351.25964,0.12962
6349.33092,0.13075
6347.40221,0.12973
6345.47349,0.12849
6343.54477,0.12866
6341.61606,0.12936
6339.68734,0.12983
6337.75863,0.12959
6335.82991,0.12795
6333.90120,0.12622
6331.97248,0.12514
6330.04377,0.12331
6328.11505,0.12121
6326.18634,0.12047
6324.25762,0.12147
6322.32891,0.12326
6320.40019,0.12357
6318.47147,0.12266
6316.54276,0.12310
6314.61404,0.12421
6312.68533,0.12356
6310.75661,0.12211
6308.82790,0.12196
6306.89918,0.12274
6304.97047,0.12345
6303.04175,0.12389
6301.11304,0.12376
6299.18432,0.12321
6297.25561,0.12293
6295.32689,0.12258
6293.39818,0.12087
6291.46946,0.11908
6289.54074,0.11983
6287.61203,0.12203
6285.68331,0.12287
6283.75460,0.12196
6281.82588,0.12111
6279.89717,0.12141
6277.96845,0.12143
6276.03974,0.11894
6274.11102,0.11436
6272.18231,0.11173
6270.25359,0.11318
6268.32488,0.11644
6266.39616,0.11916
6264.46745,0.12097
6262.53873,0.12171
6260.61001,0.12017
6258.68130,0.11724
6256.75258,0.11604
6254.82387,0.11688
6252.89515,0.11707
6250.96644,0.11509
6249.03772,0.11272
6247.10901,0.11233
6245.18029,0.11352
6243.25158,0.11390
6241.32286,0.11290
6239.39415,0.11288
6237.46543,0.11364
6235.53672,0.11268
6233.60800,0.11096
6231.67928,0.10985
6229.75057,0.10891
6227.82185,0.10863
6225.89314,0.10938
6223.96442,0.11025
6222.03571,0.11059
6220.10699,0.11031
6218.17828,0.10924
6216.24956,0.10753
6214.32085,0.10666
6212.39213,0.10696
6210.46342,0.10627
6208.53470,0.10376
6206.60598,0.10134
6204.67727,0.10004
6202.74855,0.09904
6200.81984,0.09803
6198.89112,0.09771
6196.96241,0.09822
6195.03369,0.09918
6193.10498,0.09973
6191.17626,0.09813
6189.24755,0.09489
6187.31883,0.09332
6185.39012,0.09325
6183.46140,0.09155
6181.53269,0.08903
6179.60397,0.08765
6177.67525,0.08717
6175.74654,0.08781
6173.81782,0.08809
6171.88911,0.08673
6169.96039,0.08613
6168.03168,0.08694
6166.10296,0.08773
6164.17425,0.08779
6162.24553,0.08611
6160.31682,0.08356
6158.38810,0.08225
6156.45939,0.08241
6154.53067,0.08306
6152.60196,0.08285
6150.67324,0.08152
6148.74452,0.08072
6146.81581,0.08106
6144.88709,0.08128
6142.95838,0.08081
6141.02966,0.08012
6139.10095,0.07955
6137.17223,0.07861
6135.24352,0.07659
6133.31480,0.07494
6131.38609,0.07556
6129.45737,0.07621
6127.52866,0.07445
6125.59994,0.07282
6123.67122,0.07306
6121.74251,0.07259
6119.81379,0.07073
6117.88508,0.06953
6115.95636,0.06891
6114.02765,0.06863
6112.09893,0.06921
6110.17022,0.06945
6108.24150,0.06846
6106.31279,0.06747
6104.38407,0.06735
6102.45536,0.06711
6100.52664,0.06556
6098.59793,0.06381
6096.66921,0.06311
6094.74049,0.06242
6092.81178,0.06083
6090.88306,0.05932
6088.95435,0.05880
6087.02563,0.05915
6085.09692,0.06038
6083.16820,0.06174
6081.23949,0.06158
6079.31077,0.06048
6077.38206,0.06064
6075.45334,0.06152
6073.52463,0.06138
6071.59591,0.06155
6069.66720,0.06344
6067.73848,0.06490
6065.80976,0.06360
6063.88105,0.06098
6061.95233,0.06001
6060.02362,0.06068
6058.09490,0.06042
6056.16619,0.05841
6054.23747,0.05638
6052.30876,0.05577
6050.38004,0.05643
6048.45133,0.05743
6046.52261,0.05767
6044.59390,0.05732
6042.66518,0.05738
6040.73647,0.05790
6038.80775,0.05826
6036.87903,0.05793
6034.95032,0.05714
6033.02160,0.05693
6031.09289,0.05740
6029.16417,0.05742
6027.23546,0.05645
6025.30674,0.05606
6023.37803,0.05724
6021.44931,0.05817
6019.52060,0.05733
6017.59188,0.05588
6015.66317,0.05570
6013.73445,0.05730
6011.80573,0.05998
6009.87702,0.06210
6007.94830,0.06149
6006.01959,0.05878
6004.09087,0.05632
6002.16216,0.05498
6000.23344,0.05516
5998.30473,0.05683
5996.37601,0.05833
5994.44730,0.05833
5992.51858,0.05734
5990.58987,0.05677
5988.66115,0.05723
5986.73244,0.05776
5984.80372,0.05758
5982.87500,0.05708
5980.94629,0.05565
5979.01757,0.05429
5977.08886,0.05551
5975.16014,0.05750
5973.23143,0.05773
5971.30271,0.05785
5969.37400,0.05787
5967.44528,0.05588
5965.51657,0.05403
5963.58785,0.05457
5961.65914,0.05556
5959.73042,0.05606
5957.80171,0.05706
5955.87299,0.05782
5953.94427,0.05750
5952.01556,0.05716
5950.08684,0.05796
5948.15813,0.05930
5946.22941,0.05930
5944.30070,0.05843
5942.37198,0.05854
5940.44327,0.05796
5938.51455,0.05610
5936.58584,0.05537
5934.65712,0.05576
5932.72841,0.05665
5930.79969,0.05831
5928.87097,0.06005
5926.94226,0.05994
5925.01354,0.05784
5923.08483,0.05650
5921.15611,0.05581
5919.22740,0.05436
5917.29868,0.05396
5915.36997,0.05520
5913.44125,0.05674
5911.51254,0.05767
5909.58382,0.05809
5907.65511,0.05863
5905.72639,0.05888
5903.79768,0.05838
5901.86896,0.05722
5899.94024,0.05538
5898.01153,0.05418
5896.08281,0.05553
5894.15410,0.05866
5892.22538,0.06116
5890.29667,0.06198
5888.36795,0.06110
5886.43924,0.05924
5884.51052,0.05789
5882.58181,0.05816
5880.65309,0.05887
5878.72438,0.05857
5876.79566,0.05842
5874.86695,0.05918
5872.93823,0.05956
5871.00951,0.05921
5869.08080,0.05873
5867.15208,0.05856
5865.22337,0.05850
5863.29465,0.05752
5861.36594,0.05632
5859.43722,0.05709
5857.50851,0.05912
5855.57979,0.05990
5853.65108,0.05978
5851.72236,0.06110
5849.79365,0.06402
5847.86493,0.06625
5845.93622,0.06595
5844.00750,0.06337
5842.07878,0.06068
5840.15007,0.05980
5838.22135,0.06029
5836.29264,0.06104
5834.36392,0.06252
5832.43521,0.06448
5830.50649,0.06527
5828.57778,0.06511
5826.64906,0.06487
5824.72035,0.06423
5822.79163,0.06337
5820.86292,0.06235
5818.93420,0.06162
5817.00548,0.06199
5815.07677,0.06288
5813.14805,0.06344
5811.21934,0.06343
5809.29062,0.06367
5807.36191,0.06489
5805.43319,0.06610
5803.50448,0.06633
5801.57576,0.06587
5799.64705,0.06528
5797.71833,0.06531
5795.78962,0.06555
5793.86090,0.06445
5791.93219,0.06215
5790.00347,0.06091
5788.07475,0.06128
5786.14604,0.06172
5784.21732,0.06202
5782.28861,0.06243
5780.35989,0.06270
5778.43118,0.06294
5776.50246,0.06231
5774.57375,0.06118
5772.64503,0.06108
5770.71632,0.06162
5768.78760,0.06236
5766.85889,0.06297
5764.93017,0.06280
5763.00146,0.06333
5761.07274,0.06462
5759.14402,0.06428
5757.21531,0.06276
5755.28659,0.06153
5753.35788,0.06043
5751.42916,0.06007
5749.50045,0.06086
5747.57173,0.06176
5745.64302,0.06192
5743.71430,0.06213
5741.78559,0.06335
5739.85687,0.06453
5737.92816,0.06513
5735.99944,0.06683
5734.07072,0.06956
5732.14201,0.07161
5730.21329,0.07254
5728.28458,0.07263
5726.35586,0.07238
5724.42715,0.07207
5722.49843,0.07212
5720.56972,0.07350
5718.64100,0.07550
5716.71229,0.07672
5714.78357,0.07742
5712.85486,0.07825
5710.92614,0.07906
5708.99743,0.07909
5707.06871,0.07784
5705.13999,0.07650
5703.21128,0.07640
5701.28256,0.07646
5699.35385,0.07620
5697.42513,0.07749
5695.49642,0.07966
5693.56770,0.07969
5691.63899,0.07750
5689.71027,0.07571
5687.78156,0.07535
5685.85284,0.07519
5683.92413,0.07452
5681.99541,0.07397
5680.06670,0.07392
5678.13798,0.07351
5676.20926,0.07263
5674.28055,0.07246
5672.35183,0.07302
5670.42312,0.07332
5668.49440,0.07262
5666.56569,0.07097
5664.63697,0.06995
5662.70826,0.07007
5660.77954,0.06993
5658.85083,0.06934
5656.92211,0.06911
5654.99340,0.06941
5653.06468,0.07041
5651.13597,0.07159
5649.20725,0.07173
5647.27853,0.07173
5645.34982,0.07316
5643.42110,0.07454
5641.49239,0.07512
5639.56367,0.07636
5637.63496,0.07786
5635.70624,0.07877
5633.77753,0.07945
5631.84881,0.08024
5629.92010,0.08156
5627.99138,0.08317
5626.06267,0.08419
5624.13395,0.08482
5622.20523,0.08590
5620.27652,0.08720
5618.34780,0.08746
5616.41909,0.08649
5614.49037,0.08579
5612.56166,0.08685
5610.63294,0.08894
5608.70423,0.09008
5606.77551,0.08914
5604.84680,0.08687
5602.91808,0.08579
5600.98937,0.08697
5599.06065,0.08831
5597.13194,0.08778
5595.20322,0.08644
5593.27450,0.08598
5591.34579,0.08593
5589.41707,0.08587
5587.48836,0.08604
5585.55964,0.08594
5583.63093,0.08514
5581.70221,0.08441
5579.77350,0.08490
5577.84478,0.08628
5575.91607,0.08702
5573.98735,0.08701
5572.05864,0.08760
5570.12992,0.08872
5568.20121,0.08859
5566.27249,0.08724
5564.34377,0.08690
5562.41506,0.08776
5560.48634,0.08773
5558.55763,0.08700
5556.62891,0.08687
5554.70020,0.08668
5552.77148,0.08636
5550.84277,0.08660
5548.91405,0.08644
5546.98534,0.08553
5545.05662,0.08508
5543.12791,0.08543
5541.19919,0.08569
5539.27047,0.08530
5537.34176,0.08457
5535.41304,0.08439
5533.48433,0.08494
5531.55561,0.08548
5529.62690,0.08581
5527.69818,0.08668
5525.76947,0.08813
5523.84075,0.08909
5521.91204,0.08858
5519.98332,0.08681
5518.05461,0.08540
5516.12589,0.08524
5514.19718,0.08524
5512.26846,0.08485
5510.33974,0.08469
5508.41103,0.08474
5506.48231,0.08493
5504.55360,0.08599
5502.62488,0.08729
5500.69617,0.08748
5498.76745,0.08695
5496.83874,0.08636
5494.91002,0.08571
5492.98131,0.08521
5491.05259,0.08499
5489.12388,0.08518
5487.19516,0.08532
5485.26645,0.08503
5483.33773,0.08462
5481.40901,0.08426
5479.48030,0.08403
5477.55158,0.08420
5475.62287,0.08474
5473.69415,0.08478
5471.76544,0.08456
5469.83672,0.08525
5467.90801,0.08582
5465.97929,0.08474
5464.05058,0.08351
5462.12186,0.08353
5460.19315,0.08409
5458.26443,0.08448
5456.33572,0.08498
5454.40700,0.08563
5452.47828,0.08589
5450.54957,0.08588
5448.62085,0.08600
5446.69214,0.08611
5444.76342,0.08649
5442.83471,0.08715
5440.90599,0.08764
5438.97728,0.08869
5437.04856,0.08985
5435.11985,0.08965
5433.19113,0.08858
5431.26242,0.08819
5429.33370,0.08796
5427.40498,0.08730
5425.47627,0.08718
5423.54755,0.08775
5421.61884,0.08812
5419.69012,0.08769
5417.76141,0.08691
5415.83269,0.08666
5413.90398,0.08695
5411.97526,0.08711
5410.04655,0.08717
5408.11783,0.08749
5406.18912,0.08807
5404.26040,0.08862
5402.33169,0.08852
5400.40297,0.08724
5398.47425,0.08569
5396.54554,0.08511
5394.61682,0.08510
5392.68811,0.08549
5390.75939,0.08633
5388.83068,0.08658
5386.90196,0.08667
5384.97325,0.08778
5383.04453,0.08894
5381.11582,0.08927
5379.18710,0.08941
5377.25839,0.08956
5375.32967,0.08957
5373.40096,0.09020
5371.47224,0.09130
5369.54352,0.09125
5367.61481,0.08985
5365.68609,0.08879
5363.75738,0.08888
5361.82866,0.08915
5359.89995,0.08887
5357.97123,0.08869
5356.04252,0.08920
5354.11380,0.08982
5352.18509,0.08941
5350.25637,0.08816
5348.32766,0.08716
5346.39894,0.08729
5344.47022,0.08796
5342.54151,0.08803
5340.61279,0.08800
5338.68408,0.08832
5336.75536,0.08850
5334.82665,0.08797
5332.89793,0.08724
5330.96922,0.08738
5329.04050,0.08835
5327.11179,0.08931
5325.18307,0.08940
5323.25436,0.08868
5321.32564,0.08815
5319.39693,0.08796
5317.46821,0.08778
5315.53949,0.08802
5313.61078,0.08799
5311.68206,0.08680
5309.75335,0.08576
5307.82463,0.08559
5305.89592,0.08530
5303.96720,0.08480
5302.03849,0.08420
5300.10977,0.08314
5298.18106,0.08183
5296.25234,0.08123
5294.32363,0.08187
5292.39491,0.08269
5290.46620,0.08229
5288.53748,0.08060
5286.60876,0.07874
5284.68005,0.07731
5282.75133,0.07573
5280.82262,0.07389
5278.89390,0.07273
5276.96519,0.07230
5275.03647,0.07155
5273.10776,0.07015
5271.17904,0.06896
5269.25033,0.06861
5267.32161,0.06860
5265.39290,0.06848
5263.46418,0.06825
5261.53547,0.06830
5259.60675,0.06883
5257.67803,0.06911
5255.74932,0.06899
5253.82060,0.06937
5251.89189,0.07015
5249.96317,0.07108
5248.03446,0.07270
5246.10574,0.07460
5244.17703,0.07635
5242.24831,0.07788
5240.31960,0.07872
5238.39088,0.07973
5236.46217,0.08174
5234.53345,0.08332
5232.60473,0.08359
5230.67602,0.08445
5228.74730,0.08653
5226.81859,0.08815
5224.88987,0.08856
5222.96116,0.08841
5221.03244,0.08871
5219.10373,0.08998
5217.17501,0.09158
5215.24630,0.09242
5213.31758,0.09247
5211.38887,0.09258
5209.46015,0.09285
5207.53144,0.09263
5205.60272,0.09230
5203.67400,0.09257
5201.74529,0.09299
5199.81657,0.09327
5197.88786,0.09340
5195.95914,0.09328
5194.03043,0.09264
5192.10171,0.09160
5190.17300,0.09085
5188.24428,0.09088
5186.31557,0.09166
5184.38685,0.09242
5182.45814,0.09216
5180.52942,0.09179
5178.60071,0.09221
5176.67199,0.09258
5174.74327,0.09252
5172.81456,0.09229
5170.88584,0.09186
5168.95713,0.09160
5167.02841,0.09154
5165.09970,0.09132
5163.17098,0.09116
5161.24227,0.09160
5159.31355,0.09254
5157.38484,0.09351
5155.45612,0.09429
5153.52741,0.09487
5151.59869,0.09547
5149.66997,0.09609
5147.74126,0.09611
5145.81254,0.09567
5143.88383,0.09570
5141.95511,0.09626
5140.02640,0.09695
5138.09768,0.09745
5136.16897,0.09735
5134.24025,0.09694
5132.31154,0.09676
5130.38282,0.09685
5128.45411,0.09677
5126.52539,0.09623
5124.59668,0.09593
5122.66796,0.09673
5120.73924,0.09799
5118.81053,0.09849
5116.88181,0.09859
5114.95310,0.09892
5113.02438,0.09884
5111.09567,0.09842
5109.16695,0.09858
5107.23824,0.09907
5105.30952,0.09916
5103.38081,0.09906
5101.45209,0.09884
5099.52338,0.09809
5097.59466,0.09733
5095.66595,0.09732
5093.73723,0.09772
5091.80851,0.09803
5089.87980,0.09788
5087.95108,0.09717
5086.02237,0.09656
5084.09365,0.09680
5082.16494,0.09749
5080.23622,0.09761
5078.30751,0.09704
5076.37879,0.09662
5074.45008,0.09659
5072.52136,0.09647
5070.59265,0.09621
5068.66393,0.09595
5066.73522,0.09577
5064.80650,0.09612
5062.87778,0.09696
5060.94907,0.09782
5059.02035,0.09867
5057.09164,0.09914
5055.16292,0.09884
5053.23421,0.09810
5051.30549,0.09745
5049.37678,0.09733
5047.44806,0.09742
5045.51935,0.09722
5043.59063,0.09719
5041.66192,0.09752
5039.73320,0.09752
5037.80448,0.09733
5035.87577,0.09740
5033.94705,0.09749
5032.01834,0.09791
5030.08962,0.09864
5028.16091,0.09828
5026.23219,0.09667
5024.30348,0.09547
5022.37476,0.09547
5020.44605,0.09610
5018.51733,0.09645
5016.58862,0.09579
5014.65990,0.09425
5012.73119,0.09319
5010.80247,0.09361
5008.87375,0.09493
5006.94504,0.09557
5005.01632,0.09495
5003.08761,0.09379
5001.15889,0.09312
4999.23018,0.09328
4997.30146,0.09343
4995.37275,0.09302
4993.44403,0.09287
4991.51532,0.09288
4989.58660,0.09213
4987.65789,0.09134
4985.72917,0.09156
4983.80046,0.09200
4981.87174,0.09165
4979.94302,0.09099
4978.01431,0.09063
4976.08559,0.09034
4974.15688,0.08992
4972.22816,0.08960
4970.29945,0.08964
4968.37073,0.09003
4966.44202,0.09061
4964.51330,0.09121
4962.58459,0.09142
4960.65587,0.09116
4958.72716,0.09073
4956.79844,0.09027
4954.86972,0.09020
4952.94101,0.09043
4951.01229,0.09004
4949.08358,0.08943
4947.15486,0.08957
4945.22615,0.09006
4943.29743,0.09013
4941.36872,0.08974
4939.44000,0.08931
4937.51129,0.08877
4935.58257,0.08800
4933.65386,0.08765
4931.72514,0.08787
4929.79643,0.08827
4927.86771,0.08843
4925.93899,0.08792
4924.01028,0.08701
4922.08156,0.08634
4920.15285,0.08578
4918.22413,0.08520
4916.29542,0.08442
4914.36670,0.08298
4912.43799,0.08150
4910.50927,0.08083
4908.58056,0.08058
4906.65184,0.08019
4904.72313,0.07969
4902.79441,0.07904
4900.86570,0.07812
4898.93698,0.07725
4897.00826,0.07697
4895.07955,0.07701
4893.15083,0.07680
4891.22212,0.07666
4889.29340,0.07697
4887.36469,0.07710
4885.43597,0.07657
4883.50726,0.07625
4881.57854,0.07669
4879.64983,0.07705
4877.72111,0.07671
4875.79240,0.07599
4873.86368,0.07544
4871.93497,0.07524
4870.00625,0.07520
4868.07753,0.07529
4866.14882,0.07525
4864.22010,0.07467
4862.29139,0.07388
4860.36267,0.07313
4858.43396,0.07196
4856.50524,0.07056
4854.57653,0.06974
4852.64781,0.06967
4850.71910,0.07010
4848.79038,0.07063
4846.86167,0.07101
4844.93295,0.07127
4843.00423,0.07118
4841.07552,0.07091
4839.14680,0.07096
4837.21809,0.07127
4835.28937,0.07155
4833.36066,0.07155
4831.43194,0.07118
4829.50323,0.07086
4827.57451,0.07080
4825.64580,0.07120
4823.71708,0.07232
4821.78837,0.07339
4819.85965,0.07356
4817.93094,0.07327
4816.00222,0.07310
4814.07350,0.07326
4812.14479,0.07355
4810.21607,0.07358
4808.28736,0.07350
4806.35864,0.07351
4804.42993,0.07348
4802.50121,0.07336
4800.57250,0.07310
4798.64378,0.07273
4796.71507,0.07240
4794.78635,0.07206
4792.85764,0.07174
4790.92892,0.07181
4789.00021,0.07222
4787.07149,0.07211
4785.14277,0.07134
4783.21406,0.07083
4781.28534,0.07067
4779.35663,0.07039
4777.42791,0.07014
4775.49920,0.07022
4773.57048,0.07004
4771.64177,0.06885
4769.71305,0.06761
4767.78434,0.06739
4765.85562,0.06751
4763.92691,0.06729
4761.99819,0.06711
4760.06948,0.06710
4758.14076,0.06681
4756.21204,0.06640
4754.28333,0.06636
4752.35461,0.06628
4750.42590,0.06567
4748.49718,0.06503
4746.56847,0.06469
4744.63975,0.06424
4742.71104,0.06375
4740.78232,0.06338
4738.85361,0.06304
4736.92489,0.06291
4734.99618,0.06289
4733.06746,0.06267
4731.13874,0.06251
4729.21003,0.06259
4727.28131,0.06226
4725.35260,0.06137
4723.42388,0.06078
4721.49517,0.06089
4719.56645,0.06122
4717.63774,0.06139
4715.70902,0.06147
4713.78031,0.06162
4711.85159,0.06189
4709.92288,0.06210
4707.99416,0.06203
4706.06545,0.06211
4704.13673,0.06225
4702.20801,0.06150
4700.27930,0.06052
4698.35058,0.06072
4696.42187,0.06160
4694.49315,0.06208
4692.56444,0.06175
4690.63572,0.06079
4688.70701,0.06040
4686.77829,0.06103
4684.84958,0.06136
4682.92086,0.06075
4680.99215,0.06005
4679.06343,0.05988
4677.13472,0.06002
4675.20600,0.06047
4673.27728,0.06126
4671.34857,0.06182
4669.41985,0.06173
4667.49114,0.06151
4665.56242,0.06167
4663.63371,0.06199
4661.70499,0.06226
4659.77628,0.06248
4657.84756,0.06235
4655.91885,0.06190
4653.99013,0.06183
4652.06142,0.06224
4650.13270,0.06245
4648.20398,0.06212
4646.27527,0.06161
4644.34655,0.06154
4642.41784,0.06160
4640.48912,0.06142
4638.56041,0.06150
4636.63169,0.06180
4634.70298,0.06161
4632.77426,0.06116
4630.84555,0.06119
4628.91683,0.06158
4626.98812,0.06158
4625.05940,0.06118
4623.13069,0.06081
4621.20197,0.06052
4619.27325,0.06037
4617.34454,0.06068
4615.41582,0.06122
4613.48711,0.06147
4611.55839,0.06165
4609.62968,0.06190
4607.70096,0.06186
4605.77225,0.06174
4603.84353,0.06182
4601.91482,0.06178
4599.98610,0.06185
4598.05739,0.06258
4596.12867,0.06331
4594.19996,0.06303
4592.27124,0.06228
4590.34252,0.06197
4588.41381,0.06157
4586.48509,0.06078
4584.55638,0.06057
4582.62766,0.06124
4580.69895,0.06206
4578.77023,0.06243
4576.84152,0.06213
4574.91280,0.06165
4572.98409,0.06174
4571.05537,0.06221
4569.12666,0.06237
4567.19794,0.06213
4565.26923,0.06181
4563.34051,0.06159
4561.41179,0.06154
4559.48308,0.06165
4557.55436,0.06180
4555.62565,0.06189
4553.69693,0.06205
4551.76822,0.06211
4549.83950,0.06202
4547.91079,0.06205
4545.98207,0.06223
4544.05336,0.06270
4542.12464,0.06335
4540.19593,0.06350
4538.26721,0.06299
4536.33849,0.06225
4534.40978,0.06150
4532.48106,0.06122
4530.55235,0.06181
4528.62363,0.06264
4526.69492,0.06298
4524.76620,0.06312
4522.83749,0.06359
4520.90877,0.06400
4518.98006,0.06357
4517.05134,0.06256
4515.12263,0.06193
4513.19391,0.06201
4511.26520,0.06233
4509.33648,0.06234
4507.40776,0.06215
4505.47905,0.06201
4503.55033,0.06178
4501.62162,0.06193
4499.69290,0.06246
4497.76419,0.06241
4495.83547,0.06184
4493.90676,0.06145
4491.97804,0.06146
4490.04933,0.06174
4488.12061,0.06178
4486.19190,0.06154
4484.26318,0.06154
4482.33447,0.06171
4480.40575,0.06171
4478.47703,0.06167
4476.54832,0.06177
4474.61960,0.06196
4472.69089,0.06231
4470.76217,0.06260
4468.83346,0.06254
4466.90474,0.06241
4464.97603,0.06248
4463.04731,0.06229
4461.11860,0.06189
4459.18988,0.06178
4457.26117,0.06172
4455.33245,0.06164
4453.40373,0.06196
4451.47502,0.06246
4449.54630,0.06250
4447.61759,0.06229
4445.68887,0.06227
4443.76016,0.06233
4441.83144,0.06242
4439.90273,0.06253
4437.97401,0.06235
4436.04530,0.06199
4434.11658,0.06185
4432.18787,0.06178
4430.25915,0.06158
4428.33044,0.06162
4426.40172,0.06219
4424.47300,0.06272
4422.54429,0.06258
4420.61557,0.06203
4418.68686,0.06171
4416.75814,0.06158
4414.82943,0.06148
4412.90071,0.06163
4410.97200,0.06179
4409.04328,0.06165
4407.11457,0.06122
4405.18585,0.06073
4403.25714,0.06078
4401.32842,0.06134
4399.39971,0.06190
4397.47099,0.06241
4395.54227,0.06269
4393.61356,0.06262
4391.68484,0.06241
4389.75613,0.06201
4387.82741,0.06146
4385.89870,0.06109
4383.96998,0.06125
4382.04127,0.06191
4380.11255,0.06231
4378.18384,0.06211
4376.25512,0.06206
4374.32641,0.06247
4372.39769,0.06281
4370.46898,0.06277
4368.54026,0.06251
4366.61154,0.06219
4364.68283,0.06187
4362.75411,0.06147
4360.82540,0.06120
4358.89668,0.06147
4356.96797,0.06214
4355.03925,0.06264
4353.11054,0.06262
4351.18182,0.06231
4349.25311,0.06219
4347.32439,0.06227
4345.39568,0.06237
4343.46696,0.06236
4341.53824,0.06223
4339.60953,0.06227
4337.68081,0.06243
4335.75210,0.06240
4333.82338,0.06221
4331.89467,0.06212
4329.96595,0.06215
4328.03724,0.06194
4326.10852,0.06168
4324.17981,0.06208
4322.25109,0.06273
4320.32238,0.06280
4318.39366,0.06259
4316.46495,0.06255
4314.53623,0.06235
4312.60751,0.06211
4310.67880,0.06237
4308.75008,0.06288
4306.82137,0.06316
4304.89265,0.06315
4302.96394,0.06290
4301.03522,0.06245
4299.10651,0.06214
4297.17779,0.06220
4295.24908,0.06236
4293.32036,0.06251
4291.39165,0.06273
4289.46293,0.06275
4287.53422,0.06262
4285.60550,0.06282
4283.67678,0.06313
4281.74807,0.06293
4279.81935,0.06242
4277.89064,0.06224
4275.96192,0.06250
4274.03321,0.06283
4272.10449,0.06268
4270.17578,0.06204
4268.24706,0.06180
4266.31835,0.06246
4264.38963,0.06335
4262.46092,0.06369
4260.53220,0.06350
4258.60348,0.06296
4256.67477,0.06232
4254.74605,0.06206
4252.81734,0.06222
4250.88862,0.06241
4248.95991,0.06225
4247.03119,0.06182
4245.10248,0.06155
4243.17376,0.06159
4241.24505,0.06176
4239.31633,0.06208
4237.38762,0.06249
4235.45890,0.06270
4233.53019,0.06260
4231.60147,0.06249
4229.67275,0.06242
4227.74404,0.06235
4225.81532,0.06263
4223.88661,0.06315
4221.95789,0.06321
4220.02918,0.06281
4218.10046,0.06257
4216.17175,0.06270
4214.24303,0.06293
4212.31432,0.06316
4210.38560,0.06339
4208.45689,0.06330
4206.52817,0.06296
4204.59946,0.06283
4202.67074,0.06296
4200.74202,0.06295
4198.81331,0.06270
4196.88459,0.06240
4194.95588,0.06219
4193.02716,0.06224
4191.09845,0.06259
4189.16973,0.06291
4187.24102,0.06299
4185.31230,0.06291
4183.38359,0.06284
4181.45487,0.06293
4179.52616,0.06305
4177.59744,0.06295
4175.66873,0.06267
4173.74001,0.06251
4171.81129,0.06259
4169.88258,0.06280
4167.95386,0.06283
4166.02515,0.06257
4164.09643,0.06247
4162.16772,0.06258
4160.23900,0.06262
4158.31029,0.06265
4156.38157,0.06280
4154.45286,0.06288
4152.52414,0.06260
4150.59543,0.06211
4148.66671,0.06189
4146.73799,0.06207
4144.80928,0.06229
4142.88056,0.06234
4140.95185,0.06235
4139.02313,0.06228
4137.09442,0.06223
4135.16570,0.06234
4133.23699,0.06225
4131.30827,0.06198
4129.37956,0.06207
4127.45084,0.06262
4125.52213,0.06344
4123.59341,0.06386
4121.66470,0.06332
4119.73598,0.06257
4117.80726,0.06243
4115.87855,0.06274
4113.94983,0.06295
4112.02112,0.06289
4110.09240,0.06289
4108.16369,0.06303
4106.23497,0.06300
4104.30626,0.06282
4102.37754,0.06268
4100.44883,0.06272
4098.52011,0.06296
4096.59140,0.06307
4094.66268,0.06280
4092.73397,0.06266
4090.80525,0.06277
4088.87653,0.06266
4086.94782,0.06253
4085.01910,0.06267
4083.09039,0.06268
4081.16167,0.06245
4079.23296,0.06251
4077.30424,0.06269
4075.37553,0.06224
4073.44681,0.06157
4071.51810,0.06180
4069.58938,0.06275
4067.66067,0.06321
4065.73195,0.06288
4063.80323,0.06279
4061.87452,0.06323
4059.94580,0.06328
4058.01709,0.06295
4056.08837,0.06270
4054.15966,0.06245
4052.23094,0.06222
4050.30223,0.06235
4048.37351,0.06275
4046.44480,0.06296
4044.51608,0.06284
4042.58737,0.06275
4040.65865,0.06293
4038.72994,0.06308
4036.80122,0.06290
4034.87250,0.06276
4032.94379,0.06291
4031.01507,0.06317
4029.08636,0.06346
4027.15764,0.06359
4025.22893,0.06343
4023.30021,0.06334
4021.37150,0.06342
4019.44278,0.06335
4017.51407,0.06309
4015.58535,0.06300
4013.65664,0.06320
4011.72792,0.06344
4009.79921,0.06336
4007.87049,0.06310
4005.94177,0.06311
4004.01306,0.06342
4002.08434,0.06381
4000.15563,0.06395
3998.22691,0.06367
3996.29820,0.06332
3994.36948,0.06324
3992.44077,0.06333
3990.51205,0.06338
3988.58334,0.06331
3986.65462,0.06312
3984.72591,0.06289
3982.79719,0.06280
3980.86848,0.06296
3978.93976,0.06325
3977.01104,0.06346
3975.08233,0.06350
3973.15361,0.06342
3971.22490,0.06320
3969.29618,0.06287
3967.36747,0.06255
3965.43875,0.06236
3963.51004,0.06244
3961.58132,0.06259
3959.65261,0.06258
3957.72389,0.06275
3955.79518,0.06308
3953.86646,0.06313
3951.93774,0.06292
3950.00903,0.06288
3948.08031,0.06302
3946.15160,0.06299
3944.22288,0.06276
3942.29417,0.06262
3940.36545,0.06274
3938.43674,0.06281
3936.50802,0.06263
3934.57931,0.06244
3932.65059,0.06253
3930.72188,0.06283
3928.79316,0.06309
3926.86445,0.06326
3924.93573,0.06322
3923.00701,0.06299
3921.07830,0.06297
3919.14958,0.06321
3917.22087,0.06341
3915.29215,0.06352
3913.36344,0.06365
3911.43472,0.06362
3909.50601,0.06345
3907.57729,0.06334
3905.64858,0.06322
3903.71986,0.06295
3901.79115,0.06253
3899.86243,0.06229
3897.93372,0.06272
3896.00500,0.06341
3894.07628,0.06382
3892.14757,0.06381
3890.21885,0.06380
3888.29014,0.06409
3886.36142,0.06397
3884.43271,0.06326
3882.50399,0.06297
3880.57528,0.06322
3878.64656,0.06357
3876.71785,0.06377
3874.78913,0.06374
3872.86042,0.06381
3870.93170,0.06393
3869.00298,0.06373
3867.07427,0.06338
3865.14555,0.06291
3863.21684,0.06270
3861.28812,0.06292
3859.35941,0.06307
3857.43069,0.06314
3855.50198,0.06302
3853.57326,0.06221
3851.64455,0.06178
3849.71583,0.06230
3847.78712,0.06291
3845.85840,0.06340
3843.92969,0.06365
3842.00097,0.06370
3840.07225,0.06366
3838.14354,0.06375
3836.21482,0.06396
3834.28611,0.06382
3832.35739,0.06339
3830.42868,0.06305
3828.49996,0.06297
3826.57125,0.06310
3824.64253,0.06311
3822.71382,0.06270
3820.78510,0.06216
3818.85639,0.06236
3816.92767,0.06300
3814.99896,0.06334
3813.07024,0.06328
3811.14152,0.06326
3809.21281,0.06323
3807.28409,0.06297
3805.35538,0.06309
3803.42666,0.06359
3801.49795,0.06382
3799.56923,0.06398
3797.64052,0.06382
3795.71180,0.06339
3793.78309,0.06319
3791.85437,0.06317
3789.92566,0.06340
3787.99694,0.06381
3786.06823,0.06375
3784.13951,0.06328
3782.21079,0.06298
3780.28208,0.06269
3778.35336,0.06263
3776.42465,0.06308
3774.49593,0.06341
3772.56722,0.06339
3770.63850,0.06316
3768.70979,0.06289
3766.78107,0.06273
3764.85236,0.06277
3762.92364,0.06314
3760.99493,0.06359
3759.06621,0.06392
3757.13749,0.06418
3755.20878,0.06420
3753.28006,0.06387
3751.35135,0.06288
3749.42263,0.06176
3747.49392,0.06165
3745.56520,0.06182
3743.63649,0.06198
3741.70777,0.06237
3739.77906,0.06281
3737.85034,0.06327
3735.92163,0.06395
3733.99291,0.06442
3732.06420,0.06425
3730.13548,0.06418
3728.20676,0.06417
3726.27805,0.06384
3724.34933,0.06330
3722.42062,0.06304
3720.49190,0.06302
3718.56319,0.06299
3716.63447,0.06309
3714.70576,0.06361
3712.77704,0.06438
3710.84833,0.06444
3708.91961,0.06385
3706.99090,0.06354
3705.06218,0.06338
3703.13347,0.06322
3701.20475,0.06320
3699.27603,0.06344
3697.34732,0.06368
3695.41860,0.06359
3693.48989,0.06299
3691.56117,0.06199
3689.63246,0.06153
3687.70374,0.06247
3685.77503,0.06317
3683.84631,0.06319
3681.91760,0.06295
3679.98888,0.06269
3678.06017,0.06244
3676.13145,0.06275
3674.20273,0.06404
3672.27402,0.06445
3670.34530,0.06354
3668.41659,0.06271
3666.48787,0.06276
3664.55916,0.06283
3662.63044,0.06266
3660.70173,0.06248
3658.77301,0.06266
3656.84430,0.06323
3654.91558,0.06388
3652.98687,0.06439
3651.05815,0.06455
3649.12944,0.06302
3647.20072,0.06163
3645.27200,0.06228
3643.34329,0.06303
3641.41457,0.06346
3639.48586,0.06359
3637.55714,0.06331
3635.62843,0.06266
3633.69971,0.06206
3631.77100,0.06186
3629.84228,0.06186
3627.91357,0.06180
3625.98485,0.06179
3624.05614,0.06184
3622.12742,0.06191
3620.19871,0.06170
3618.26999,0.06142
3616.34127,0.06172
3614.41256,0.06211
3612.48384,0.06235
3610.55513,0.06255
3608.62641,0.06280
3606.69770,0.06325
3604.76898,0.06352
3602.84027,0.06329
3600.91155,0.06274
3598.98284,0.06224
3597.05412,0.06189
3595.12541,0.06175
3593.19669,0.06192
3591.26798,0.06227
3589.33926,0.06253
3587.41054,0.06229
3585.48183,0.06181
3583.55311,0.06177
3581.62440,0.06212
3579.69568,0.06245
3577.76697,0.06228
3575.83825,0.06182
3573.90954,0.06169
3571.98082,0.06195
3570.05211,0.06214
3568.12339,0.06219
3566.19468,0.06252
3564.26596,0.06287
3562.33724,0.06305
3560.40853,0.06320
3558.47981,0.06312
3556.55110,0.06287
3554.62238,0.06270
3552.69367,0.06237
3550.76495,0.06182
3548.83624,0.06150
3546.90752,0.06141
3544.97881,0.06145
3543.05009,0.06184
3541.12138,0.06249
3539.19266,0.06294
3537.26395,0.06286
3535.33523,0.06223
3533.40651,0.06147
3531.47780,0.06107
3529.54908,0.06141
3527.62037,0.06239
3525.69165,0.06308
3523.76294,0.06299
3521.83422,0.06260
3519.90551,0.06240
3517.97679,0.06249
3516.04808,0.06272
3514.11936,0.06286
3512.19065,0.06276
3510.26193,0.06242
3508.33322,0.06201
3506.40450,0.06170
3504.47578,0.06159
3502.54707,0.06177
3500.61835,0.06198
3498.68964,0.06201
3496.76092,0.06212
3494.83221,0.06240
3492.90349,0.06248
3490.97478,0.06233
3489.04606,0.06207
3487.11735,0.06178
3485.18863,0.06177
3483.25992,0.06209
3481.33120,0.06225
3479.40248,0.06210
3477.47377,0.06198
3475.54505,0.06194
3473.61634,0.06185
3471.68762,0.06178
3469.75891,0.06183
3467.83019,0.06190
3465.90148,0.06170
3463.97276,0.06133
3462.04405,0.06131
3460.11533,0.06168
3458.18662,0.06181
3456.25790,0.06166
3454.32919,0.06171
3452.40047,0.06179
3450.47175,0.06163
3448.54304,0.06156
3446.61432,0.06166
3444.68561,0.06170
3442.75689,0.06185
3440.82818,0.06211
3438.89946,0.06222
3436.97075,0.06239
3435.04203,0.06277
3433.11332,0.06314
3431.18460,0.06306
3429.25589,0.06246
3427.32717,0.06199
3425.39846,0.06205
3423.46974,0.06227
3421.54102,0.06216
3419.61231,0.06183
3417.68359,0.06163
3415.75488,0.06157
3413.82616,0.06160
3411.89745,0.06165
3409.96873,0.06160
3408.04002,0.06146
3406.11130,0.06139
3404.18259,0.06146
3402.25387,0.06159
3400.32516,0.06167
3398.39644,0.06164
3396.46773,0.06165
3394.53901,0.06176
3392.61029,0.06179
3390.68158,0.06179
3388.75286,0.06186
3386.82415,0.06204
3384.89543,0.06222
3382.96672,0.06223
3381.03800,0.06211
3379.10929,0.06199
3377.18057,0.06181
3375.25186,0.06159
3373.32314,0.06165
3371.39443,0.06200
3369.46571,0.06230
3367.53699,0.06230
3365.60828,0.06192
3363.67956,0.06150
3361.75085,0.06141
3359.82213,0.06153
3357.89342,0.06174
3355.96470,0.06223
3354.03599,0.06267
3352.10727,0.06251
3350.17856,0.06216
3348.24984,0.06218
3346.32113,0.06229
3344.39241,0.06222
3342.46370,0.06211
3340.53498,0.06213
3338.60626,0.06216
3336.67755,0.06198
3334.74883,0.06188
3332.82012,0.06214
3330.89140,0.06236
3328.96269,0.06229
3327.03397,0.06212
3325.10526,0.06182
3323.17654,0.06149
3321.24783,0.06148
3319.31911,0.06186
3317.39040,0.06234
3315.46168,0.06244
3313.53297,0.06212
3311.60425,0.06166
3309.67553,0.06128
3307.74682,0.06147
3305.81810,0.06219
3303.88939,0.06258
3301.96067,0.06245
3300.03196,0.06226
3298.10324,0.06221
3296.17453,0.06227
3294.24581,0.06243
3292.31710,0.06236
3290.38838,0.06188
3288.45967,0.06143
3286.53095,0.06135
3284.60223,0.06147
3282.67352,0.06161
3280.74480,0.06178
3278.81609,0.06200
3276.88737,0.06223
3274.95866,0.06235
3273.02994,0.06244
3271.10123,0.06248
3269.17251,0.06228
3267.24380,0.06193
3265.31508,0.06179
3263.38637,0.06204
3261.45765,0.06233
3259.52894,0.06219
3257.60022,0.06187
3255.67150,0.06181
3253.74279,0.06185
3251.81407,0.06178
3249.88536,0.06160
3247.95664,0.06134
3246.02793,0.06125
3244.09921,0.06158
3242.17050,0.06203
3240.24178,0.06224
3238.31307,0.06210
3236.38435,0.06171
3234.45564,0.06150
3232.52692,0.06170
3230.59821,0.06190
3228.66949,0.06192
3226.74077,0.06202
3224.81206,0.06233
3222.88334,0.06249
3220.95463,0.06228
3219.02591,0.06198
3217.09720,0.06195
3215.16848,0.06206
3213.23977,0.06217
3211.31105,0.06245
3209.38234,0.06266
3207.45362,0.06237
3205.52491,0.06203
3203.59619,0.06211
3201.66748,0.06228
3199.73876,0.06217
3197.81004,0.06191
3195.88133,0.06185
3193.95261,0.06201
3192.02390,0.06218
3190.09518,0.06225
3188.16647,0.06219
3186.23775,0.06202
3184.30904,0.06185
3182.38032,0.06194
3180.45161,0.06233
3178.52289,0.06258
3176.59418,0.06238
3174.66546,0.06206
3172.73674,0.06200
3170.80803,0.06220
3168.87931,0.06238
3166.95060,0.06241
3165.02188,0.06237
3163.09317,0.06233
3161.16445,0.06244
3159.23574,0.06264
3157.30702,0.06265
3155.37831,0.06247
3153.44959,0.06242
3151.52088,0.06256
3149.59216,0.06254
3147.66345,0.06226
3145.73473,0.06192
3143.80601,0.06168
3141.87730,0.06173
3139.94858,0.06205
3138.01987,0.06228
3136.09115,0.06229
3134.16244,0.06226
3132.23372,0.06228
3130.30501,0.06230
3128.37629,0.06222
3126.44758,0.06198
3124.51886,0.06168
3122.59015,0.06156
3120.66143,0.06163
3118.73272,0.06180
3116.80400,0.06200
3114.87528,0.06212
3112.94657,0.06218
3111.01785,0.06233
3109.08914,0.06249
3107.16042,0.06249
3105.23171,0.06238
3103.30299,0.06223
3101.37428,0.06190
3099.44556,0.06156
3097.51685,0.06157
3095.58813,0.06187
3093.65942,0.06214
3091.73070,0.06236
3089.80198,0.06246
3087.87327,0.06216
3085.94455,0.06172
3084.01584,0.06169
3082.08712,0.06195
3080.15841,0.06211
3078.22969,0.06217
3076.30098,0.06219
3074.37226,0.06212
3072.44355,0.06203
3070.51483,0.06196
3068.58612,0.06196
3066.65740,0.06201
3064.72869,0.06194
3062.79997,0.06188
3060.87125,0.06208
3058.94254,0.06234
3057.01382,0.06227
3055.08511,0.06177
3053.15639,0.06130
3051.22768,0.06144
3049.29896,0.06189
3047.37025,0.06207
3045.44153,0.06209
3043.51282,0.06211
3041.58410,0.06212
3039.65539,0.06225
3037.72667,0.06244
3035.79796,0.06249
3033.86924,0.06241
3031.94052,0.06242
3030.01181,0.06255
3028.08309,0.06261
3026.15438,0.06244
3024.22566,0.06221
3022.29695,0.06205
3020.36823,0.06198
3018.43952,0.06196
3016.51080,0.06185
3014.58209,0.06169
3012.65337,0.06159
3010.72466,0.06145
3008.79594,0.06130
3006.86723,0.06139
3004.93851,0.06170
3003.00979,0.06180
3001.08108,0.06168
2999.15236,0.06159
2997.22365,0.06141
2995.29493,0.06116
2993.36622,0.06101
2991.43750,0.06080
2989.50879,0.06045
2987.58007,0.06024
2985.65136,0.06026
2983.72264,0.06046
2981.79393,0.06075
2979.86521,0.06092
2977.93649,0.06085
2976.00778,0.06090
2974.07906,0.06130
2972.15035,0.06188
2970.22163,0.06244
2968.29292,0.06286
2966.36420,0.06320
2964.43549,0.06370
2962.50677,0.06426
2960.57806,0.06464
2958.64934,0.06502
2956.72063,0.06531
2954.79191,0.06517
2952.86320,0.06476
2950.93448,0.06445
2949.00576,0.06426
2947.07705,0.06417
2945.14833,0.06410
2943.21962,0.06393
2941.29090,0.06384
2939.36219,0.06403
2937.43347,0.06431
2935.50476,0.06447
2933.57604,0.06450
2931.64733,0.06466
2929.71861,0.06512
2927.78990,0.06564
2925.86118,0.06595
2923.93247,0.06597
2922.00375,0.06568
2920.07503,0.06526
2918.14632,0.06503
2916.21760,0.06494
2914.28889,0.06489
2912.36017,0.06498
2910.43146,0.06496
2908.50274,0.06467
2906.57403,0.06440
2904.64531,0.06442
2902.71660,0.06452
2900.78788,0.06439
2898.85917,0.06415
2896.93045,0.06396
2895.00173,0.06382
2893.07302,0.06365
2891.14430,0.06340
2889.21559,0.06337
2887.28687,0.06366
2885.35816,0.06385
2883.42944,0.06370
2881.50073,0.06355
2879.57201,0.06356
2877.64330,0.06359
2875.71458,0.06366
2873.78587,0.06389
2871.85715,0.06414
2869.92844,0.06428
2867.99972,0.06444
2866.07100,0.06469
2864.14229,0.06494
2862.21357,0.06503
2860.28486,0.06497
2858.35614,0.06487
2856.42743,0.06471
2854.49871,0.06463
2852.57000,0.06471
2850.64128,0.06474
2848.71257,0.06463
2846.78385,0.06449
2844.85514,0.06431
2842.92642,0.06401
2840.99771,0.06382
2839.06899,0.06390
2837.14027,0.06407
2835.21156,0.06422
2833.28284,0.06421
2831.35413,0.06398
2829.42541,0.06376
2827.49670,0.06359
2825.56798,0.06347
2823.63927,0.06356
2821.71055,0.06377
2819.78184,0.06389
2817.85312,0.06379
2815.92441,0.06352
2813.99569,0.06324
2812.06698,0.06308
2810.13826,0.06308
2808.20954,0.06320
2806.28083,0.06336
2804.35211,0.06340
2802.42340,0.06333
2800.49468,0.06329
2798.56597,0.06333
2796.63725,0.06345
2794.70854,0.06357
2792.77982,0.06360
2790.85111,0.06361
2788.92239,0.06357
2786.99368,0.06347
2785.06496,0.06352
2783.13624,0.06370
2781.20753,0.06380
2779.27881,0.06374
2777.35010,0.06362
2775.42138,0.06349
2773.49267,0.06325
2771.56395,0.06310
2769.63524,0.06326
2767.70652,0.06350
2765.77781,0.06361
2763.84909,0.06361
2761.92038,0.06351
2759.99166,0.06342
2758.06295,0.06341
2756.13423,0.06336
2754.20551,0.06328
2752.27680,0.06340
2750.34808,0.06362
2748.41937,0.06359
2746.49065,0.06333
2744.56194,0.06321
2742.63322,0.06318
2740.70451,0.06311
2738.77579,0.06317
2736.84708,0.06325
2734.91836,0.06326
2732.98965,0.06336
2731.06093,0.06355
2729.13222,0.06367
2727.20350,0.06373
2725.27478,0.06357
2723.34607,0.06328
2721.41735,0.06323
2719.48864,0.06338
2717.55992,0.06346
2715.63121,0.06343
2713.70249,0.06336
2711.77378,0.06333
2709.84506,0.06328
2707.91635,0.06308
2705.98763,0.06299
2704.05892,0.06327
2702.13020,0.06360
2700.20149,0.06350
2698.27277,0.06303
2696.34405,0.06269
2694.41534,0.06277
2692.48662,0.06309
2690.55791,0.06335
2688.62919,0.06337
2686.70048,0.06337
2684.77176,0.06346
2682.84305,0.06338
2680.91433,0.06314
2678.98562,0.06308
2677.05690,0.06319
2675.12819,0.06327
2673.19947,0.06325
2671.27075,0.06317
2669.34204,0.06309
2667.41332,0.06312
2665.48461,0.06318
2663.55589,0.06327
2661.62718,0.06338
2659.69846,0.06338
2657.76975,0.06328
2655.84103,0.06323
2653.91232,0.06325
2651.98360,0.06319
2650.05489,0.06310
2648.12617,0.06308
2646.19746,0.06306
2644.26874,0.06295
2642.34002,0.06285
2640.41131,0.06296
2638.48259,0.06325
2636.55388,0.06334
2634.62516,0.06323
2632.69645,0.06327
2630.76773,0.06340
2628.83902,0.06334
2626.91030,0.06318
2624.98159,0.06312
2623.05287,0.06310
2621.12416,0.06297
2619.19544,0.06290
2617.26673,0.06301
2615.33801,0.06309
2613.40929,0.06296
2611.48058,0.06284
2609.55186,0.06287
2607.62315,0.06295
2605.69443,0.06295
2603.76572,0.06281
2601.83700,0.06263
2599.90829,0.06267
2597.97957,0.06285
2596.05086,0.06286
2594.12214,0.06266
2592.19343,0.06252
2590.26471,0.06256
2588.33599,0.06264
2586.40728,0.06263
2584.47856,0.06262
2582.54985,0.06277
2580.62113,0.06306
2578.69242,0.06319
2576.76370,0.06313
2574.83499,0.06308
2572.90627,0.06312
2570.97756,0.06316
2569.04884,0.06315
2567.12013,0.06307
2565.19141,0.06300
2563.26270,0.06304
2561.33398,0.06316
2559.40526,0.06328
2557.47655,0.06329
2555.54783,0.06310
2553.61912,0.06296
2551.69040,0.06302
2549.76169,0.06312
2547.83297,0.06316
2545.90426,0.06320
2543.97554,0.06323
2542.04683,0.06311
2540.11811,0.06293
2538.18940,0.06288
2536.26068,0.06293
2534.33197,0.06292
2532.40325,0.06287
2530.47453,0.06291
2528.54582,0.06299
2526.61710,0.06302
2524.68839,0.06295
2522.75967,0.06278
2520.83096,0.06269
2518.90224,0.06286
2516.97353,0.06316
2515.04481,0.06325
2513.11610,0.06309
2511.18738,0.06295
2509.25867,0.06295
2507.32995,0.06293
2505.40124,0.06282
2503.47252,0.06275
2501.54380,0.06274
2499.61509,0.06282
2497.68637,0.06304
2495.75766,0.06309
2493.82894,0.06269
2491.90023,0.06222
2489.97151,0.06211
2488.04280,0.06226
2486.11408,0.06247
2484.18537,0.06267
2482.25665,0.06275
2480.32794,0.06275
2478.39922,0.06281
2476.47050,0.06291
2474.54179,0.06291
2472.61307,0.06281
2470.68436,0.06272
2468.75564,0.06260
2466.82693,0.06251
2464.89821,0.06249
2462.96950,0.06244
2461.04078,0.06247
2459.11207,0.06269
2457.18335,0.06280
2455.25464,0.06268
2453.32592,0.06255
2451.39721,0.06260
2449.46849,0.06277
2447.53977,0.06290
2445.61106,0.06294
2443.68234,0.06283
2441.75363,0.06266
2439.82491,0.06273
2437.89620,0.06310
2435.96748,0.06330
2434.03877,0.06309
2432.11005,0.06280
2430.18134,0.06271
2428.25262,0.06276
2426.32391,0.06292
2424.39519,0.06310
2422.46648,0.06315
2420.53776,0.06306
2418.60904,0.06285
2416.68033,0.06263
2414.75161,0.06249
2412.82290,0.06246
2410.89418,0.06256
2408.96547,0.06280
2407.03675,0.06302
2405.10804,0.06301
2403.17932,0.06281
2401.25061,0.06267
2399.32189,0.06274
2397.39318,0.06296
2395.46446,0.06314
2393.53574,0.06312
2391.60703,0.06299
2389.67831,0.06298
2387.74960,0.06320
2385.82088,0.06336
2383.89217,0.06326
2381.96345,0.06319
2380.03474,0.06343
2378.10602,0.06363
2376.17731,0.06367
2374.24859,0.06392
2372.31988,0.06423
2370.39116,0.06385
2368.46245,0.06308
2366.53373,0.06293
2364.60501,0.06335
2362.67630,0.06406
2360.74758,0.06458
2358.81887,0.06355
2356.89015,0.06212
2354.96144,0.06189
2353.03272,0.06203
2351.10401,0.06223
2349.17529,0.06249
2347.24658,0.06250
2345.31786,0.06213
2343.38915,0.06208
2341.46043,0.06286
2339.53172,0.06348
2337.60300,0.06333
2335.67428,0.06291
2333.74557,0.06286
2331.81685,0.06322
2329.88814,0.06377
2327.95942,0.06430
2326.03071,0.06450
2324.10199,0.06410
2322.17328,0.06329
2320.24456,0.06264
2318.31585,0.06251
2316.38713,0.06279
2314.45842,0.06309
2312.52970,0.06317
2310.60099,0.06318
2308.67227,0.06305
2306.74355,0.06277
2304.81484,0.06262
2302.88612,0.06253
2300.95741,0.06227
2299.02869,0.06204
2297.09998,0.06210
2295.17126,0.06226
2293.24255,0.06223
2291.31383,0.06222
2289.38512,0.06250
2287.45640,0.06281
2285.52769,0.06286
2283.59897,0.06281
2281.67025,0.06275
2279.74154,0.06258
2277.81282,0.06237
2275.88411,0.06237
2273.95539,0.06257
2272.02668,0.06273
2270.09796,0.06270
2268.16925,0.06256
2266.24053,0.06241
2264.31182,0.06220
2262.38310,0.06201
2260.45439,0.06198
2258.52567,0.06201
2256.59696,0.06195
2254.66824,0.06199
2252.73952,0.06224
2250.81081,0.06247
2248.88209,0.06247
2246.95338,0.06229
2245.02466,0.06215
2243.09595,0.06213
2241.16723,0.06217
2239.23852,0.06220
2237.30980,0.06224
2235.38109,0.06236
2233.45237,0.06248
2231.52366,0.06258
2229.59494,0.06264
2227.66623,0.06252
2225.73751,0.06242
2223.80879,0.06251
2221.88008,0.06257
2219.95136,0.06246
2218.02265,0.06232
2216.09393,0.06220
2214.16522,0.06228
2212.23650,0.06258
2210.30779,0.06275
2208.37907,0.06264
2206.45036,0.06244
2204.52164,0.06233
2202.59293,0.06230
2200.66421,0.06217
2198.73549,0.06201
2196.80678,0.06204
2194.87806,0.06216
2192.94935,0.06223
2191.02063,0.06233
2189.09192,0.06236
2187.16320,0.06223
2185.23449,0.06217
2183.30577,0.06231
2181.37706,0.06260
2179.44834,0.06276
2177.51963,0.06263
2175.59091,0.06244
2173.66220,0.06240
2171.73348,0.06236
2169.80476,0.06222
2167.87605,0.06206
2165.94733,0.06196
2164.01862,0.06195
2162.08990,0.06199
2160.16119,0.06212
2158.23247,0.06222
2156.30376,0.06210
2154.37504,0.06196
2152.44633,0.06200
2150.51761,0.06204
2148.58890,0.06200
2146.66018,0.06191
2144.73147,0.06178
2142.80275,0.06170
2140.87403,0.06173
2138.94532,0.06172
2137.01660,0.06176
2135.08789,0.06200
2133.15917,0.06215
2131.23046,0.06200
2129.30174,0.06175
2127.37303,0.06173
2125.44431,0.06186
2123.51560,0.06186
2121.58688,0.06174
2119.65817,0.06169
2117.72945,0.06160
2115.80074,0.06142
2113.87202,0.06135
2111.94330,0.06142
2110.01459,0.06142
2108.08587,0.06133
2106.15716,0.06118
2104.22844,0.06113
2102.29973,0.06128
2100.37101,0.06141
2098.44230,0.06141
2096.51358,0.06144
2094.58487,0.06148
2092.65615,0.06149
2090.72744,0.06150
2088.79872,0.06137
2086.87000,0.06120
2084.94129,0.06123
2083.01257,0.06132
2081.08386,0.06131
2079.15514,0.06131
2077.22643,0.06138
2075.29771,0.06141
2073.36900,0.06131
2071.44028,0.06124
2069.51157,0.06139
2067.58285,0.06154
2065.65414,0.06146
2063.72542,0.06136
2061.79671,0.06133
2059.86799,0.06131
2057.93927,0.06131
2056.01056,0.06125
2054.08184,0.06113
2052.15313,0.06112
2050.22441,0.06123
2048.29570,0.06134
2046.36698,0.06138
2044.43827,0.06134
2042.50955,0.06121
2040.58084,0.06107
2038.65212,0.06095
2036.72341,0.06087
2034.79469,0.06093
2032.86598,0.06103
2030.93726,0.06094
2029.00854,0.06075
2027.07983,0.06075
2025.15111,0.06096
2023.22240,0.06117
2021.29368,0.06124
2019.36497,0.06117
2017.43625,0.06103
2015.50754,0.06093
2013.57882,0.06084
2011.65011,0.06076
2009.72139,0.06075
2007.79268,0.06077
2005.86396,0.06079
2003.93524,0.06086
2002.00653,0.06091
2000.07781,0.06089
1998.14910,0.06083
1996.22038,0.06077
1994.29167,0.06069
1992.36295,0.06059
1990.43424,0.06057
1988.50552,0.06063
1986.57681,0.06074
1984.64809,0.06087
1982.71938,0.06090
1980.79066,0.06081
1978.86195,0.06070
1976.93323,0.06060
1975.00451,0.06048
1973.07580,0.06040
1971.14708,0.06042
1969.21837,0.06048
1967.28965,0.06043
1965.36094,0.06031
1963.43222,0.06033
1961.50351,0.06048
1959.57479,0.06056
1957.64608,0.06044
1955.71736,0.06023
1953.78865,0.06007
1951.85993,0.05994
1949.93122,0.05991
1948.00250,0.06005
1946.07378,0.06027
1944.14507,0.06027
1942.21635,0.05993
1940.28764,0.05973
1938.35892,0.05980
1936.43021,0.05979
1934.50149,0.05977
1932.57278,0.05986
1930.64406,0.05986
1928.71535,0.05973
1926.78663,0.05957
1924.85792,0.05945
1922.92920,0.05937
1921.00049,0.05933
1919.07177,0.05922
1917.14305,0.05905
1915.21434,0.05902
1913.28562,0.05904
1911.35691,0.05893
1909.42819,0.05884
1907.49948,0.05895
1905.57076,0.05909
1903.64205,0.05909
1901.71333,0.05896
1899.78462,0.05881
1897.85590,0.05876
1895.92719,0.05893
1893.99847,0.05921
1892.06975,0.05939
1890.14104,0.05928
1888.21232,0.05891
1886.28361,0.05862
1884.35489,0.05845
1882.42618,0.05829
1880.49746,0.05818
1878.56875,0.05810
1876.64003,0.05797
1874.71132,0.05788
1872.78260,0.05796
1870.85389,0.05810
1868.92517,0.05798
1866.99646,0.05777
1865.06774,0.05772
1863.13902,0.05757
1861.21031,0.05733
1859.28159,0.05723
1857.35288,0.05726
1855.42416,0.05726
1853.49545,0.05717
1851.56673,0.05705
1849.63802,0.05691
1847.70930,0.05677
1845.78059,0.05655
1843.85187,0.05611
1841.92316,0.05576
1839.99444,0.05566
1838.06573,0.05561
1836.13701,0.05550
1834.20829,0.05528
1832.27958,0.05490
1830.35086,0.05439
1828.42215,0.05403
1826.49343,0.05379
1824.56472,0.05349
1822.63600,0.05331
1820.70729,0.05316
1818.77857,0.05281
1816.84986,0.05227
1814.92114,0.05173
1812.99243,0.05123
1811.06371,0.05056
1809.13499,0.04968
1807.20628,0.04886
1805.27756,0.04806
1803.34885,0.04705
1801.42013,0.04572
1799.49142,0.04443
1797.56270,0.04357
1795.63399,0.04296
1793.70527,0.04237
1791.77656,0.04200
1789.84784,0.04252
1787.91913,0.04393
1785.99041,0.04628
1784.06170,0.04965
1782.13298,0.05375
1780.20426,0.05882
1778.27555,0.06433
1776.34683,0.06932
1774.41812,0.07402
1772.48940,0.07948
1770.56069,0.08460
1768.63197,0.08731
1766.70326,0.08834
1764.77454,0.08828
1762.84583,0.08702
1760.91711,0.08460
1758.98840,0.08230
1757.05968,0.08026
1755.13097,0.07859
1753.20225,0.07747
1751.27353,0.07599
1749.34482,0.07389
1747.41610,0.07248
1745.48739,0.07176
1743.55867,0.07125
1741.62996,0.07084
1739.70124,0.07031
1737.77253,0.06975
1735.84381,0.06925
1733.91510,0.06847
1731.98638,0.06786
1730.05767,0.06752
1728.12895,0.06713
1726.20024,0.06696
1724.27152,0.06685
1722.34280,0.06654
1720.41409,0.06629
1718.48537,0.06621
1716.55666,0.06589
1714.62794,0.06536
1712.69923,0.06500
1710.77051,0.06486
1708.84180,0.06490
1706.91308,0.06480
1704.98437,0.06439
1703.05565,0.06402
1701.12694,0.06347
1699.19822,0.06253
1697.26950,0.06226
1695.34079,0.06270
1693.41207,0.06313
1691.48336,0.06330
1689.55464,0.06325
1687.62593,0.06313
1685.69721,0.06266
1683.76850,0.06144
1681.83978,0.06109
1679.91107,0.06137
1677.98235,0.06148
1676.05364,0.06149
1674.12492,0.06164
1672.19621,0.06171
1670.26749,0.06130
1668.33877,0.06095
1666.41006,0.06113
1664.48134,0.06132
1662.55263,0.06126
1660.62391,0.06108
1658.69520,0.06115
1656.76648,0.06153
1654.83777,0.06208
1652.90905,0.06196
1650.98034,0.06141
1649.05162,0.06122
1647.12291,0.06058
1645.19419,0.06010
1643.26548,0.06039
1641.33676,0.06073
1639.40804,0.06084
1637.47933,0.06063
1635.55061,0.06022
1633.62190,0.06019
1631.69318,0.06034
1629.76447,0.06035
1627.83575,0.06018
1625.90704,0.06003
1623.97832,0.05982
1622.04961,0.05956
1620.12089,0.05951
1618.19218,0.05943
1616.26346,0.05908
1614.33474,0.05877
1612.40603,0.05862
1610.47731,0.05857
1608.54860,0.05851
1606.61988,0.05842
1604.69117,0.05855
1602.76245,0.05885
1600.83374,0.05901
1598.90502,0.05901
1596.97631,0.05909
1595.04759,0.05933
1593.11888,0.05962
1591.19016,0.05992
1589.26145,0.06026
1587.33273,0.06047
1585.40401,0.06042
1583.47530,0.06008
1581.54658,0.05953
1579.61787,0.05907
1577.68915,0.05874
1575.76044,0.05836
1573.83172,0.05818
1571.90301,0.05827
1569.97429,0.05830
1568.04558,0.05802
1566.11686,0.05759
1564.18815,0.05728
1562.25943,0.05716
1560.33072,0.05666
1558.40200,0.05531
1556.47328,0.05529
1554.54457,0.05538
1552.61585,0.05500
1550.68714,0.05463
1548.75842,0.05460
1546.82971,0.05471
1544.90099,0.05458
1542.97228,0.05394
1541.04356,0.05282
1539.11485,0.05236
1537.18613,0.05263
1535.25742,0.05266
1533.32870,0.05216
1531.39999,0.05170
1529.47127,0.05161
1527.54255,0.05141
1525.61384,0.05083
1523.68512,0.04982
1521.75641,0.04774
1519.82769,0.04590
1517.89898,0.04500
1515.97026,0.04341
1514.04155,0.04223
1512.11283,0.04270
1510.18412,0.04451
1508.25540,0.04956
1506.32669,0.06257
1504.39797,0.06949
1502.46925,0.07179
1500.54054,0.07331
1498.61182,0.07390
1496.68311,0.07284
1494.75439,0.07131
1492.82568,0.07035
1490.89696,0.06926
1488.96825,0.06747
1487.03953,0.06612
1485.11082,0.06551
1483.18210,0.06501
1481.25339,0.06442
1479.32467,0.06391
1477.39596,0.06349
1475.46724,0.06289
1473.53852,0.06191
1471.60981,0.06096
1469.68109,0.06067
1467.75238,0.06076
1465.82366,0.06091
1463.89495,0.06092
1461.96623,0.06098
1460.03752,0.06112
1458.10880,0.06077
1456.18009,0.05986
1454.25137,0.05990
1452.32266,0.06024
1450.39394,0.06034
1448.46523,0.06000
1446.53651,0.05945
1444.60779,0.05921
1442.67908,0.05919
1440.75036,0.05907
1438.82165,0.05873
1436.89293,0.05808
1434.96422,0.05756
1433.03550,0.05733
1431.10679,0.05696
1429.17807,0.05655
1427.24936,0.05643
1425.32064,0.05632
1423.39193,0.05591
1421.46321,0.05536
1419.53449,0.05465
1417.60578,0.05377
1415.67706,0.05336
1413.74835,0.05345
1411.81963,0.05402
1409.89092,0.05497
1407.96220,0.05591
1406.03349,0.05647
1404.10477,0.05650
1402.17606,0.05637
1400.24734,0.05631
1398.31863,0.05609
1396.38991,0.05559
1394.46120,0.05484
1392.53248,0.05416
1390.60376,0.05379
1388.67505,0.05360
1386.74633,0.05379
1384.81762,0.05427
1382.88890,0.05441
1380.96019,0.05405
1379.03147,0.05351
1377.10276,0.05307
1375.17404,0.05256
1373.24533,0.05183
1371.31661,0.05110
1369.38790,0.05067
1367.45918,0.05084
1365.53047,0.05171
1363.60175,0.05292
1361.67303,0.05355
1359.74432,0.05330
1357.81560,0.05282
1355.88689,0.05230
1353.95817,0.05177
1352.02946,0.05128
1350.10074,0.05070
1348.17203,0.05000
1346.24331,0.04933
1344.31460,0.04888
1342.38588,0.04863
1340.45717,0.04818
1338.52845,0.04736
1336.59974,0.04669
1334.67102,0.04627
1332.74230,0.04592
1330.81359,0.04556
1328.88487,0.04507
1326.95616,0.04449
1325.02744,0.04390
1323.09873,0.04326
1321.17001,0.04250
1319.24130,0.04166
1317.31258,0.04091
1315.38387,0.04022
1313.45515,0.03962
1311.52644,0.03936
1309.59772,0.03926
1307.66900,0.03891
1305.74029,0.03818
1303.81157,0.03726
1301.88286,0.03637
1299.95414,0.03568
1298.02543,0.03521
1296.09671,0.03494
1294.16800,0.03497
1292.23928,0.03515
1290.31057,0.03513
1288.38185,0.03476
1286.45314,0.03406
1284.52442,0.03321
1282.59571,0.03229
1280.66699,0.03109
1278.73827,0.02952
1276.80956,0.02785
1274.88084,0.02616
1272.95213,0.02425
1271.02341,0.02225
1269.09470,0.02062
1267.16598,0.01971
1265.23727,0.02001
1263.30855,0.02228
1261.37984,0.02737
1259.45112,0.03550
1257.52241,0.04575
1255.59369,0.05693
1253.66498,0.06787
1251.73626,0.07756
1249.80754,0.08563
1247.87883,0.09225
1245.95011,0.09766
1244.02140,0.10200
1242.09268,0.10569
1240.16397,0.10950
1238.23525,0.11377
1236.30654,0.11826
1234.37782,0.12267
1232.44911,0.12683
1230.52039,0.13044
1228.59168,0.13331
1226.66296,0.13553
1224.73424,0.13695
1222.80553,0.13686
1220.87681,0.13454
1218.94810,0.12985
1217.01938,0.12314
1215.09067,0.11484
1213.16195,0.10519
1211.23324,0.09461
1209.30452,0.08434
1207.37581,0.07640
1205.44709,0.07339
1203.51838,0.07753
1201.58966,0.08928
1199.66095,0.10658
1197.73223,0.12566
1195.80351,0.14275
1193.87480,0.15548
1191.94608,0.16285
1190.01737,0.16448
1188.08865,0.16039
1186.15994,0.15151
1184.23122,0.14009
1182.30251,0.12869
1180.37379,0.11894
1178.44508,0.11101
1176.51636,0.10373
1174.58765,0.09594
1172.65893,0.08877
1170.73022,0.08625
1168.80150,0.09303
1166.87278,0.10990
1164.94407,0.13109
1163.01535,0.14773
1161.08664,0.15468
1159.15792,0.15289
1157.22921,0.14639
1155.30049,0.13882
1153.37178,0.13194
1151.44306,0.12608
1149.51435,0.12133
1147.58563,0.11774
1145.65692,0.11483
1143.72820,0.11202
1141.79949,0.10935
1139.87077,0.10712
1137.94205,0.10519
1136.01334,0.10316
1134.08462,0.10121
1132.15591,0.09974
1130.22719,0.09851
1128.29848,0.09704
1126.36976,0.09541
1124.44105,0.09395
1122.51233,0.09281
1120.58362,0.09176
1118.65490,0.09059
1116.72619,0.08953
1114.79747,0.08885
1112.86875,0.08853
1110.94004,0.08839
1109.01132,0.08819
1107.08261,0.08790
1105.15389,0.08787
1103.22518,0.08814
1101.29646,0.08811
1099.36775,0.08764
1097.43903,0.08703
1095.51032,0.08612
1093.58160,0.08469
1091.65289,0.08275
1089.72417,0.08045
1087.79546,0.07840
1085.86674,0.07772
1083.93802,0.07984
1082.00931,0.08526
1080.08059,0.09177
1078.15188,0.09551
1076.22316,0.09511
1074.29445,0.09267
1072.36573,0.09033
1070.43702,0.08860
1068.50830,0.08747
1066.57959,0.08655
1064.65087,0.08533
1062.72216,0.08423
1060.79344,0.08371
1058.86473,0.08319
1056.93601,0.08229
1055.00729,0.08150
1053.07858,0.08103
1051.14986,0.08050
1049.22115,0.07992
1047.29243,0.07951
1045.36372,0.07911
1043.43500,0.07851
1041.50629,0.07779
1039.57757,0.07730
1037.64886,0.07677
1035.72014,0.07562
1033.79143,0.07408
1031.86271,0.07266
1029.93399,0.07125
1028.00528,0.06958
1026.07656,0.06754
1024.14785,0.06516
1022.21913,0.06288
1020.29042,0.06244
1018.36170,0.06710
1016.43299,0.07837
1014.50427,0.09078
1012.57556,0.09660
1010.64684,0.09582
1008.71813,0.09377
1006.78941,0.09305
1004.86070,0.09296
1002.93198,0.09249
1001.00326,0.09137
999.07455,0.08978
997.14583,0.08813
995.21712,0.08706
993.28840,0.08659
991.35969,0.08611
989.43097,0.08542
987.50226,0.08489
985.57354,0.08455
983.64483,0.08403
981.71611,0.08340
979.78740,0.08291
977.85868,0.08243
975.92997,0.08192
974.00125,0.08149
972.07253,0.08100
970.14382,0.08035
968.21510,0.07982
966.28639,0.07958
964.35767,0.07951
962.42896,0.07945
960.50024,0.07930
958.57153,0.07899
956.64281,0.07854
954.71410,0.07796
952.78538,0.07751
950.85667,0.07735
948.92795,0.07739
946.99924,0.07746
945.07052,0.07733
943.14180,0.07704
941.21309,0.07689
939.28437,0.07694
937.35566,0.07699
935.42694,0.07691
933.49823,0.07672
931.56951,0.07652
929.64080,0.07628
927.71208,0.07598
925.78337,0.07566
923.85465,0.07528
921.92594,0.07485
919.99722,0.07467
918.06850,0.07477
916.13979,0.07478
914.21107,0.07462
912.28236,0.07439
910.35364,0.07403
908.42493,0.07356
906.49621,0.07318
904.56750,0.07282
902.63878,0.07227
900.71007,0.07156
898.78135,0.07060
896.85264,0.06940
894.92392,0.06858
892.99521,0.06873
891.06649,0.06993
889.13777,0.07173
887.20906,0.07343
885.28034,0.07459
883.35163,0.07541
881.42291,0.07589
879.49420,0.07575
877.56548,0.07522
875.63677,0.07468
873.70805,0.07411
871.77934,0.07355
869.85062,0.07312
867.92191,0.07239
865.99319,0.07109
864.06448,0.06979
862.13576,0.06893
860.20704,0.06834
858.27833,0.06775
856.34961,0.06696
854.42090,0.06609
852.49218,0.06554
850.56347,0.06530
848.63475,0.06512
846.70604,0.06527
844.77732,0.06587
842.84861,0.06638
840.91989,0.06664
838.99118,0.06720
837.06246,0.06854
835.13375,0.07080
833.20503,0.07399
831.27631,0.07772
829.34760,0.08099
827.41888,0.08315
825.49017,0.08429
823.56145,0.08450
821.63274,0.08386
819.70402,0.08322
817.77531,0.08347
815.84659,0.08437
813.91788,0.08505
811.98916,0.08503
810.06045,0.08477
808.13173,0.08477
806.20301,0.08446
804.27430,0.08338
802.34558,0.08205
800.41687,0.08100
798.48815,0.08005
796.55944,0.07896
794.63072,0.07795
792.70201,0.07730
790.77329,0.07688
788.84458,0.07648
786.91586,0.07592
784.98715,0.07529
783.05843,0.07484
781.12972,0.07449
779.20100,0.07408
777.27228,0.07373
775.34357,0.07368
773.41485,0.07437
771.48614,0.07596
769.55742,0.07788
767.62871,0.07917
765.69999,0.07944
763.77128,0.07927
761.84256,0.07945
759.91385,0.07993
757.98513,0.08017
756.05642,0.08052
754.12770,0.08118
752.19899,0.08145
750.27027,0.08121
748.34155,0.08075
746.41284,0.07991
744.48412,0.07879
742.55541,0.07802
740.62669,0.07784
738.69798,0.07774
736.76926,0.07756
734.84055,0.07750
732.91183,0.07738
730.98312,0.07730
729.05440,0.07764
727.12569,0.07792
725.19697,0.07771
723.26825,0.07737
721.33954,0.07711
719.41082,0.07680
717.48211,0.07634
715.55339,0.07586
713.62468,0.07580
711.69596,0.07627
709.76725,0.07674
707.83853,0.07694
705.90982,0.07687
703.98110,0.07672
702.05239,0.07697
700.12367,0.07741
698.19496,0.07743
696.26624,0.07696
694.33752,0.07630
692.40881,0.07603
690.48009,0.07629
688.55138,0.07672
686.62266,0.07704
684.69395,0.07700
682.76523,0.07660
680.83652,0.07621
678.90780,0.07607
676.97909,0.07609
675.05037,0.07601
673.12166,0.07569
671.19294,0.07533
669.26423,0.07478
667.33551,0.07361
665.40679,0.07310
663.47808,0.07350
661.54936,0.07433
659.62065,0.07515
657.69193,0.07527
655.76322,0.07447
653.83450,0.07350
651.90579,0.07315
649.97707,0.07365
648.04836,0.07405
646.11964,0.07363
644.19093,0.07310
642.26221,0.07289
640.33350,0.07321
638.40478,0.07381
636.47606,0.07347
634.54735,0.07257
632.61863,0.07224
630.68992,0.07184
628.76120,0.07144
626.83249,0.07222
624.90377,0.07358
622.97506,0.07357
621.04634,0.07240
619.11763,0.07163
617.18891,0.07126
615.26020,0.07070
613.33148,0.06988
611.40276,0.06925
609.47405,0.06946
607.54533,0.06977
605.61662,0.06962
603.68790,0.06922
601.75919,0.06867
599.83047,0.06822
