7496.91655,0.12930
7494.98784,0.13074
7493.05912,0.12727
7491.13041,0.12637
7489.20169,0.12961
7487.27297,0.12920
7485.34426,0.12408
7483.41554,0.12286
7481.48683,0.12569
7479.55811,0.12672
7477.62940,0.12566
7475.70068,0.12592
7473.77197,0.12869
7471.84325,0.12990
7469.91454,0.12729
7467.98582,0.12397
7466.05711,0.11909
7464.12839,0.11341
7462.19968,0.11350
7460.27096,0.11815
7458.34224,0.11975
7456.41353,0.11909
7454.48481,0.12032
7452.55610,0.12217
7450.62738,0.12361
7448.69867,0.12811
7446.76995,0.13139
7444.84124,0.12566
7442.91252,0.11772
7440.98381,0.11889
7439.05509,0.12818
7437.12638,0.13522
7435.19766,0.13175
7433.26895,0.12122
7431.34023,0.11439
7429.41151,0.11639
7427.48280,0.11961
7425.55408,0.11844
7423.62537,0.11801
7421.69665,0.12090
7419.76794,0.12245
7417.83922,0.11932
7415.91051,0.11596
7413.98179,0.11916
7412.05308,0.12407
7410.12436,0.12274
7408.19565,0.11790
7406.26693,0.11364
7404.33821,0.10903
7402.40950,0.10520
7400.48078,0.10583
7398.55207,0.11195
7396.62335,0.11811
7394.69464,0.11996
7392.76592,0.11851
7390.83721,0.11477
7388.90849,0.11066
7386.97978,0.10801
7385.05106,0.10520
7383.12235,0.10351
7381.19363,0.10543
7379.26492,0.11001
7377.33620,0.11851
7375.40748,0.12652
7373.47877,0.12271
7371.55005,0.11278
7369.62134,0.10850
7367.69262,0.10907
7365.76391,0.10846
7363.83519,0.10589
7361.90648,0.10417
7359.97776,0.10505
7358.04905,0.10778
7356.12033,0.11103
7354.19162,0.11181
7352.26290,0.10991
7350.33419,0.10720
7348.40547,0.10382
7346.47675,0.10069
7344.54804,0.09834
7342.61932,0.09584
7340.69061,0.09502
7338.76189,0.10046
7336.83318,0.10988
7334.90446,0.11409
7332.97575,0.10862
7331.04703,0.09867
7329.11832,0.09419
7327.18960,0.09826
7325.26089,0.10289
7323.33217,0.10359
7321.40346,0.10415
7319.47474,0.10628
7317.54602,0.10870
7315.61731,0.10993
7313.68859,0.11070
7311.75988,0.11162
7309.83116,0.11110
7307.90245,0.11136
7305.97373,0.11264
7304.04502,0.10901
7302.11630,0.10137
7300.18759,0.09769
7298.25887,0.10162
7296.33016,0.10546
7294.40144,0.10212
7292.47272,0.09372
7290.54401,0.08699
7288.61529,0.08810
7286.68658,0.09715
7284.75786,0.10497
7282.82915,0.10643
7280.90043,0.10530
7278.97172,0.10575
7277.04300,0.10605
7275.11429,0.10550
7273.18557,0.10616
7271.25686,0.10576
7269.32814,0.10397
7267.39943,0.10246
7265.47071,0.10004
7263.54199,0.09959
7261.61328,0.10255
7259.68456,0.10310
7257.75585,0.10029
7255.82713,0.09952
7253.89842,0.10206
7251.96970,0.10333
7250.04099,0.10038
7248.11227,0.09536
7246.18356,0.08872
7244.25484,0.08258
7242.32613,0.08383
7240.39741,0.09081
7238.46870,0.09360
7236.53998,0.09058
7234.61126,0.08569
7232.68255,0.08452
7230.75383,0.08757
7228.82512,0.09033
7226.89640,0.09403
7224.96769,0.10062
7223.03897,0.10465
7221.11026,0.10376
7219.18154,0.10185
7217.25283,0.10096
7215.32411,0.10136
7213.39540,0.10308
7211.46668,0.10370
7209.53796,0.10142
7207.60925,0.09781
7205.68053,0.09671
7203.75182,0.09885
7201.82310,0.10097
7199.89439,0.10125
7197.96567,0.10023
7196.03696,0.09987
7194.10824,0.10054
7192.17953,0.09832
7190.25081,0.09504
7188.32210,0.09731
7186.39338,0.10209
7184.46467,0.10159
7182.53595,0.09792
7180.60723,0.09777
7178.67852,0.09879
7176.74980,0.09754
7174.82109,0.09745
7172.89237,0.09717
7170.96366,0.09316
7169.03494,0.09066
7167.10623,0.09234
7165.17751,0.09265
7163.24880,0.09419
7161.32008,0.10133
7159.39137,0.10744
7157.46265,0.10691
7155.53394,0.10310
7153.60522,0.09820
7151.67650,0.09387
7149.74779,0.09330
7147.81907,0.09489
7145.89036,0.09496
7143.96164,0.09622
7142.03293,0.10054
7140.10421,0.10112
7138.17550,0.09659
7136.24678,0.09617
7134.31807,0.09909
7132.38935,0.10055
7130.46064,0.10155
7128.53192,0.10215
7126.60321,0.10160
7124.67449,0.10196
7122.74577,0.10249
7120.81706,0.10126
7118.88834,0.09864
7116.95963,0.09655
7115.03091,0.09700
7113.10220,0.10000
7111.17348,0.10193
7109.24477,0.10032
7107.31605,0.09784
7105.38734,0.09705
7103.45862,0.09561
7101.52991,0.09360
7099.60119,0.09491
7097.67247,0.09880
7095.74376,0.10162
7093.81504,0.10299
7091.88633,0.10359
7089.95761,0.10524
7088.02890,0.10820
7086.10018,0.10831
7084.17147,0.10478
7082.24275,0.10357
7080.31404,0.10653
7078.38532,0.10871
7076.45661,0.10810
7074.52789,0.10655
7072.59918,0.10512
7070.67046,0.10354
7068.74174,0.10200
7066.81303,0.10214
7064.88431,0.10506
7062.95560,0.11026
7061.02688,0.11445
7059.09817,0.11572
7057.16945,0.11603
7055.24074,0.11518
7053.31202,0.11224
7051.38331,0.10874
7049.45459,0.10768
7047.52588,0.11029
7045.59716,0.11164
7043.66845,0.11025
7041.73973,0.11120
7039.81101,0.11291
7037.88230,0.11056
7035.95358,0.10675
7034.02487,0.10559
7032.09615,0.10695
7030.16744,0.10965
7028.23872,0.11101
7026.31001,0.10923
7024.38129,0.10753
7022.45258,0.10861
7020.52386,0.11092
7018.59515,0.11168
7016.66643,0.11110
7014.73771,0.11028
7012.80900,0.10774
7010.88028,0.10467
7008.95157,0.10576
7007.02285,0.11103
7005.09414,0.11459
7003.16542,0.11199
7001.23671,0.10748
6999.30799,0.10835
6997.37928,0.11248
6995.45056,0.11251
6993.52185,0.10914
6991.59313,0.10713
6989.66442,0.10784
6987.73570,0.11106
6985.80698,0.11426
6983.87827,0.11238
6981.94955,0.10674
6980.02084,0.10533
6978.09212,0.10965
6976.16341,0.11287
6974.23469,0.11262
6972.30598,0.11196
6970.37726,0.11317
6968.44855,0.11475
6966.51983,0.11509
6964.59112,0.11538
6962.66240,0.11522
6960.73369,0.11434
6958.80497,0.11346
6956.87625,0.11050
6954.94754,0.10712
6953.01882,0.10697
6951.09011,0.10881
6949.16139,0.11012
6947.23268,0.10831
6945.30396,0.10627
6943.37525,0.11021
6941.44653,0.11597
6939.51782,0.11723
6937.58910,0.11580
6935.66039,0.11292
6933.73167,0.10863
6931.80296,0.10752
6929.87424,0.11186
6927.94552,0.11606
6926.01681,0.11603
6924.08809,0.11460
6922.15938,0.11503
6920.23066,0.11604
6918.30195,0.11394
6916.37323,0.11135
6914.44452,0.11473
6912.51580,0.12018
6910.58709,0.11798
6908.65837,0.11153
6906.72966,0.11052
6904.80094,0.11125
6902.87222,0.10736
6900.94351,0.10463
6899.01479,0.10729
6897.08608,0.11042
6895.15736,0.11214
6893.22865,0.11414
6891.29993,0.11611
6889.37122,0.11763
6887.44250,0.11788
6885.51379,0.11702
6883.58507,0.11575
6881.65636,0.11406
6879.72764,0.11452
6877.79893,0.11745
6875.87021,0.11860
6873.94149,0.11732
6872.01278,0.11682
6870.08406,0.11805
6868.15535,0.11870
6866.22663,0.11679
6864.29792,0.11370
6862.36920,0.11376
6860.44049,0.11825
6858.51177,0.12261
6856.58306,0.12228
6854.65434,0.11857
6852.72563,0.11524
6850.79691,0.11252
6848.86820,0.10984
6846.93948,0.10831
6845.01076,0.10764
6843.08205,0.10748
6841.15333,0.10876
6839.22462,0.11031
6837.29590,0.10997
6835.36719,0.10868
6833.43847,0.10876
6831.50976,0.10989
6829.58104,0.10919
6827.65233,0.10761
6825.72361,0.10942
6823.79490,0.11375
6821.86618,0.11620
6819.93746,0.11581
6818.00875,0.11483
6816.08003,0.11450
6814.15132,0.11294
6812.22260,0.11044
6810.29389,0.11059
6808.36517,0.11507
6806.43646,0.12112
6804.50774,0.12395
6802.57903,0.12214
6800.65031,0.11858
6798.72160,0.11548
6796.79288,0.11378
6794.86417,0.11462
6792.93545,0.11693
6791.00673,0.11882
6789.07802,0.11973
6787.14930,0.11900
6785.22059,0.11842
6783.29187,0.12079
6781.36316,0.12340
6779.43444,0.12086
6777.50573,0.11406
6775.57701,0.11052
6773.64830,0.11333
6771.71958,0.11651
6769.79087,0.11649
6767.86215,0.11579
6765.93344,0.11583
6764.00472,0.11704
6762.07600,0.11859
6760.14729,0.11804
6758.21857,0.11742
6756.28986,0.11900
6754.36114,0.11924
6752.43243,0.11694
6750.50371,0.11630
6748.57500,0.11781
6746.64628,0.11841
6744.71757,0.11836
6742.78885,0.11887
6740.86014,0.11904
6738.93142,0.11996
6737.00271,0.12338
6735.07399,0.12545
6733.14527,0.12415
6731.21656,0.12268
6729.28784,0.12049
6727.35913,0.11781
6725.43041,0.11867
6723.50170,0.12155
6721.57298,0.12208
6719.64427,0.12191
6717.71555,0.12301
6715.78684,0.12296
6713.85812,0.12269
6711.92941,0.12330
6710.00069,0.12128
6708.07197,0.11792
6706.14326,0.11724
6704.21454,0.11862
6702.28583,0.12142
6700.35711,0.12435
6698.42840,0.12353
6696.49968,0.11985
6694.57097,0.11737
6692.64225,0.11737
6690.71354,0.11927
6688.78482,0.12184
6686.85611,0.12383
6684.92739,0.12296
6682.99868,0.11970
6681.06996,0.11867
6679.14124,0.12029
6677.21253,0.12385
6675.28381,0.12833
6673.35510,0.12891
6671.42638,0.12637
6669.49767,0.12644
6667.56895,0.12868
6665.64024,0.12907
6663.71152,0.12742
6661.78281,0.12590
6659.85409,0.12522
6657.92538,0.12503
6655.99666,0.12505
6654.06795,0.12598
6652.13923,0.12758
6650.21051,0.12711
6648.28180,0.12436
6646.35308,0.12283
6644.42437,0.12370
6642.49565,0.12503
6640.56694,0.12564
6638.63822,0.12606
6636.70951,0.12692
6634.78079,0.12690
6632.85208,0.12535
6630.92336,0.12461
6628.99465,0.12464
6627.06593,0.12391
6625.13722,0.12313
6623.20850,0.12187
6621.27978,0.11933
6619.35107,0.11843
6617.42235,0.12149
6615.49364,0.12590
6613.56492,0.12835
6611.63621,0.12952
6609.70749,0.13179
6607.77878,0.13395
6605.85006,0.13317
6603.92135,0.13089
6601.99263,0.12980
6600.06392,0.12983
6598.13520,0.13001
6596.20648,0.12968
6594.27777,0.12906
6592.34905,0.12864
6590.42034,0.12786
6588.49162,0.12722
6586.56291,0.12780
6584.63419,0.12898
6582.70548,0.12956
6580.77676,0.12901
6578.84805,0.12674
6576.91933,0.12475
6574.99062,0.12676
6573.06190,0.13139
6571.13319,0.13241
6569.20447,0.12842
6567.27575,0.12463
6565.34704,0.12459
6563.41832,0.12555
6561.48961,0.12452
6559.56089,0.12432
6557.63218,0.12738
6555.70346,0.13087
6553.77475,0.13254
6551.84603,0.13301
6549.91732,0.13339
6547.98860,0.13400
6546.05989,0.13436
6544.13117,0.13366
6542.20246,0.13178
6540.27374,0.13002
6538.34502,0.12969
6536.41631,0.13041
6534.48759,0.13078
6532.55888,0.13077
6530.63016,0.13032
6528.70145,0.12884
6526.77273,0.12769
6524.84402,0.12765
6522.91530,0.12847
6520.98659,0.13116
6519.05787,0.13492
6517.12916,0.13719
6515.20044,0.13773
6513.27172,0.13732
6511.34301,0.13581
6509.41429,0.13387
6507.48558,0.13253
6505.55686,0.13137
6503.62815,0.13033
6501.69943,0.13032
6499.77072,0.13065
6497.84200,0.13051
6495.91329,0.13155
6493.98457,0.13277
6492.05586,0.13168
6490.12714,0.12980
6488.19843,0.12856
6486.26971,0.12781
6484.34099,0.12768
6482.41228,0.12706
6480.48356,0.12688
6478.55485,0.12902
6476.62613,0.13133
6474.69742,0.13108
6472.76870,0.12949
6470.83999,0.12921
6468.91127,0.13049
6466.98256,0.13230
6465.05384,0.13421
6463.12513,0.13461
6461.19641,0.13301
6459.26770,0.13256
6457.33898,0.13375
6455.41026,0.13385
6453.48155,0.13281
6451.55283,0.13130
6449.62412,0.12961
6447.69540,0.12867
6445.76669,0.12802
6443.83797,0.12798
6441.90926,0.13041
6439.98054,0.13356
6438.05183,0.13306
6436.12311,0.12857
6434.19440,0.12499
6432.26568,0.12508
6430.33697,0.12660
6428.40825,0.12682
6426.47953,0.12554
6424.55082,0.12553
6422.62210,0.12745
6420.69339,0.12860
6418.76467,0.12790
6416.83596,0.12700
6414.90724,0.12851
6412.97853,0.13138
6411.04981,0.13244
6409.12110,0.13280
6407.19238,0.13310
6405.26367,0.13048
6403.33495,0.12648
6401.40623,0.12637
6399.47752,0.12924
6397.54880,0.13081
6395.62009,0.13149
6393.69137,0.13178
6391.76266,0.12964
6389.83394,0.12660
6387.90523,0.12720
6385.97651,0.12957
6384.04780,0.12866
6382.11908,0.12686
6380.19037,0.12772
6378.26165,0.12929
6376.33294,0.12936
6374.40422,0.12822
6372.47550,0.12736
6370.54679,0.12738
6368.61807,0.12687
6366.68936,0.12591
6364.76064,0.12703
6362.83193,0.12873
6360.90321,0.12736
6358.97450,0.12498
6357.04578,0.12524
6355.11707,0.12712
6353.18835,0.12774
6351.25964,0.12783
6349.33092,0.12971
6347.40221,0.13189
6345.47349,0.13089
6343.54477,0.12588
6341.61606,0.12039
6339.68734,0.11928
6337.75863,0.12216
6335.82991,0.12451
6333.90120,0.12515
6331.97248,0.12599
6330.04377,0.12679
6328.11505,0.12628
6326.18634,0.12467
6324.25762,0.12246
6322.32891,0.12009
6320.40019,0.11854
6318.47147,0.11942
6316.54276,0.12204
6314.61404,0.12379
6312.68533,0.12381
6310.75661,0.12322
6308.82790,0.12334
6306.89918,0.12446
6304.97047,0.12502
6303.04175,0.12420
6301.11304,0.12356
6299.18432,0.12356
6297.25561,0.12324
6295.32689,0.12342
6293.39818,0.12410
6291.46946,0.12284
6289.54074,0.12072
6287.61203,0.12150
6285.68331,0.12340
6283.75460,0.12317
6281.82588,0.12257
6279.89717,0.12321
6277.96845,0.12461
6276.03974,0.12556
6274.11102,0.12404
6272.18231,0.12092
6270.25359,0.11921
6268.32488,0.11888
6266.39616,0.11826
6264.46745,0.11738
6262.53873,0.11731
6260.61001,0.11886
6258.68130,0.12087
6256.75258,0.12098
6254.82387,0.11862
6252.89515,0.11532
6250.96644,0.11304
6249.03772,0.11245
6247.10901,0.11253
6245.18029,0.11186
6243.25158,0.11067
6241.32286,0.11033
6239.39415,0.11138
6237.46543,0.11314
6235.53672,0.11336
6233.60800,0.11087
6231.67928,0.10798
6229.75057,0.10750
6227.82185,0.10953
6225.89314,0.11130
6223.96442,0.11094
6222.03571,0.11036
6220.10699,0.11058
6218.17828,0.10963
6216.24956,0.10767
6214.32085,0.10670
6212.39213,0.10615
6210.46342,0.10559
6208.53470,0.10535
6206.60598,0.10465
6204.67727,0.10327
6202.74855,0.10267
6200.81984,0.10430
6198.89112,0.10623
6196.96241,0.10538
6195.03369,0.10211
6193.10498,0.09909
6191.17626,0.09839
6189.24755,0.09866
6187.31883,0.09730
6185.39012,0.09467
6183.46140,0.09198
6181.53269,0.08997
6179.60397,0.08943
6177.67525,0.08975
6175.74654,0.09012
6173.81782,0.09075
6171.88911,0.09125
6169.96039,0.09070
6168.03168,0.08863
6166.10296,0.08620
6164.17425,0.08538
6162.24553,0.08533
6160.31682,0.08500
6158.38810,0.08556
6156.45939,0.08675
6154.53067,0.08700
6152.60196,0.08580
6150.67324,0.08418
6148.74452,0.08309
6146.81581,0.08230
6144.88709,0.08201
6142.95838,0.08194
6141.02966,0.08116
6139.10095,0.07982
6137.17223,0.07872
6135.24352,0.07793
6133.31480,0.07686
6131.38609,0.07520
6129.45737,0.07280
6127.52866,0.07061
6125.59994,0.07014
6123.67122,0.07055
6121.74251,0.07092
6119.81379,0.07127
6117.88508,0.07142
6115.95636,0.07180
6114.02765,0.07228
6112.09893,0.07164
6110.17022,0.06997
6108.24150,0.06890
6106.31279,0.06886
6104.38407,0.06873
6102.45536,0.06803
6100.52664,0.06644
6098.59793,0.06418
6096.66921,0.06232
6094.74049,0.06091
6092.81178,0.06008
6090.88306,0.06020
6088.95435,0.06071
6087.02563,0.06157
6085.09692,0.06208
6083.16820,0.06103
6081.23949,0.06021
6079.31077,0.06139
6077.38206,0.06239
6075.45334,0.06149
6073.52463,0.05983
6071.59591,0.05898
6069.66720,0.05910
6067.73848,0.05908
6065.80976,0.05838
6063.88105,0.05747
6061.95233,0.05708
6060.02362,0.05781
6058.09490,0.05857
6056.16619,0.05828
6054.23747,0.05843
6052.30876,0.06034
6050.38004,0.06158
6048.45133,0.05953
6046.52261,0.05626
6044.59390,0.05478
6042.66518,0.05514
6040.73647,0.05671
6038.80775,0.05849
6036.87903,0.05952
6034.95032,0.06025
6033.02160,0.06056
6031.09289,0.06036
6029.16417,0.06029
6027.23546,0.05977
6025.30674,0.05890
6023.37803,0.05850
6021.44931,0.05813
6019.52060,0.05804
6017.59188,0.05913
6015.66317,0.06035
6013.73445,0.05982
6011.80573,0.05817
6009.87702,0.05723
6007.94830,0.05722
6006.01959,0.05768
6004.09087,0.05819
6002.16216,0.05819
6000.23344,0.05716
5998.30473,0.05573
5996.37601,0.05566
5994.44730,0.05702
5992.51858,0.05757
5990.58987,0.05626
5988.66115,0.05477
5986.73244,0.05430
5984.80372,0.05414
5982.87500,0.05375
5980.94629,0.05361
5979.01757,0.05457
5977.08886,0.05626
5975.16014,0.05749
5973.23143,0.05732
5971.30271,0.05605
5969.37400,0.05537
5967.44528,0.05600
5965.51657,0.05777
5963.58785,0.06007
5961.65914,0.06059
5959.73042,0.05877
5957.80171,0.05705
5955.87299,0.05660
5953.94427,0.05611
5952.01556,0.05584
5950.08684,0.05653
5948.15813,0.05696
5946.22941,0.05708
5944.30070,0.05774
5942.37198,0.05826
5940.44327,0.05765
5938.51455,0.05566
5936.58584,0.05331
5934.65712,0.05183
5932.72841,0.05121
5930.79969,0.05193
5928.87097,0.05441
5926.94226,0.05689
5925.01354,0.05770
5923.08483,0.05720
5921.15611,0.05674
5919.22740,0.05657
5917.29868,0.05614
5915.36997,0.05563
5913.44125,0.05561
5911.51254,0.05609
5909.58382,0.05695
5907.65511,0.05752
5905.72639,0.05663
5903.79768,0.05488
5901.86896,0.05436
5899.94024,0.05525
5898.01153,0.05609
5896.08281,0.05640
5894.15410,0.05665
5892.22538,0.05697
5890.29667,0.05655
5888.36795,0.05526
5886.43924,0.05509
5884.51052,0.05645
5882.58181,0.05743
5880.65309,0.05773
5878.72438,0.05788
5876.79566,0.05845
5874.86695,0.05982
5872.93823,0.06049
5871.00951,0.05995
5869.08080,0.05943
5867.15208,0.05947
5865.22337,0.06026
5863.29465,0.06104
5861.36594,0.06052
5859.43722,0.05972
5857.50851,0.06048
5855.57979,0.06136
5853.65108,0.06002
5851.72236,0.05850
5849.79365,0.05905
5847.86493,0.06018
5845.93622,0.06068
5844.00750,0.06125
5842.07878,0.06195
5840.15007,0.06203
5838.22135,0.06136
5836.29264,0.06069
5834.36392,0.06043
5832.43521,0.06110
5830.50649,0.06292
5828.57778,0.06361
5826.64906,0.06273
5824.72035,0.06330
5822.79163,0.06475
5820.86292,0.06442
5818.93420,0.06351
5817.00548,0.06367
5815.07677,0.06364
5813.14805,0.06244
5811.21934,0.06085
5809.29062,0.06030
5807.36191,0.06148
5805.43319,0.06295
5803.50448,0.06364
5801.57576,0.06391
5799.64705,0.06374
5797.71833,0.06341
5795.78962,0.06310
5793.86090,0.06250
5791.93219,0.06192
5790.00347,0.06200
5788.07475,0.06299
5786.14604,0.06487
5784.21732,0.06583
5782.28861,0.06432
5780.35989,0.06214
5778.43118,0.06106
5776.50246,0.06105
5774.57375,0.06189
5772.64503,0.06239
5770.71632,0.06173
5768.78760,0.06068
5766.85889,0.06049
5764.93017,0.06098
5763.00146,0.06100
5761.07274,0.06078
5759.14402,0.06127
5757.21531,0.06228
5755.28659,0.06279
5753.35788,0.06210
5751.42916,0.06137
5749.50045,0.06231
5747.57173,0.06451
5745.64302,0.06657
5743.71430,0.06787
5741.78559,0.06819
5739.85687,0.06773
5737.92816,0.06750
5735.99944,0.06849
5734.07072,0.06966
5732.14201,0.06935
5730.21329,0.06860
5728.28458,0.06944
5726.35586,0.07096
5724.42715,0.07151
5722.49843,0.07189
5720.56972,0.07288
5718.64100,0.07406
5716.71229,0.07524
5714.78357,0.07572
5712.85486,0.07561
5710.92614,0.07596
5708.99743,0.07672
5707.06871,0.07758
5705.13999,0.07901
5703.21128,0.08086
5701.28256,0.08197
5699.35385,0.08153
5697.42513,0.07993
5695.49642,0.07884
5693.56770,0.07881
5691.63899,0.07800
5689.71027,0.07655
5687.78156,0.07666
5685.85284,0.07761
5683.92413,0.07759
5681.99541,0.07711
5680.06670,0.07629
5678.13798,0.07453
5676.20926,0.07266
5674.28055,0.07157
5672.35183,0.07133
5670.42312,0.07137
5668.49440,0.07071
5666.56569,0.06925
5664.63697,0.06810
5662.70826,0.06814
5660.77954,0.06889
5658.85083,0.06970
5656.92211,0.07002
5654.99340,0.06973
5653.06468,0.06976
5651.13597,0.07075
5649.20725,0.07202
5647.27853,0.07273
5645.34982,0.07340
5643.42110,0.07520
5641.49239,0.07742
5639.56367,0.07859
5637.63496,0.07912
5635.70624,0.07940
5633.77753,0.07919
5631.84881,0.07911
5629.92010,0.07987
5627.99138,0.08130
5626.06267,0.08283
5624.13395,0.08398
5622.20523,0.08478
5620.27652,0.08546
5618.34780,0.08588
5616.41909,0.08614
5614.49037,0.08677
5612.56166,0.08762
5610.63294,0.08821
5608.70423,0.08817
5606.77551,0.08752
5604.84680,0.08678
5602.91808,0.08623
5600.98937,0.08606
5599.06065,0.08637
5597.13194,0.08717
5595.20322,0.08836
5593.27450,0.08866
5591.34579,0.08784
5589.41707,0.08700
5587.48836,0.08622
5585.55964,0.08610
5583.63093,0.08742
5581.70221,0.08873
5579.77350,0.08873
5577.84478,0.08821
5575.91607,0.08780
5573.98735,0.08717
5572.05864,0.08666
5570.12992,0.08710
5568.20121,0.08798
5566.27249,0.08819
5564.34377,0.08805
5562.41506,0.08783
5560.48634,0.08691
5558.55763,0.08598
5556.62891,0.08609
5554.70020,0.08656
5552.77148,0.08656
5550.84277,0.08660
5548.91405,0.08697
5546.98534,0.08695
5545.05662,0.08626
5543.12791,0.08553
5541.19919,0.08495
5539.27047,0.08457
5537.34176,0.08503
5535.41304,0.08609
5533.48433,0.08650
5531.55561,0.08606
5529.62690,0.08579
5527.69818,0.08637
5525.76947,0.08713
5523.84075,0.08745
5521.91204,0.08729
5519.98332,0.08673
5518.05461,0.08654
5516.12589,0.08712
5514.19718,0.08754
5512.26846,0.08737
5510.33974,0.08706
5508.41103,0.08699
5506.48231,0.08729
5504.55360,0.08744
5502.62488,0.08698
5500.69617,0.08620
5498.76745,0.08555
5496.83874,0.08521
5494.91002,0.08497
5492.98131,0.08454
5491.05259,0.08393
5489.12388,0.08323
5487.19516,0.08242
5485.26645,0.08191
5483.33773,0.08185
5481.40901,0.08181
5479.48030,0.08207
5477.55158,0.08293
5475.62287,0.08309
5473.69415,0.08199
5471.76544,0.08133
5469.83672,0.08162
5467.90801,0.08229
5465.97929,0.08307
5464.05058,0.08381
5462.12186,0.08431
5460.19315,0.08457
5458.26443,0.08481
5456.33572,0.08531
5454.40700,0.08586
5452.47828,0.08593
5450.54957,0.08593
5448.62085,0.08628
5446.69214,0.08648
5444.76342,0.08643
5442.83471,0.08631
5440.90599,0.08601
5438.97728,0.08639
5437.04856,0.08709
5435.11985,0.08692
5433.19113,0.08595
5431.26242,0.08497
5429.33370,0.08569
5427.40498,0.08844
5425.47627,0.09017
5423.54755,0.09030
5421.61884,0.08925
5419.69012,0.08763
5417.76141,0.08732
5415.83269,0.08911
5413.90398,0.09180
5411.97526,0.09281
5410.04655,0.09150
5408.11783,0.09002
5406.18912,0.08912
5404.26040,0.08824
5402.33169,0.08719
5400.40297,0.08640
5398.47425,0.08671
5396.54554,0.08808
5394.61682,0.08930
5392.68811,0.08931
5390.75939,0.08840
5388.83068,0.08779
5386.90196,0.08803
5384.97325,0.08845
5383.04453,0.08922
5381.11582,0.09035
5379.18710,0.09075
5377.25839,0.09089
5375.32967,0.09171
5373.40096,0.09207
5371.47224,0.09170
5369.54352,0.09129
5367.61481,0.09057
5365.68609,0.08959
5363.75738,0.08924
5361.82866,0.08955
5359.89995,0.08960
5357.97123,0.08920
5356.04252,0.08845
5354.11380,0.08717
5352.18509,0.08605
5350.25637,0.08582
5348.32766,0.08619
5346.39894,0.08685
5344.47022,0.08725
5342.54151,0.08722
5340.61279,0.08683
5338.68408,0.08647
5336.75536,0.08727
5334.82665,0.08784
5332.89793,0.08718
5330.96922,0.08702
5329.04050,0.08824
5327.11179,0.08943
5325.18307,0.08943
5323.25436,0.08872
5321.32564,0.08791
5319.39693,0.08745
5317.46821,0.08770
5315.53949,0.08812
5313.61078,0.08796
5311.68206,0.08722
5309.75335,0.08639
5307.82463,0.08589
5305.89592,0.08598
5303.96720,0.08655
5302.03849,0.08648
5300.10977,0.08489
5298.18106,0.08297
5296.25234,0.08211
5294.32363,0.08212
5292.39491,0.08228
5290.46620,0.08182
5288.53748,0.08080
5286.60876,0.07978
5284.68005,0.07842
5282.75133,0.07664
5280.82262,0.07470
5278.89390,0.07306
5276.96519,0.07261
5275.03647,0.07283
5273.10776,0.07223
5271.17904,0.07077
5269.25033,0.06973
5267.32161,0.06926
5265.39290,0.06838
5263.46418,0.06769
5261.53547,0.06832
5259.60675,0.06935
5257.67803,0.07011
5255.74932,0.07090
5253.82060,0.07220
5251.89189,0.07386
5249.96317,0.07522
5248.03446,0.07666
5246.10574,0.07844
5244.17703,0.07951
5242.24831,0.07991
5240.31960,0.08045
5238.39088,0.08112
5236.46217,0.08179
5234.53345,0.08276
5232.60473,0.08418
5230.67602,0.08556
5228.74730,0.08639
5226.81859,0.08706
5224.88987,0.08833
5222.96116,0.08979
5221.03244,0.09055
5219.10373,0.09095
5217.17501,0.09191
5215.24630,0.09330
5213.31758,0.09409
5211.38887,0.09400
5209.46015,0.09338
5207.53144,0.09244
5205.60272,0.09171
5203.67400,0.09166
5201.74529,0.09184
5199.81657,0.09178
5197.88786,0.09199
5195.95914,0.09292
5194.03043,0.09311
5192.10171,0.09209
5190.17300,0.09155
5188.24428,0.09188
5186.31557,0.09172
5184.38685,0.09126
5182.45814,0.09147
5180.52942,0.09170
5178.60071,0.09136
5176.67199,0.09134
5174.74327,0.09229
5172.81456,0.09313
5170.88584,0.09255
5168.95713,0.09136
5167.02841,0.09121
5165.09970,0.09196
5163.17098,0.09259
5161.24227,0.09298
5159.31355,0.09324
5157.38484,0.09334
5155.45612,0.09418
5153.52741,0.09552
5151.59869,0.09567
5149.66997,0.09483
5147.74126,0.09427
5145.81254,0.09435
5143.88383,0.09505
5141.95511,0.09626
5140.02640,0.09754
5138.09768,0.09792
5136.16897,0.09742
5134.24025,0.09690
5132.31154,0.09651
5130.38282,0.09628
5128.45411,0.09629
5126.52539,0.09635
5124.59668,0.09670
5122.66796,0.09736
5120.73924,0.09782
5118.81053,0.09787
5116.88181,0.09778
5114.95310,0.09770
5113.02438,0.09775
5111.09567,0.09797
5109.16695,0.09812
5107.23824,0.09829
5105.30952,0.09884
5103.38081,0.09952
5101.45209,0.09972
5099.52338,0.09915
5097.59466,0.09823
5095.66595,0.09760
5093.73723,0.09728
5091.80851,0.09748
5089.87980,0.09849
5087.95108,0.09931
5086.02237,0.09895
5084.09365,0.09777
5082.16494,0.09680
5080.23622,0.09676
5078.30751,0.09717
5076.37879,0.09715
5074.45008,0.09679
5072.52136,0.09633
5070.59265,0.09578
5068.66393,0.09557
5066.73522,0.09596
5064.80650,0.09667
5062.87778,0.09713
5060.94907,0.09689
5059.02035,0.09636
5057.09164,0.09655
5055.16292,0.09757
5053.23421,0.09842
5051.30549,0.09862
5049.37678,0.09824
5047.44806,0.09761
5045.51935,0.09768
5043.59063,0.09864
5041.66192,0.09952
5039.73320,0.09987
5037.80448,0.09975
5035.87577,0.09942
5033.94705,0.09902
5032.01834,0.09828
5030.08962,0.09739
5028.16091,0.09687
5026.23219,0.09674
5024.30348,0.09667
5022.37476,0.09661
5020.44605,0.09666
5018.51733,0.09644
5016.58862,0.09560
5014.65990,0.09441
5012.73119,0.09369
5010.80247,0.09405
5008.87375,0.09491
5006.94504,0.09551
5005.01632,0.09579
5003.08761,0.09560
5001.15889,0.09494
4999.23018,0.09441
4997.30146,0.09414
4995.37275,0.09381
4993.44403,0.09360
4991.51532,0.09367
4989.58660,0.09354
4987.65789,0.09309
4985.72917,0.09290
4983.80046,0.09290
4981.87174,0.09214
4979.94302,0.09079
4978.01431,0.09007
4976.08559,0.09005
4974.15688,0.09021
4972.22816,0.09062
4970.29945,0.09086
4968.37073,0.09064
4966.44202,0.09042
4964.51330,0.09048
4962.58459,0.09085
4960.65587,0.09116
4958.72716,0.09089
4956.79844,0.09050
4954.86972,0.09069
4952.94101,0.09089
4951.01229,0.09018
4949.08358,0.08927
4947.15486,0.08931
4945.22615,0.09010
4943.29743,0.09060
4941.36872,0.09020
4939.44000,0.08965
4937.51129,0.08956
4935.58257,0.08958
4933.65386,0.08971
4931.72514,0.08961
4929.79643,0.08883
4927.86771,0.08806
4925.93899,0.08734
4924.01028,0.08627
4922.08156,0.08540
4920.15285,0.08500
4918.22413,0.08477
4916.29542,0.08455
4914.36670,0.08408
4912.43799,0.08334
4910.50927,0.08248
4908.58056,0.08163
4906.65184,0.08105
4904.72313,0.08053
4902.79441,0.07942
4900.86570,0.07802
4898.93698,0.07735
4897.00826,0.07756
4895.07955,0.07766
4893.15083,0.07681
4891.22212,0.07598
4889.29340,0.07635
4887.36469,0.07684
4885.43597,0.07654
4883.50726,0.07625
4881.57854,0.07636
4879.64983,0.07651
4877.72111,0.07644
4875.79240,0.07599
4873.86368,0.07529
4871.93497,0.07502
4870.00625,0.07542
4868.07753,0.07546
4866.14882,0.07465
4864.22010,0.07413
4862.29139,0.07414
4860.36267,0.07358
4858.43396,0.07243
4856.50524,0.07148
4854.57653,0.07082
4852.64781,0.07049
4850.71910,0.07080
4848.79038,0.07138
4846.86167,0.07144
4844.93295,0.07105
4843.00423,0.07081
4841.07552,0.07068
4839.14680,0.07044
4837.21809,0.07063
4835.28937,0.07143
4833.36066,0.07196
4831.43194,0.07201
4829.50323,0.07201
4827.57451,0.07181
4825.64580,0.07145
4823.71708,0.07148
4821.78837,0.07201
4819.85965,0.07249
4817.93094,0.07253
4816.00222,0.07253
4814.07350,0.07285
4812.14479,0.07310
4810.21607,0.07312
4808.28736,0.07339
4806.35864,0.07363
4804.42993,0.07339
4802.50121,0.07317
4800.57250,0.07331
4798.64378,0.07345
4796.71507,0.07349
4794.78635,0.07365
4792.85764,0.07359
4790.92892,0.07311
4789.00021,0.07275
4787.07149,0.07244
4785.14277,0.07190
4783.21406,0.07157
4781.28534,0.07127
4779.35663,0.07049
4777.42791,0.06980
4775.49920,0.06948
4773.57048,0.06898
4771.64177,0.06859
4769.71305,0.06871
4767.78434,0.06899
4765.85562,0.06923
4763.92691,0.06912
4761.99819,0.06830
4760.06948,0.06721
4758.14076,0.06658
4756.21204,0.06651
4754.28333,0.06645
4752.35461,0.06606
4750.42590,0.06535
4748.49718,0.06464
4746.56847,0.06460
4744.63975,0.06490
4742.71104,0.06468
4740.78232,0.06419
4738.85361,0.06397
4736.92489,0.06374
4734.99618,0.06322
4733.06746,0.06262
4731.13874,0.06225
4729.21003,0.06224
4727.28131,0.06242
4725.35260,0.06242
4723.42388,0.06250
4721.49517,0.06286
4719.56645,0.06277
4717.63774,0.06189
4715.70902,0.06116
4713.78031,0.06140
4711.85159,0.06194
4709.92288,0.06200
4707.99416,0.06183
4706.06545,0.06182
4704.13673,0.06207
4702.20801,0.06255
4700.27930,0.06282
4698.35058,0.06267
4696.42187,0.06243
4694.49315,0.06213
4692.56444,0.06164
4690.63572,0.06089
4688.70701,0.06036
4686.77829,0.06096
4684.84958,0.06198
4682.92086,0.06201
4680.99215,0.06145
4679.06343,0.06139
4677.13472,0.06176
4675.20600,0.06198
4673.27728,0.06198
4671.34857,0.06195
4669.41985,0.06195
4667.49114,0.06212
4665.56242,0.06250
4663.63371,0.06288
4661.70499,0.06314
4659.77628,0.06295
4657.84756,0.06222
4655.91885,0.06161
4653.99013,0.06142
4652.06142,0.06149
4650.13270,0.06183
4648.20398,0.06203
4646.27527,0.06176
4644.34655,0.06146
4642.41784,0.06149
4640.48912,0.06161
4638.56041,0.06156
4636.63169,0.06155
4634.70298,0.06193
4632.77426,0.06238
4630.84555,0.06227
4628.91683,0.06169
4626.98812,0.06134
4625.05940,0.06149
4623.13069,0.06171
4621.20197,0.06178
4619.27325,0.06174
4617.34454,0.06165
4615.41582,0.06149
4613.48711,0.06125
4611.55839,0.06125
4609.62968,0.06156
4607.70096,0.06168
4605.77225,0.06152
4603.84353,0.06154
4601.91482,0.06180
4599.98610,0.06200
4598.05739,0.06207
4596.12867,0.06224
4594.19996,0.06244
4592.27124,0.06233
4590.34252,0.06199
4588.41381,0.06163
4586.48509,0.06115
4584.55638,0.06082
4582.62766,0.06090
4580.69895,0.06111
4578.77023,0.06128
4576.84152,0.06135
4574.91280,0.06136
4572.98409,0.06161
4571.05537,0.06212
4569.12666,0.06240
4567.19794,0.06218
4565.26923,0.06173
4563.34051,0.06147
4561.41179,0.06187
4559.48308,0.06262
4557.55436,0.06286
4555.62565,0.06287
4553.69693,0.06319
4551.76822,0.06357
4549.83950,0.06376
4547.91079,0.06377
4545.98207,0.06387
4544.05336,0.06402
4542.12464,0.06374
4540.19593,0.06318
4538.26721,0.06294
4536.33849,0.06316
4534.40978,0.06327
4532.48106,0.06274
4530.55235,0.06220
4528.62363,0.06240
4526.69492,0.06291
4524.76620,0.06310
4522.83749,0.06304
4520.90877,0.06301
4518.98006,0.06328
4517.05134,0.06356
4515.12263,0.06336
4513.19391,0.06281
4511.26520,0.06236
4509.33648,0.06256
4507.40776,0.06313
4505.47905,0.06319
4503.55033,0.06279
4501.62162,0.06240
4499.69290,0.06235
4497.76419,0.06270
4495.83547,0.06286
4493.90676,0.06240
4491.97804,0.06181
4490.04933,0.06146
4488.12061,0.06114
4486.19190,0.06089
4484.26318,0.06082
4482.33447,0.06104
4480.40575,0.06183
4478.47703,0.06262
4476.54832,0.06257
4474.61960,0.06181
4472.69089,0.06118
4470.76217,0.06131
4468.83346,0.06193
4466.90474,0.06242
4464.97603,0.06266
4463.04731,0.06268
4461.11860,0.06262
4459.18988,0.06274
4457.26117,0.06265
4455.33245,0.06212
4453.40373,0.06173
4451.47502,0.06174
4449.54630,0.06203
4447.61759,0.06224
4445.68887,0.06204
4443.76016,0.06173
4441.83144,0.06183
4439.90273,0.06230
4437.97401,0.06251
4436.04530,0.06213
4434.11658,0.06169
4432.18787,0.06165
4430.25915,0.06175
4428.33044,0.06176
4426.40172,0.06182
4424.47300,0.06196
4422.54429,0.06209
4420.61557,0.06228
4418.68686,0.06221
4416.75814,0.06159
4414.82943,0.06111
4412.90071,0.06144
4410.97200,0.06217
4409.04328,0.06249
4407.11457,0.06228
4405.18585,0.06214
4403.25714,0.06228
4401.32842,0.06224
4399.39971,0.06208
4397.47099,0.06223
4395.54227,0.06253
4393.61356,0.06280
4391.68484,0.06302
4389.75613,0.06287
4387.82741,0.06233
4385.89870,0.06200
4383.96998,0.06207
4382.04127,0.06227
4380.11255,0.06243
4378.18384,0.06256
4376.25512,0.06261
4374.32641,0.06253
4372.39769,0.06242
4370.46898,0.06230
4368.54026,0.06207
4366.61154,0.06186
4364.68283,0.06192
4362.75411,0.06217
4360.82540,0.06230
4358.89668,0.06215
4356.96797,0.06181
4355.03925,0.06149
4353.11054,0.06150
4351.18182,0.06206
4349.25311,0.06269
4347.32439,0.06255
4345.39568,0.06186
4343.46696,0.06163
4341.53824,0.06184
4339.60953,0.06195
4337.68081,0.06208
4335.75210,0.06239
4333.82338,0.06277
4331.89467,0.06291
4329.96595,0.06258
4328.03724,0.06227
4326.10852,0.06224
4324.17981,0.06222
4322.25109,0.06243
4320.32238,0.06277
4318.39366,0.06282
4316.46495,0.06271
4314.53623,0.06266
4312.60751,0.06256
4310.67880,0.06235
4308.75008,0.06230
4306.82137,0.06241
4304.89265,0.06228
4302.96394,0.06195
4301.03522,0.06201
4299.10651,0.06238
4297.17779,0.06245
4295.24908,0.06229
4293.32036,0.06222
4291.39165,0.06214
4289.46293,0.06207
4287.53422,0.06213
4285.60550,0.06231
4283.67678,0.06233
4281.74807,0.06205
4279.81935,0.06200
4277.89064,0.06227
4275.96192,0.06221
4274.03321,0.06178
4272.10449,0.06158
4270.17578,0.06176
4268.24706,0.06191
4266.31835,0.06205
4264.38963,0.06244
4262.46092,0.06268
4260.53220,0.06261
4258.60348,0.06279
4256.67477,0.06324
4254.74605,0.06315
4252.81734,0.06236
4250.88862,0.06178
4248.95991,0.06178
4247.03119,0.06186
4245.10248,0.06177
4243.17376,0.06162
4241.24505,0.06150
4239.31633,0.06165
4237.38762,0.06218
4235.45890,0.06260
4233.53019,0.06241
4231.60147,0.06198
4229.67275,0.06197
4227.74404,0.06239
4225.81532,0.06271
4223.88661,0.06253
4221.95789,0.06218
4220.02918,0.06234
4218.10046,0.06290
4216.17175,0.06313
4214.24303,0.06293
4212.31432,0.06272
4210.38560,0.06239
4208.45689,0.06184
4206.52817,0.06172
4204.59946,0.06225
4202.67074,0.06291
4200.74202,0.06323
4198.81331,0.06303
4196.88459,0.06267
4194.95588,0.06264
4193.02716,0.06273
4191.09845,0.06246
4189.16973,0.06201
4187.24102,0.06214
4185.31230,0.06294
4183.38359,0.06353
4181.45487,0.06342
4179.52616,0.06302
4177.59744,0.06270
4175.66873,0.06254
4173.74001,0.06258
4171.81129,0.06276
4169.88258,0.06293
4167.95386,0.06298
4166.02515,0.06301
4164.09643,0.06300
4162.16772,0.06300
4160.23900,0.06296
4158.31029,0.06286
4156.38157,0.06283
4154.45286,0.06275
4152.52414,0.06255
4150.59543,0.06251
4148.66671,0.06260
4146.73799,0.06265
4144.80928,0.06274
4142.88056,0.06271
4140.95185,0.06244
4139.02313,0.06230
4137.09442,0.06255
4135.16570,0.06283
4133.23699,0.06267
4131.30827,0.06230
4129.37956,0.06238
4127.45084,0.06286
4125.52213,0.06319
4123.59341,0.06313
4121.66470,0.06277
4119.73598,0.06260
4117.80726,0.06277
4115.87855,0.06279
4113.94983,0.06275
4112.02112,0.06290
4110.09240,0.06296
4108.16369,0.06287
4106.23497,0.06281
4104.30626,0.06279
4102.37754,0.06268
4100.44883,0.06262
4098.52011,0.06275
4096.59140,0.06293
4094.66268,0.06305
4092.73397,0.06313
4090.80525,0.06318
4088.87653,0.06331
4086.94782,0.06350
4085.01910,0.06339
4083.09039,0.06302
4081.16167,0.06280
4079.23296,0.06281
4077.30424,0.06291
4075.37553,0.06303
4073.44681,0.06291
4071.51810,0.06257
4069.58938,0.06252
4067.66067,0.06285
4065.73195,0.06302
4063.80323,0.06281
4061.87452,0.06269
4059.94580,0.06297
4058.01709,0.06341
4056.08837,0.06368
4054.15966,0.06363
4052.23094,0.06328
4050.30223,0.06291
4048.37351,0.06272
4046.44480,0.06284
4044.51608,0.06324
4042.58737,0.06353
4040.65865,0.06359
4038.72994,0.06362
4036.80122,0.06347
4034.87250,0.06307
4032.94379,0.06277
4031.01507,0.06268
4029.08636,0.06282
4027.15764,0.06321
4025.22893,0.06343
4023.30021,0.06322
4021.37150,0.06293
4019.44278,0.06308
4017.51407,0.06339
4015.58535,0.06321
4013.65664,0.06301
4011.72792,0.06335
4009.79921,0.06354
4007.87049,0.06316
4005.94177,0.06299
4004.01306,0.06331
4002.08434,0.06340
4000.15563,0.06314
3998.22691,0.06306
3996.29820,0.06319
3994.36948,0.06319
3992.44077,0.06312
3990.51205,0.06295
3988.58334,0.06253
3986.65462,0.06231
3984.72591,0.06243
3982.79719,0.06269
3980.86848,0.06320
3978.93976,0.06355
3977.01104,0.06319
3975.08233,0.06271
3973.15361,0.06265
3971.22490,0.06266
3969.29618,0.06273
3967.36747,0.06300
3965.43875,0.06317
3963.51004,0.06319
3961.58132,0.06338
3959.65261,0.06369
3957.72389,0.06375
3955.79518,0.06358
3953.86646,0.06329
3951.93774,0.06290
3950.00903,0.06265
3948.08031,0.06269
3946.15160,0.06282
3944.22288,0.06284
3942.29417,0.06281
3940.36545,0.06299
3938.43674,0.06324
3936.50802,0.06323
3934.57931,0.06302
3932.65059,0.06276
3930.72188,0.06257
3928.79316,0.06286
3926.86445,0.06339
3924.93573,0.06337
3923.00701,0.06289
3921.07830,0.06266
3919.14958,0.06276
3917.22087,0.06293
3915.29215,0.06308
3913.36344,0.06322
3911.43472,0.06342
3909.50601,0.06362
3907.57729,0.06355
3905.64858,0.06289
3903.71986,0.06204
3901.79115,0.06210
3899.86243,0.06289
3897.93372,0.06349
3896.00500,0.06356
3894.07628,0.06339
3892.14757,0.06345
3890.21885,0.06393
3888.29014,0.06430
3886.36142,0.06432
3884.43271,0.06406
3882.50399,0.06374
3880.57528,0.06347
3878.64656,0.06343
3876.71785,0.06343
3874.78913,0.06319
3872.86042,0.06294
3870.93170,0.06302
3869.00298,0.06335
3867.07427,0.06344
3865.14555,0.06319
3863.21684,0.06313
3861.28812,0.06382
3859.35941,0.06455
3857.43069,0.06467
3855.50198,0.06422
3853.57326,0.06357
3851.64455,0.06356
3849.71583,0.06379
3847.78712,0.06382
3845.85840,0.06383
3843.92969,0.06397
3842.00097,0.06433
3840.07225,0.06468
3838.14354,0.06436
3836.21482,0.06367
3834.28611,0.06332
3832.35739,0.06329
3830.42868,0.06356
3828.49996,0.06388
3826.57125,0.06400
3824.64253,0.06428
3822.71382,0.06479
3820.78510,0.06460
3818.85639,0.06392
3816.92767,0.06366
3814.99896,0.06352
3813.07024,0.06346
3811.14152,0.06353
3809.21281,0.06353
3807.28409,0.06327
3805.35538,0.06325
3803.42666,0.06352
3801.49795,0.06357
3799.56923,0.06378
3797.64052,0.06405
3795.71180,0.06373
3793.78309,0.06311
3791.85437,0.06275
3789.92566,0.06277
3787.99694,0.06279
3786.06823,0.06248
3784.13951,0.06243
3782.21079,0.06293
3780.28208,0.06316
3778.35336,0.06314
3776.42465,0.06346
3774.49593,0.06377
3772.56722,0.06370
3770.63850,0.06315
3768.70979,0.06252
3766.78107,0.06242
3764.85236,0.06277
3762.92364,0.06326
3760.99493,0.06359
3759.06621,0.06370
3757.13749,0.06402
3755.20878,0.06454
3753.28006,0.06439
3751.35135,0.06292
3749.42263,0.06182
3747.49392,0.06238
3745.56520,0.06333
3743.63649,0.06362
3741.70777,0.06339
3739.77906,0.06331
3737.85034,0.06284
3735.92163,0.06150
3733.99291,0.06126
3732.06420,0.06255
3730.13548,0.06315
3728.20676,0.06287
3726.27805,0.06240
3724.34933,0.06247
3722.42062,0.06297
3720.49190,0.06331
3718.56319,0.06336
3716.63447,0.06318
3714.70576,0.06288
3712.77704,0.06243
3710.84833,0.06238
3708.91961,0.06312
3706.99090,0.06347
3705.06218,0.06323
3703.13347,0.06284
3701.20475,0.06286
3699.27603,0.06330
3697.34732,0.06355
3695.41860,0.06346
3693.48989,0.06316
3691.56117,0.06267
3689.63246,0.06224
3687.70374,0.06260
3685.77503,0.06324
3683.84631,0.06371
3681.91760,0.06406
3679.98888,0.06432
3678.06017,0.06464
3676.13145,0.06471
3674.20273,0.06385
3672.27402,0.06322
3670.34530,0.06321
3668.41659,0.06325
3666.48787,0.06314
3664.55916,0.06322
3662.63044,0.06347
3660.70173,0.06364
3658.77301,0.06359
3656.84430,0.06331
3654.91558,0.06296
3652.98687,0.06271
3651.05815,0.06208
3649.12944,0.06094
3647.20072,0.06141
3645.27200,0.06243
3643.34329,0.06278
3641.41457,0.06276
3639.48586,0.06292
3637.55714,0.06336
3635.62843,0.06359
3633.69971,0.06320
3631.77100,0.06255
3629.84228,0.06241
3627.91357,0.06319
3625.98485,0.06357
3624.05614,0.06337
3622.12742,0.06311
3620.19871,0.06274
3618.26999,0.06225
3616.34127,0.06212
3614.41256,0.06192
3612.48384,0.06146
3610.55513,0.06143
3608.62641,0.06186
3606.69770,0.06243
3604.76898,0.06294
3602.84027,0.06313
3600.91155,0.06291
3598.98284,0.06252
3597.05412,0.06215
3595.12541,0.06194
3593.19669,0.06207
3591.26798,0.06226
3589.33926,0.06236
3587.41054,0.06267
3585.48183,0.06306
3583.55311,0.06297
3581.62440,0.06264
3579.69568,0.06252
3577.76697,0.06258
3575.83825,0.06244
3573.90954,0.06208
3571.98082,0.06175
3570.05211,0.06142
3568.12339,0.06076
3566.19468,0.06045
3564.26596,0.06113
3562.33724,0.06180
3560.40853,0.06211
3558.47981,0.06223
3556.55110,0.06245
3554.62238,0.06272
3552.69367,0.06267
3550.76495,0.06254
3548.83624,0.06267
3546.90752,0.06270
3544.97881,0.06250
3543.05009,0.06244
3541.12138,0.06244
3539.19266,0.06236
3537.26395,0.06221
3535.33523,0.06199
3533.40651,0.06192
3531.47780,0.06216
3529.54908,0.06248
3527.62037,0.06264
3525.69165,0.06261
3523.76294,0.06247
3521.83422,0.06231
3519.90551,0.06235
3517.97679,0.06249
3516.04808,0.06253
3514.11936,0.06257
3512.19065,0.06266
3510.26193,0.06260
3508.33322,0.06237
3506.40450,0.06229
3504.47578,0.06234
3502.54707,0.06241
3500.61835,0.06259
3498.68964,0.06267
3496.76092,0.06242
3494.83221,0.06216
3492.90349,0.06249
3490.97478,0.06319
3489.04606,0.06360
3487.11735,0.06366
3485.18863,0.06364
3483.25992,0.06340
3481.33120,0.06286
3479.40248,0.06250
3477.47377,0.06249
3475.54505,0.06252
3473.61634,0.06223
3471.68762,0.06178
3469.75891,0.06171
3467.83019,0.06187
3465.90148,0.06198
3463.97276,0.06230
3462.04405,0.06260
3460.11533,0.06246
3458.18662,0.06232
3456.25790,0.06250
3454.32919,0.06266
3452.40047,0.06250
3450.47175,0.06216
3448.54304,0.06191
3446.61432,0.06173
3444.68561,0.06169
3442.75689,0.06215
3440.82818,0.06277
3438.89946,0.06303
3436.97075,0.06288
3435.04203,0.06238
3433.11332,0.06190
3431.18460,0.06185
3429.25589,0.06200
3427.32717,0.06199
3425.39846,0.06203
3423.46974,0.06225
3421.54102,0.06230
3419.61231,0.06220
3417.68359,0.06198
3415.75488,0.06151
3413.82616,0.06111
3411.89745,0.06118
3409.96873,0.06156
3408.04002,0.06185
3406.11130,0.06199
3404.18259,0.06206
3402.25387,0.06206
3400.32516,0.06209
3398.39644,0.06225
3396.46773,0.06237
3394.53901,0.06241
3392.61029,0.06242
3390.68158,0.06224
3388.75286,0.06202
3386.82415,0.06214
3384.89543,0.06226
3382.96672,0.06213
3381.03800,0.06216
3379.10929,0.06233
3377.18057,0.06229
3375.25186,0.06190
3373.32314,0.06142
3371.39443,0.06127
3369.46571,0.06136
3367.53699,0.06141
3365.60828,0.06152
3363.67956,0.06177
3361.75085,0.06194
3359.82213,0.06196
3357.89342,0.06193
3355.96470,0.06184
3354.03599,0.06175
3352.10727,0.06190
3350.17856,0.06222
3348.24984,0.06215
3346.32113,0.06158
3344.39241,0.06113
3342.46370,0.06122
3340.53498,0.06157
3338.60626,0.06188
3336.67755,0.06207
3334.74883,0.06220
3332.82012,0.06241
3330.89140,0.06268
3328.96269,0.06278
3327.03397,0.06258
3325.10526,0.06218
3323.17654,0.06189
3321.24783,0.06195
3319.31911,0.06216
3317.39040,0.06216
3315.46168,0.06204
3313.53297,0.06201
3311.60425,0.06185
3309.67553,0.06148
3307.74682,0.06125
3305.81810,0.06132
3303.88939,0.06146
3301.96067,0.06164
3300.03196,0.06182
3298.10324,0.06188
3296.17453,0.06182
3294.24581,0.06179
3292.31710,0.06202
3290.38838,0.06239
3288.45967,0.06241
3286.53095,0.06214
3284.60223,0.06216
3282.67352,0.06239
3280.74480,0.06243
3278.81609,0.06238
3276.88737,0.06244
3274.95866,0.06250
3273.02994,0.06237
3271.10123,0.06223
3269.17251,0.06226
3267.24380,0.06230
3265.31508,0.06225
3263.38637,0.06225
3261.45765,0.06235
3259.52894,0.06227
3257.60022,0.06188
3255.67150,0.06161
3253.74279,0.06155
3251.81407,0.06164
3249.88536,0.06208
3247.95664,0.06260
3246.02793,0.06264
3244.09921,0.06222
3242.17050,0.06188
3240.24178,0.06181
3238.31307,0.06179
3236.38435,0.06172
3234.45564,0.06186
3232.52692,0.06225
3230.59821,0.06255
3228.66949,0.06251
3226.74077,0.06225
3224.81206,0.06205
3222.88334,0.06206
3220.95463,0.06227
3219.02591,0.06241
3217.09720,0.06220
3215.16848,0.06179
3213.23977,0.06175
3211.31105,0.06220
3209.38234,0.06244
3207.45362,0.06224
3205.52491,0.06203
3203.59619,0.06200
3201.66748,0.06227
3199.73876,0.06252
3197.81004,0.06221
3195.88133,0.06180
3193.95261,0.06194
3192.02390,0.06227
3190.09518,0.06233
3188.16647,0.06229
3186.23775,0.06229
3184.30904,0.06228
3182.38032,0.06234
3180.45161,0.06237
3178.52289,0.06207
3176.59418,0.06161
3174.66546,0.06157
3172.73674,0.06192
3170.80803,0.06231
3168.87931,0.06253
3166.95060,0.06243
3165.02188,0.06216
3163.09317,0.06210
3161.16445,0.06219
3159.23574,0.06218
3157.30702,0.06219
3155.37831,0.06229
3153.44959,0.06224
3151.52088,0.06213
3149.59216,0.06216
3147.66345,0.06226
3145.73473,0.06229
3143.80601,0.06221
3141.87730,0.06213
3139.94858,0.06223
3138.01987,0.06246
3136.09115,0.06242
3134.16244,0.06208
3132.23372,0.06201
3130.30501,0.06219
3128.37629,0.06211
3126.44758,0.06187
3124.51886,0.06183
3122.59015,0.06193
3120.66143,0.06206
3118.73272,0.06225
3116.80400,0.06237
3114.87528,0.06235
3112.94657,0.06236
3111.01785,0.06238
3109.08914,0.06227
3107.16042,0.06208
3105.23171,0.06210
3103.30299,0.06239
3101.37428,0.06266
3099.44556,0.06259
3097.51685,0.06226
3095.58813,0.06204
3093.65942,0.06206
3091.73070,0.06214
3089.80198,0.06212
3087.87327,0.06200
3085.94455,0.06186
3084.01584,0.06177
3082.08712,0.06179
3080.15841,0.06193
3078.22969,0.06204
3076.30098,0.06206
3074.37226,0.06208
3072.44355,0.06204
3070.51483,0.06185
3068.58612,0.06166
3066.65740,0.06168
3064.72869,0.06185
3062.79997,0.06204
3060.87125,0.06221
3058.94254,0.06220
3057.01382,0.06186
3055.08511,0.06155
3053.15639,0.06158
3051.22768,0.06173
3049.29896,0.06182
3047.37025,0.06208
3045.44153,0.06241
3043.51282,0.06239
3041.58410,0.06209
3039.65539,0.06205
3037.72667,0.06237
3035.79796,0.06271
3033.86924,0.06284
3031.94052,0.06287
3030.01181,0.06285
3028.08309,0.06271
3026.15438,0.06251
3024.22566,0.06233
3022.29695,0.06212
3020.36823,0.06192
3018.43952,0.06194
3016.51080,0.06217
3014.58209,0.06231
3012.65337,0.06202
3010.72466,0.06154
3008.79594,0.06127
3006.86723,0.06124
3004.93851,0.06133
3003.00979,0.06139
3001.08108,0.06116
2999.15236,0.06092
2997.22365,0.06106
2995.29493,0.06116
2993.36622,0.06091
2991.43750,0.06071
2989.50879,0.06066
2987.58007,0.06041
2985.65136,0.06013
2983.72264,0.06026
2981.79393,0.06064
2979.86521,0.06101
2977.93649,0.06126
2976.00778,0.06130
2974.07906,0.06137
2972.15035,0.06179
2970.22163,0.06248
2968.29292,0.06309
2966.36420,0.06355
2964.43549,0.06408
2962.50677,0.06458
2960.57806,0.06461
2958.64934,0.06435
2956.72063,0.06420
2954.79191,0.06397
2952.86320,0.06364
2950.93448,0.06359
2949.00576,0.06376
2947.07705,0.06392
2945.14833,0.06388
2943.21962,0.06378
2941.29090,0.06381
2939.36219,0.06381
2937.43347,0.06369
2935.50476,0.06360
2933.57604,0.06355
2931.64733,0.06360
2929.71861,0.06405
2927.78990,0.06463
2925.86118,0.06465
2923.93247,0.06449
2922.00375,0.06472
2920.07503,0.06504
2918.14632,0.06510
2916.21760,0.06497
2914.28889,0.06471
2912.36017,0.06425
2910.43146,0.06372
2908.50274,0.06350
2906.57403,0.06371
2904.64531,0.06408
2902.71660,0.06427
2900.78788,0.06405
2898.85917,0.06354
2896.93045,0.06324
2895.00173,0.06340
2893.07302,0.06382
2891.14430,0.06414
2889.21559,0.06407
2887.28687,0.06366
2885.35816,0.06328
2883.42944,0.06308
2881.50073,0.06298
2879.57201,0.06294
2877.64330,0.06303
2875.71458,0.06322
2873.78587,0.06344
2871.85715,0.06366
2869.92844,0.06397
2867.99972,0.06429
2866.07100,0.06435
2864.14229,0.06420
2862.21357,0.06419
2860.28486,0.06436
2858.35614,0.06443
2856.42743,0.06437
2854.49871,0.06435
2852.57000,0.06439
2850.64128,0.06437
2848.71257,0.06414
2846.78385,0.06385
2844.85514,0.06387
2842.92642,0.06404
2840.99771,0.06392
2839.06899,0.06357
2837.14027,0.06329
2835.21156,0.06319
2833.28284,0.06330
2831.35413,0.06353
2829.42541,0.06355
2827.49670,0.06338
2825.56798,0.06336
2823.63927,0.06348
2821.71055,0.06341
2819.78184,0.06319
2817.85312,0.06305
2815.92441,0.06313
2813.99569,0.06334
2812.06698,0.06343
2810.13826,0.06338
2808.20954,0.06351
2806.28083,0.06376
2804.35211,0.06372
2802.42340,0.06336
2800.49468,0.06310
2798.56597,0.06306
2796.63725,0.06304
2794.70854,0.06303
2792.77982,0.06317
2790.85111,0.06339
2788.92239,0.06346
2786.99368,0.06324
2785.06496,0.06296
2783.13624,0.06295
2781.20753,0.06321
2779.27881,0.06343
2777.35010,0.06353
2775.42138,0.06356
2773.49267,0.06340
2771.56395,0.06320
2769.63524,0.06319
2767.70652,0.06313
2765.77781,0.06295
2763.84909,0.06294
2761.92038,0.06318
2759.99166,0.06343
2758.06295,0.06342
2756.13423,0.06332
2754.20551,0.06337
2752.27680,0.06340
2750.34808,0.06324
2748.41937,0.06317
2746.49065,0.06323
2744.56194,0.06310
2742.63322,0.06291
2740.70451,0.06287
2738.77579,0.06292
2736.84708,0.06313
2734.91836,0.06342
2732.98965,0.06348
2731.06093,0.06342
2729.13222,0.06349
2727.20350,0.06356
2725.27478,0.06354
2723.34607,0.06346
2721.41735,0.06338
2719.48864,0.06333
2717.55992,0.06325
2715.63121,0.06330
2713.70249,0.06357
2711.77378,0.06371
2709.84506,0.06357
2707.91635,0.06333
2705.98763,0.06308
2704.05892,0.06293
2702.13020,0.06296
2700.20149,0.06304
2698.27277,0.06306
2696.34405,0.06315
2694.41534,0.06339
2692.48662,0.06355
2690.55791,0.06350
2688.62919,0.06331
2686.70048,0.06306
2684.77176,0.06287
2682.84305,0.06289
2680.91433,0.06297
2678.98562,0.06292
2677.05690,0.06292
2675.12819,0.06304
2673.19947,0.06317
2671.27075,0.06327
2669.34204,0.06320
2667.41332,0.06302
2665.48461,0.06297
2663.55589,0.06299
2661.62718,0.06294
2659.69846,0.06282
2657.76975,0.06269
2655.84103,0.06261
2653.91232,0.06264
2651.98360,0.06274
2650.05489,0.06281
2648.12617,0.06299
2646.19746,0.06322
2644.26874,0.06319
2642.34002,0.06300
2640.41131,0.06295
2638.48259,0.06304
2636.55388,0.06311
2634.62516,0.06314
2632.69645,0.06301
2630.76773,0.06272
2628.83902,0.06255
2626.91030,0.06265
2624.98159,0.06276
2623.05287,0.06277
2621.12416,0.06269
2619.19544,0.06262
2617.26673,0.06275
2615.33801,0.06305
2613.40929,0.06321
2611.48058,0.06311
2609.55186,0.06296
2607.62315,0.06291
2605.69443,0.06297
2603.76572,0.06317
2601.83700,0.06334
2599.90829,0.06330
2597.97957,0.06312
2596.05086,0.06294
2594.12214,0.06290
2592.19343,0.06303
2590.26471,0.06311
2588.33599,0.06302
2586.40728,0.06287
2584.47856,0.06289
2582.54985,0.06304
2580.62113,0.06308
2578.69242,0.06298
2576.76370,0.06294
2574.83499,0.06298
2572.90627,0.06306
2570.97756,0.06319
2569.04884,0.06336
2567.12013,0.06338
2565.19141,0.06316
2563.26270,0.06293
2561.33398,0.06278
2559.40526,0.06258
2557.47655,0.06239
2555.54783,0.06235
2553.61912,0.06245
2551.69040,0.06262
2549.76169,0.06277
2547.83297,0.06283
2545.90426,0.06284
2543.97554,0.06290
2542.04683,0.06304
2540.11811,0.06301
2538.18940,0.06276
2536.26068,0.06264
2534.33197,0.06264
2532.40325,0.06257
2530.47453,0.06261
2528.54582,0.06296
2526.61710,0.06324
2524.68839,0.06315
2522.75967,0.06292
2520.83096,0.06273
2518.90224,0.06270
2516.97353,0.06284
2515.04481,0.06284
2513.11610,0.06263
2511.18738,0.06249
2509.25867,0.06245
2507.32995,0.06247
2505.40124,0.06265
2503.47252,0.06280
2501.54380,0.06280
2499.61509,0.06285
2497.68637,0.06300
2495.75766,0.06322
2493.82894,0.06341
2491.90023,0.06331
2489.97151,0.06299
2488.04280,0.06290
2486.11408,0.06298
2484.18537,0.06299
2482.25665,0.06298
2480.32794,0.06300
2478.39922,0.06298
2476.47050,0.06293
2474.54179,0.06288
2472.61307,0.06280
2470.68436,0.06274
2468.75564,0.06282
2466.82693,0.06292
2464.89821,0.06285
2462.96950,0.06276
2461.04078,0.06279
2459.11207,0.06278
2457.18335,0.06272
2455.25464,0.06277
2453.32592,0.06298
2451.39721,0.06320
2449.46849,0.06324
2447.53977,0.06313
2445.61106,0.06304
2443.68234,0.06299
2441.75363,0.06297
2439.82491,0.06299
2437.89620,0.06294
2435.96748,0.06284
2434.03877,0.06269
2432.11005,0.06249
2430.18134,0.06241
2428.25262,0.06254
2426.32391,0.06266
2424.39519,0.06263
2422.46648,0.06260
2420.53776,0.06271
2418.60904,0.06284
2416.68033,0.06292
2414.75161,0.06295
2412.82290,0.06297
2410.89418,0.06299
2408.96547,0.06294
2407.03675,0.06269
2405.10804,0.06234
2403.17932,0.06215
2401.25061,0.06223
2399.32189,0.06249
2397.39318,0.06277
2395.46446,0.06293
2393.53574,0.06293
2391.60703,0.06289
2389.67831,0.06285
2387.74960,0.06282
2385.82088,0.06277
2383.89217,0.06271
2381.96345,0.06266
2380.03474,0.06262
2378.10602,0.06265
2376.17731,0.06270
2374.24859,0.06257
2372.31988,0.06258
2370.39116,0.06344
2368.46245,0.06463
2366.53373,0.06525
2364.60501,0.06523
2362.67630,0.06424
2360.74758,0.06293
2358.81887,0.06201
2356.89015,0.06097
2354.96144,0.06050
2353.03272,0.06102
2351.10401,0.06178
2349.17529,0.06232
2347.24658,0.06254
2345.31786,0.06254
2343.38915,0.06259
2341.46043,0.06253
2339.53172,0.06219
2337.60300,0.06219
2335.67428,0.06252
2333.74557,0.06247
2331.81685,0.06244
2329.88814,0.06284
2327.95942,0.06292
2326.03071,0.06279
2324.10199,0.06316
2322.17328,0.06363
2320.24456,0.06355
2318.31585,0.06300
2316.38713,0.06252
2314.45842,0.06239
2312.52970,0.06251
2310.60099,0.06261
2308.67227,0.06260
2306.74355,0.06266
2304.81484,0.06286
2302.88612,0.06295
2300.95741,0.06284
2299.02869,0.06276
2297.09998,0.06281
2295.17126,0.06274
2293.24255,0.06255
2291.31383,0.06249
2289.38512,0.06254
2287.45640,0.06256
2285.52769,0.06256
2283.59897,0.06253
2281.67025,0.06242
2279.74154,0.06234
2277.81282,0.06240
2275.88411,0.06258
2273.95539,0.06269
2272.02668,0.06267
2270.09796,0.06257
2268.16925,0.06237
2266.24053,0.06226
2264.31182,0.06241
2262.38310,0.06261
2260.45439,0.06269
2258.52567,0.06266
2256.59696,0.06248
2254.66824,0.06234
2252.73952,0.06237
2250.81081,0.06238
2248.88209,0.06225
2246.95338,0.06212
2245.02466,0.06213
2243.09595,0.06229
2241.16723,0.06240
2239.23852,0.06241
2237.30980,0.06241
2235.38109,0.06237
2233.45237,0.06220
2231.52366,0.06200
2229.59494,0.06190
2227.66623,0.06190
2225.73751,0.06204
2223.80879,0.06228
2221.88008,0.06235
2219.95136,0.06226
2218.02265,0.06223
2216.09393,0.06226
2214.16522,0.06225
2212.23650,0.06219
2210.30779,0.06225
2208.37907,0.06241
2206.45036,0.06246
2204.52164,0.06230
2202.59293,0.06216
2200.66421,0.06221
2198.73549,0.06232
2196.80678,0.06233
2194.87806,0.06230
2192.94935,0.06233
2191.02063,0.06235
2189.09192,0.06229
2187.16320,0.06218
2185.23449,0.06214
2183.30577,0.06217
2181.37706,0.06226
2179.44834,0.06234
2177.51963,0.06230
2175.59091,0.06213
2173.66220,0.06207
2171.73348,0.06221
2169.80476,0.06233
2167.87605,0.06225
2165.94733,0.06214
2164.01862,0.06220
2162.08990,0.06229
2160.16119,0.06221
2158.23247,0.06203
2156.30376,0.06191
2154.37504,0.06177
2152.44633,0.06159
2150.51761,0.06159
2148.58890,0.06184
2146.66018,0.06194
2144.73147,0.06171
2142.80275,0.06147
2140.87403,0.06142
2138.94532,0.06149
2137.01660,0.06161
2135.08789,0.06168
2133.15917,0.06164
2131.23046,0.06151
2129.30174,0.06146
2127.37303,0.06151
2125.44431,0.06159
2123.51560,0.06162
2121.58688,0.06159
2119.65817,0.06153
2117.72945,0.06153
2115.80074,0.06157
2113.87202,0.06155
2111.94330,0.06154
2110.01459,0.06158
2108.08587,0.06151
2106.15716,0.06135
2104.22844,0.06144
2102.29973,0.06173
2100.37101,0.06179
2098.44230,0.06168
2096.51358,0.06164
2094.58487,0.06162
2092.65615,0.06155
2090.72744,0.06151
2088.79872,0.06154
2086.87000,0.06156
2084.94129,0.06149
2083.01257,0.06134
2081.08386,0.06130
2079.15514,0.06144
2077.22643,0.06161
2075.29771,0.06168
2073.36900,0.06154
2071.44028,0.06122
2069.51157,0.06107
2067.58285,0.06114
2065.65414,0.06124
2063.72542,0.06125
2061.79671,0.06125
2059.86799,0.06122
2057.93927,0.06112
2056.01056,0.06108
2054.08184,0.06120
2052.15313,0.06135
2050.22441,0.06143
2048.29570,0.06134
2046.36698,0.06114
2044.43827,0.06105
2042.50955,0.06117
2040.58084,0.06137
2038.65212,0.06150
2036.72341,0.06149
2034.79469,0.06139
2032.86598,0.06126
2030.93726,0.06111
2029.00854,0.06099
2027.07983,0.06091
2025.15111,0.06090
2023.22240,0.06095
2021.29368,0.06100
2019.36497,0.06105
2017.43625,0.06106
2015.50754,0.06113
2013.57882,0.06135
2011.65011,0.06149
2009.72139,0.06134
2007.79268,0.06104
2005.86396,0.06085
2003.93524,0.06086
2002.00653,0.06102
2000.07781,0.06113
1998.14910,0.06101
1996.22038,0.06074
1994.29167,0.06054
1992.36295,0.06056
1990.43424,0.06071
1988.50552,0.06081
1986.57681,0.06077
1984.64809,0.06064
1982.71938,0.06060
1980.79066,0.06065
1978.86195,0.06060
1976.93323,0.06050
1975.00451,0.06041
1973.07580,0.06021
1971.14708,0.06001
1969.21837,0.06004
1967.28965,0.06019
1965.36094,0.06022
1963.43222,0.06018
1961.50351,0.06006
1959.57479,0.05985
1957.64608,0.05974
1955.71736,0.05988
1953.78865,0.06016
1951.85993,0.06035
1949.93122,0.06032
1948.00250,0.06024
1946.07378,0.06027
1944.14507,0.06033
1942.21635,0.06019
1940.28764,0.05996
1938.35892,0.05982
1936.43021,0.05965
1934.50149,0.05947
1932.57278,0.05947
1930.64406,0.05960
1928.71535,0.05967
1926.78663,0.05964
1924.85792,0.05955
1922.92920,0.05941
1921.00049,0.05935
1919.07177,0.05941
1917.14305,0.05937
1915.21434,0.05918
1913.28562,0.05906
1911.35691,0.05907
1909.42819,0.05905
1907.49948,0.05891
1905.57076,0.05881
1903.64205,0.05887
1901.71333,0.05902
1899.78462,0.05917
1897.85590,0.05922
1895.92719,0.05913
1893.99847,0.05897
1892.06975,0.05884
1890.14104,0.05873
1888.21232,0.05863
1886.28361,0.05858
1884.35489,0.05854
1882.42618,0.05841
1880.49746,0.05822
1878.56875,0.05813
1876.64003,0.05803
1874.71132,0.05789
1872.78260,0.05791
1870.85389,0.05801
1868.92517,0.05791
1866.99646,0.05768
1865.06774,0.05762
1863.13902,0.05758
1861.21031,0.05739
1859.28159,0.05714
1857.35288,0.05700
1855.42416,0.05700
1853.49545,0.05696
1851.56673,0.05677
1849.63802,0.05652
1847.70930,0.05635
1845.78059,0.05620
1843.85187,0.05592
1841.92316,0.05569
1839.99444,0.05557
1838.06573,0.05544
1836.13701,0.05530
1834.20829,0.05514
1832.27958,0.05488
1830.35086,0.05447
1828.42215,0.05408
1826.49343,0.05376
1824.56472,0.05328
1822.63600,0.05279
1820.70729,0.05246
1818.77857,0.05206
1816.84986,0.05148
1814.92114,0.05100
1812.99243,0.05078
1811.06371,0.05061
1809.13499,0.05006
1807.20628,0.04911
1805.27756,0.04817
1803.34885,0.04737
1801.42013,0.04646
1799.49142,0.04528
1797.56270,0.04402
1795.63399,0.04291
1793.70527,0.04216
1791.77656,0.04213
1789.84784,0.04296
1787.91913,0.04446
1785.99041,0.04695
1784.06170,0.05060
1782.13298,0.05502
1780.20426,0.06009
1778.27555,0.06524
1776.34683,0.07006
1774.41812,0.07500
1772.48940,0.08076
1770.56069,0.08577
1768.63197,0.08806
1766.70326,0.08861
1764.77454,0.08819
1762.84583,0.08679
1760.91711,0.08455
1758.98840,0.08245
1757.05968,0.08034
1755.13097,0.07847
1753.20225,0.07731
1751.27353,0.07601
1749.34482,0.07408
1747.41610,0.07253
1745.48739,0.07159
1743.55867,0.07082
1741.62996,0.07014
1739.70124,0.06960
1737.77253,0.06940
1735.84381,0.06935
1733.91510,0.06874
1731.98638,0.06786
1730.05767,0.06753
1728.12895,0.06742
1726.20024,0.06732
1724.27152,0.06713
1722.34280,0.06691
1720.41409,0.06661
1718.48537,0.06575
1716.55666,0.06442
1714.62794,0.06435
1712.69923,0.06480
1710.77051,0.06501
1708.84180,0.06496
1706.91308,0.06464
1704.98437,0.06435
1703.05565,0.06445
1701.12694,0.06436
1699.19822,0.06322
1697.26950,0.06207
1695.34079,0.06203
1693.41207,0.06254
1691.48336,0.06299
1689.55464,0.06307
1687.62593,0.06280
1685.69721,0.06232
1683.76850,0.06147
1681.83978,0.06125
1679.91107,0.06159
1677.98235,0.06182
1676.05364,0.06177
1674.12492,0.06160
1672.19621,0.06149
1670.26749,0.06121
1668.33877,0.06069
1666.41006,0.06053
1664.48134,0.06068
1662.55263,0.06073
1660.62391,0.06059
1658.69520,0.06075
1656.76648,0.06131
1654.83777,0.06193
1652.90905,0.06149
1650.98034,0.06069
1649.05162,0.06056
1647.12291,0.06023
1645.19419,0.05980
1643.26548,0.05977
1641.33676,0.05995
1639.40804,0.06030
1637.47933,0.06059
1635.55061,0.06024
1633.62190,0.05976
1631.69318,0.05963
1629.76447,0.05958
1627.83575,0.05942
1625.90704,0.05905
1623.97832,0.05876
1622.04961,0.05885
1620.12089,0.05907
1618.19218,0.05900
1616.26346,0.05842
1614.33474,0.05810
1612.40603,0.05817
1610.47731,0.05818
1608.54860,0.05805
1606.61988,0.05813
1604.69117,0.05853
1602.76245,0.05895
1600.83374,0.05915
1598.90502,0.05927
1596.97631,0.05933
1595.04759,0.05926
1593.11888,0.05924
1591.19016,0.05944
1589.26145,0.05975
1587.33273,0.05982
1585.40401,0.05948
1583.47530,0.05899
1581.54658,0.05877
1579.61787,0.05875
1577.68915,0.05861
1575.76044,0.05819
1573.83172,0.05801
1571.90301,0.05797
1569.97429,0.05774
1568.04558,0.05747
1566.11686,0.05723
1564.18815,0.05699
1562.25943,0.05696
1560.33072,0.05691
1558.40200,0.05601
1556.47328,0.05553
1554.54457,0.05539
1552.61585,0.05512
1550.68714,0.05484
1548.75842,0.05455
1546.82971,0.05439
1544.90099,0.05419
1542.97228,0.05338
1541.04356,0.05202
1539.11485,0.05199
1537.18613,0.05255
1535.25742,0.05266
1533.32870,0.05210
1531.39999,0.05142
1529.47127,0.05105
1527.54255,0.05056
1525.61384,0.04996
1523.68512,0.04914
1521.75641,0.04694
1519.82769,0.04453
1517.89898,0.04314
1515.97026,0.04198
1514.04155,0.04189
1512.11283,0.04305
1510.18412,0.04501
1508.25540,0.05005
1506.32669,0.06341
1504.39797,0.07019
1502.46925,0.07191
1500.54054,0.07271
1498.61182,0.07284
1496.68311,0.07217
1494.75439,0.07133
1492.82568,0.07080
1490.89696,0.06994
1488.96825,0.06811
1487.03953,0.06655
1485.11082,0.06580
1483.18210,0.06512
1481.25339,0.06416
1479.32467,0.06328
1477.39596,0.06281
1475.46724,0.06253
1473.53852,0.06204
1471.60981,0.06135
1469.68109,0.06102
1467.75238,0.06096
1465.82366,0.06098
1463.89495,0.06112
1461.96623,0.06138
1460.03752,0.06151
1458.10880,0.06105
1456.18009,0.06026
1454.25137,0.06011
1452.32266,0.05994
1450.39394,0.05972
1448.46523,0.05955
1446.53651,0.05945
1444.60779,0.05933
1442.67908,0.05900
1440.75036,0.05860
1438.82165,0.05839
1436.89293,0.05811
1434.96422,0.05765
1433.03550,0.05740
1431.10679,0.05712
1429.17807,0.05662
1427.24936,0.05618
1425.32064,0.05583
1423.39193,0.05535
1421.46321,0.05480
1419.53449,0.05409
1417.60578,0.05327
1415.67706,0.05295
1413.74835,0.05320
1411.81963,0.05396
1409.89092,0.05497
1407.96220,0.05582
1406.03349,0.05637
1404.10477,0.05660
1402.17606,0.05660
1400.24734,0.05640
1398.31863,0.05586
1396.38991,0.05511
1394.46120,0.05433
1392.53248,0.05365
1390.60376,0.05330
1388.67505,0.05340
1386.74633,0.05390
1384.81762,0.05429
1382.88890,0.05432
1380.96019,0.05408
1379.03147,0.05362
1377.10276,0.05311
1375.17404,0.05243
1373.24533,0.05145
1371.31661,0.05064
1369.38790,0.05013
1367.45918,0.05015
1365.53047,0.05113
1363.60175,0.05273
1361.67303,0.05368
1359.74432,0.05335
1357.81560,0.05260
1355.88689,0.05187
1353.95817,0.05128
1352.02946,0.05084
1350.10074,0.05045
1348.17203,0.04993
1346.24331,0.04933
1344.31460,0.04881
1342.38588,0.04835
1340.45717,0.04788
1338.52845,0.04740
1336.59974,0.04687
1334.67102,0.04628
1332.74230,0.04567
1330.81359,0.04511
1328.88487,0.04468
1326.95616,0.04429
1325.02744,0.04380
1323.09873,0.04319
1321.17001,0.04234
1319.24130,0.04128
1317.31258,0.04048
1315.38387,0.03999
1313.45515,0.03954
1311.52644,0.03919
1309.59772,0.03893
1307.66900,0.03856
1305.74029,0.03791
1303.81157,0.03706
1301.88286,0.03634
1299.95414,0.03574
1298.02543,0.03507
1296.09671,0.03460
1294.16800,0.03457
1292.23928,0.03478
1290.31057,0.03490
1288.38185,0.03468
1286.45314,0.03411
1284.52442,0.03324
1282.59571,0.03204
1280.66699,0.03066
1278.73827,0.02910
1276.80956,0.02731
1274.88084,0.02544
1272.95213,0.02368
1271.02341,0.02201
1269.09470,0.02053
1267.16598,0.01965
1265.23727,0.02019
1263.30855,0.02286
1261.37984,0.02814
1259.45112,0.03640
1257.52241,0.04697
1255.59369,0.05850
1253.66498,0.06973
1251.73626,0.07967
1249.80754,0.08789
1247.87883,0.09445
1245.95011,0.09969
1244.02140,0.10389
1242.09268,0.10761
1240.16397,0.11152
1238.23525,0.11567
1236.30654,0.11991
1234.37782,0.12420
1232.44911,0.12823
1230.52039,0.13172
1228.59168,0.13475
1226.66296,0.13712
1224.73424,0.13825
1222.80553,0.13760
1220.87681,0.13494
1218.94810,0.13039
1217.01938,0.12403
1215.09067,0.11580
1213.16195,0.10591
1211.23324,0.09507
1209.30452,0.08473
1207.37581,0.07681
1205.44709,0.07376
1203.51838,0.07817
1201.58966,0.09049
1199.66095,0.10809
1197.73223,0.12709
1195.80351,0.14413
1193.87480,0.15690
1191.94608,0.16424
1190.01737,0.16569
1188.08865,0.16120
1186.15994,0.15186
1184.23122,0.14018
1182.30251,0.12889
1180.37379,0.11946
1178.44508,0.11154
1176.51636,0.10380
1174.58765,0.09564
1172.65893,0.08866
1170.73022,0.08669
1168.80150,0.09379
1166.87278,0.11069
1164.94407,0.13186
1163.01535,0.14845
1161.08664,0.15527
1159.15792,0.15318
1157.22921,0.14628
1155.30049,0.13848
1153.37178,0.13162
1151.44306,0.12611
1149.51435,0.12173
1147.58563,0.11797
1145.65692,0.11471
1143.72820,0.11201
1141.79949,0.10960
1139.87077,0.10731
1137.94205,0.10514
1136.01334,0.10314
1134.08462,0.10143
1132.15591,0.09999
1130.22719,0.09851
1128.29848,0.09690
1126.36976,0.09544
1124.44105,0.09430
1122.51233,0.09327
1120.58362,0.09200
1118.65490,0.09058
1116.72619,0.08949
1114.79747,0.08893
1112.86875,0.08861
1110.94004,0.08845
1109.01132,0.08850
1107.08261,0.08842
1105.15389,0.08818
1103.22518,0.08831
1101.29646,0.08876
1099.36775,0.08897
1097.43903,0.08837
1095.51032,0.08680
1093.58160,0.08472
1091.65289,0.08260
1089.72417,0.08036
1087.79546,0.07825
1085.86674,0.07758
1083.93802,0.08000
1082.00931,0.08544
1080.08059,0.09137
1078.15188,0.09480
1076.22316,0.09492
1074.29445,0.09315
1072.36573,0.09090
1070.43702,0.08884
1068.50830,0.08725
1066.57959,0.08608
1064.65087,0.08528
1062.72216,0.08465
1060.79344,0.08376
1058.86473,0.08293
1056.93601,0.08269
1055.00729,0.08255
1053.07858,0.08199
1051.14986,0.08110
1049.22115,0.08018
1047.29243,0.07948
1045.36372,0.07888
1043.43500,0.07821
1041.50629,0.07752
1039.57757,0.07675
1037.64886,0.07590
1035.72014,0.07519
1033.79143,0.07452
1031.86271,0.07352
1029.93399,0.07196
1028.00528,0.06986
1026.07656,0.06764
1024.14785,0.06562
1022.21913,0.06374
1020.29042,0.06315
1018.36170,0.06753
1016.43299,0.07891
1014.50427,0.09153
1012.57556,0.09730
1010.64684,0.09617
1008.71813,0.09382
1006.78941,0.09322
1004.86070,0.09345
1002.93198,0.09285
1001.00326,0.09125
999.07455,0.08953
997.14583,0.08824
995.21712,0.08738
993.28840,0.08685
991.35969,0.08655
989.43097,0.08624
987.50226,0.08562
985.57354,0.08481
983.64483,0.08405
981.71611,0.08333
979.78740,0.08262
977.85868,0.08192
975.92997,0.08130
974.00125,0.08089
972.07253,0.08053
970.14382,0.08019
968.21510,0.08002
966.28639,0.07986
964.35767,0.07957
962.42896,0.07937
960.50024,0.07920
958.57153,0.07888
956.64281,0.07846
954.71410,0.07824
952.78538,0.07842
950.85667,0.07857
948.92795,0.07824
946.99924,0.07756
945.07052,0.07685
943.14180,0.07634
941.21309,0.07621
939.28437,0.07636
937.35566,0.07647
935.42694,0.07630
933.49823,0.07602
931.56951,0.07585
929.64080,0.07576
927.71208,0.07573
925.78337,0.07559
923.85465,0.07509
921.92594,0.07446
919.99722,0.07415
918.06850,0.07419
916.13979,0.07434
914.21107,0.07435
912.28236,0.07414
910.35364,0.07391
908.42493,0.07375
906.49621,0.07346
904.56750,0.07280
902.63878,0.07192
900.71007,0.07121
898.78135,0.07070
896.85264,0.07014
894.92392,0.06949
892.99521,0.06913
891.06649,0.06976
889.13777,0.07147
887.20906,0.07341
885.28034,0.07462
883.35163,0.07510
881.42291,0.07548
879.49420,0.07563
877.56548,0.07518
875.63677,0.07462
873.70805,0.07421
871.77934,0.07370
869.85062,0.07297
867.92191,0.07208
865.99319,0.07109
864.06448,0.07005
862.13576,0.06899
860.20704,0.06803
858.27833,0.06751
856.34961,0.06732
854.42090,0.06674
852.49218,0.06568
850.56347,0.06509
848.63475,0.06528
846.70604,0.06568
844.77732,0.06608
842.84861,0.06651
840.91989,0.06676
838.99118,0.06710
837.06246,0.06818
835.13375,0.07043
833.20503,0.07387
831.27631,0.07792
829.34760,0.08157
827.41888,0.08382
825.49017,0.08438
823.56145,0.08396
821.63274,0.08339
819.70402,0.08283
817.77531,0.08273
815.84659,0.08341
813.91788,0.08438
811.98916,0.08510
810.06045,0.08509
808.13173,0.08451
806.20301,0.08419
804.27430,0.08393
802.34558,0.08292
800.41687,0.08131
798.48815,0.07984
796.55944,0.07897
794.63072,0.07854
792.70201,0.07805
790.77329,0.07723
788.84458,0.07648
786.91586,0.07618
784.98715,0.07585
783.05843,0.07530
781.12972,0.07472
779.20100,0.07416
777.27228,0.07385
775.34357,0.07395
773.41485,0.07443
771.48614,0.07545
769.55742,0.07693
767.62871,0.07847
765.69999,0.07954
763.77128,0.08000
761.84256,0.08018
759.91385,0.08017
757.98513,0.07992
756.05642,0.07984
754.12770,0.08007
752.19899,0.08035
750.27027,0.08050
748.34155,0.08017
746.41284,0.07932
744.48412,0.07867
742.55541,0.07837
740.62669,0.07783
738.69798,0.07704
736.76926,0.07659
734.84055,0.07668
732.91183,0.07697
730.98312,0.07715
729.05440,0.07715
727.12569,0.07705
725.19697,0.07682
723.26825,0.07650
721.33954,0.07629
719.41082,0.07621
717.48211,0.07607
715.55339,0.07576
713.62468,0.07567
711.69596,0.07613
709.76725,0.07675
707.83853,0.07715
705.90982,0.07724
703.98110,0.07704
702.05239,0.07686
700.12367,0.07701
698.19496,0.07716
696.26624,0.07688
694.33752,0.07637
692.40881,0.07617
690.48009,0.07627
688.55138,0.07623
686.62266,0.07595
684.69395,0.07586
682.76523,0.07647
680.83652,0.07736
678.90780,0.07750
676.97909,0.07665
675.05037,0.07552
673.12166,0.07502
671.19294,0.07523
669.26423,0.07526
667.33551,0.07449
665.40679,0.07432
663.47808,0.07472
661.54936,0.07478
659.62065,0.07440
657.69193,0.07391
655.76322,0.07339
653.83450,0.07328
651.90579,0.07367
649.97707,0.07405
648.04836,0.07392
646.11964,0.07324
644.19093,0.07273
642.26221,0.07238
640.33350,0.07168
638.40478,0.07114
636.47606,0.07101
634.54735,0.07090
632.61863,0.07118
630.68992,0.07191
628.76120,0.07204
626.83249,0.07146
624.90377,0.07123
622.97506,0.07149
621.04634,0.07156
619.11763,0.07142
617.18891,0.07114
615.26020,0.07037
613.33148,0.06958
611.40276,0.06929
609.47405,0.06877
607.54533,0.06779
605.61662,0.06734
603.68790,0.06733
601.75919,0.06746
599.83047,0.06841
