7496.91655,0.02799
7494.98784,0.02425
7493.05912,0.02774
7491.13041,0.03692
7489.20169,0.04028
7487.27297,0.03476
7485.34426,0.03191
7483.41554,0.03690
7481.48683,0.03706
7479.55811,0.02763
7477.62940,0.02028
7475.70068,0.01916
7473.77197,0.01875
7471.84325,0.02197
7469.91454,0.02887
7467.98582,0.03036
7466.05711,0.02009
7464.12839,0.01062
7462.19968,0.01326
7460.27096,0.02081
7458.34224,0.02069
7456.41353,0.02082
7454.48481,0.02211
7452.55610,0.02102
7450.62738,0.01874
7448.69867,0.02168
7446.76995,0.02738
7444.84124,0.02911
7442.91252,0.02782
7440.98381,0.02923
7439.05509,0.03150
7437.12638,0.02931
7435.19766,0.02551
7433.26895,0.02772
7431.34023,0.02990
7429.41151,0.03094
7427.48280,0.03589
7425.55408,0.04005
7423.62537,0.03815
7421.69665,0.03177
7419.76794,0.02516
7417.83922,0.02417
7415.91051,0.02698
7413.98179,0.02802
7412.05308,0.02794
7410.12436,0.03049
7408.19565,0.03215
7406.26693,0.02993
7404.33821,0.02813
7402.40950,0.02754
7400.48078,0.02308
7398.55207,0.01658
7396.62335,0.01435
7394.69464,0.01882
7392.76592,0.02732
7390.83721,0.03311
7388.90849,0.03109
7386.97978,0.02511
7385.05106,0.02082
7383.12235,0.02255
7381.19363,0.02940
7379.26492,0.03362
7377.33620,0.03319
7375.40748,0.03175
7373.47877,0.02837
7371.55005,0.02476
7369.62134,0.02387
7367.69262,0.02510
7365.76391,0.02749
7363.83519,0.03053
7361.90648,0.03074
7359.97776,0.02780
7358.04905,0.02522
7356.12033,0.02631
7354.19162,0.02752
7352.26290,0.02573
7350.33419,0.02220
7348.40547,0.02200
7346.47675,0.02909
7344.54804,0.03526
7342.61932,0.03029
7340.69061,0.02217
7338.76189,0.02345
7336.83318,0.02881
7334.90446,0.02996
7332.97575,0.02961
7331.04703,0.03061
7329.11832,0.03057
7327.18960,0.02833
7325.26089,0.02564
7323.33217,0.02180
7321.40346,0.02073
7319.47474,0.02110
7317.54602,0.02208
7315.61731,0.02475
7313.68859,0.02902
7311.75988,0.02951
7309.83116,0.02685
7307.90245,0.02638
7305.97373,0.02368
7304.04502,0.01853
7302.11630,0.02192
7300.18759,0.02657
7298.25887,0.02335
7296.33016,0.02305
7294.40144,0.03044
7292.47272,0.03234
7290.54401,0.02653
7288.61529,0.02305
7286.68658,0.02469
7284.75786,0.02542
7282.82915,0.02652
7280.90043,0.02920
7278.97172,0.02894
7277.04300,0.02555
7275.11429,0.02326
7273.18557,0.02171
7271.25686,0.01990
7269.32814,0.01816
7267.39943,0.01866
7265.47071,0.02185
7263.54199,0.02491
7261.61328,0.02786
7259.68456,0.02994
7257.75585,0.02834
7255.82713,0.02481
7253.89842,0.02494
7251.96970,0.02947
7250.04099,0.02882
7248.11227,0.02552
7246.18356,0.02579
7244.25484,0.02905
7242.32613,0.03183
7240.39741,0.02956
7238.46870,0.02220
7236.53998,0.01783
7234.61126,0.01944
7232.68255,0.02166
7230.75383,0.02204
7228.82512,0.02327
7226.89640,0.02573
7224.96769,0.02725
7223.03897,0.02444
7221.11026,0.02465
7219.18154,0.02959
7217.25283,0.02822
7215.32411,0.02161
7213.39540,0.02002
7211.46668,0.02073
7209.53796,0.01941
7207.60925,0.01936
7205.68053,0.01575
7203.75182,0.00518
7201.82310,0.00884
7199.89439,0.02312
7197.96567,0.03044
7196.03696,0.02823
7194.10824,0.02472
7192.17953,0.02239
7190.25081,0.02035
7188.32210,0.01905
7186.39338,0.01935
7184.46467,0.01939
7182.53595,0.02150
7180.60723,0.02586
7178.67852,0.02589
7176.74980,0.02336
7174.82109,0.02159
7172.89237,0.01860
7170.96366,0.01805
7169.03494,0.02416
7167.10623,0.03152
7165.17751,0.03286
7163.24880,0.03245
7161.32008,0.03235
7159.39137,0.02968
7157.46265,0.02589
7155.53394,0.02432
7153.60522,0.02648
7151.67650,0.02879
7149.74779,0.02919
7147.81907,0.03014
7145.89036,0.02982
7143.96164,0.02827
7142.03293,0.02793
7140.10421,0.02664
7138.17550,0.02423
7136.24678,0.02340
7134.31807,0.02245
7132.38935,0.02089
7130.46064,0.02099
7128.53192,0.02332
7126.60321,0.02731
7124.67449,0.03215
7122.74577,0.03390
7120.81706,0.03056
7118.88834,0.02361
7116.95963,0.02034
7115.03091,0.02407
7113.10220,0.02907
7111.17348,0.03166
7109.24477,0.03171
7107.31605,0.02832
7105.38734,0.02315
7103.45862,0.01963
7101.52991,0.01876
7099.60119,0.01972
7097.67247,0.02185
7095.74376,0.02249
7093.81504,0.02344
7091.88633,0.02625
7089.95761,0.03044
7088.02890,0.03209
7086.10018,0.02984
7084.17147,0.02673
7082.24275,0.02694
7080.31404,0.02886
7078.38532,0.02839
7076.45661,0.02566
7074.52789,0.02472
7072.59918,0.02472
7070.67046,0.02251
7068.74174,0.02150
7066.81303,0.02352
7064.88431,0.02368
7062.95560,0.02112
7061.02688,0.01903
7059.09817,0.01929
7057.16945,0.02152
7055.24074,0.02506
7053.31202,0.02877
7051.38331,0.02823
7049.45459,0.02213
7047.52588,0.01804
7045.59716,0.01950
7043.66845,0.02288
7041.73973,0.02352
7039.81101,0.02189
7037.88230,0.02130
7035.95358,0.02176
7034.02487,0.02078
7032.09615,0.02114
7030.16744,0.02126
7028.23872,0.01864
7026.31001,0.01748
7024.38129,0.02055
7022.45258,0.02471
7020.52386,0.02707
7018.59515,0.02593
7016.66643,0.02568
7014.73771,0.02908
7012.80900,0.03046
7010.88028,0.02725
7008.95157,0.02594
7007.02285,0.02730
7005.09414,0.02522
7003.16542,0.02187
7001.23671,0.02284
6999.30799,0.02325
6997.37928,0.01983
6995.45056,0.01821
6993.52185,0.01915
6991.59313,0.01969
6989.66442,0.02259
6987.73570,0.02701
6985.80698,0.02804
6983.87827,0.02519
6981.94955,0.02287
6980.02084,0.02242
6978.09212,0.02089
6976.16341,0.01902
6974.23469,0.02054
6972.30598,0.02310
6970.37726,0.02208
6968.44855,0.02033
6966.51983,0.02152
6964.59112,0.02468
6962.66240,0.02711
6960.73369,0.02654
6958.80497,0.02441
6956.87625,0.02210
6954.94754,0.01992
6953.01882,0.01892
6951.09011,0.01970
6949.16139,0.02063
6947.23268,0.01977
6945.30396,0.01942
6943.37525,0.02244
6941.44653,0.02502
6939.51782,0.02573
6937.58910,0.02785
6935.66039,0.03100
6933.73167,0.03097
6931.80296,0.02852
6929.87424,0.02707
6927.94552,0.02729
6926.01681,0.02706
6924.08809,0.02763
6922.15938,0.02872
6920.23066,0.02857
6918.30195,0.02803
6916.37323,0.02917
6914.44452,0.03061
6912.51580,0.02985
6910.58709,0.02681
6908.65837,0.02378
6906.72966,0.02292
6904.80094,0.02386
6902.87222,0.02503
6900.94351,0.02706
6899.01479,0.02983
6897.08608,0.03137
6895.15736,0.02873
6893.22865,0.02481
6891.29993,0.02348
6889.37122,0.02275
6887.44250,0.02136
6885.51379,0.02269
6883.58507,0.02696
6881.65636,0.03062
6879.72764,0.03016
6877.79893,0.02686
6875.87021,0.02457
6873.94149,0.02582
6872.01278,0.02707
6870.08406,0.02526
6868.15535,0.02431
6866.22663,0.02611
6864.29792,0.02637
6862.36920,0.02584
6860.44049,0.02716
6858.51177,0.02770
6856.58306,0.02706
6854.65434,0.02807
6852.72563,0.02792
6850.79691,0.02435
6848.86820,0.02176
6846.93948,0.02214
6845.01076,0.01996
6843.08205,0.01702
6841.15333,0.01955
6839.22462,0.02432
6837.29590,0.02539
6835.36719,0.02406
6833.43847,0.02304
6831.50976,0.02170
6829.58104,0.02006
6827.65233,0.01929
6825.72361,0.01782
6823.79490,0.01683
6821.86618,0.01989
6819.93746,0.02620
6818.00875,0.02985
6816.08003,0.02843
6814.15132,0.02542
6812.22260,0.02357
6810.29389,0.02449
6808.36517,0.02701
6806.43646,0.02632
6804.50774,0.02323
6802.57903,0.02269
6800.65031,0.02568
6798.72160,0.02769
6796.79288,0.02600
6794.86417,0.02445
6792.93545,0.02720
6791.00673,0.02972
6789.07802,0.02696
6787.14930,0.02288
6785.22059,0.02326
6783.29187,0.02611
6781.36316,0.02622
6779.43444,0.02375
6777.50573,0.02368
6775.57701,0.02744
6773.64830,0.03152
6771.71958,0.03185
6769.79087,0.02847
6767.86215,0.02443
6765.93344,0.02215
6764.00472,0.02244
6762.07600,0.02556
6760.14729,0.02890
6758.21857,0.02788
6756.28986,0.02400
6754.36114,0.02201
6752.43243,0.02225
6750.50371,0.02437
6748.57500,0.02640
6746.64628,0.02796
6744.71757,0.03104
6742.78885,0.03327
6740.86014,0.03238
6738.93142,0.03069
6737.00271,0.02955
6735.07399,0.02915
6733.14527,0.02772
6731.21656,0.02449
6729.28784,0.02111
6727.35913,0.01824
6725.43041,0.01590
6723.50170,0.01670
6721.57298,0.02118
6719.64427,0.02624
6717.71555,0.02877
6715.78684,0.02878
6713.85812,0.02645
6711.92941,0.02351
6710.00069,0.02258
6708.07197,0.02339
6706.14326,0.02234
6704.21454,0.02080
6702.28583,0.02023
6700.35711,0.01998
6698.42840,0.02113
6696.49968,0.02337
6694.57097,0.02369
6692.64225,0.02261
6690.71354,0.02101
6688.78482,0.01974
6686.85611,0.02223
6684.92739,0.02786
6682.99868,0.03130
6681.06996,0.03026
6679.14124,0.02683
6677.21253,0.02475
6675.28381,0.02518
6673.35510,0.02579
6671.42638,0.02430
6669.49767,0.02103
6667.56895,0.01862
6665.64024,0.02050
6663.71152,0.02610
6661.78281,0.02937
6659.85409,0.02753
6657.92538,0.02531
6655.99666,0.02492
6654.06795,0.02427
6652.13923,0.02366
6650.21051,0.02433
6648.28180,0.02682
6646.35308,0.03132
6644.42437,0.03370
6642.49565,0.03139
6640.56694,0.02683
6638.63822,0.02354
6636.70951,0.02327
6634.78079,0.02403
6632.85208,0.02323
6630.92336,0.02100
6628.99465,0.01838
6627.06593,0.01735
6625.13722,0.01828
6623.20850,0.02078
6621.27978,0.02397
6619.35107,0.02501
6617.42235,0.02277
6615.49364,0.02011
6613.56492,0.01936
6611.63621,0.01980
6609.70749,0.01973
6607.77878,0.02003
6605.85006,0.02008
6603.92135,0.01969
6601.99263,0.02093
6600.06392,0.02403
6598.13520,0.02627
6596.20648,0.02623
6594.27777,0.02428
6592.34905,0.02269
6590.42034,0.02251
6588.49162,0.02274
6586.56291,0.02226
6584.63419,0.02121
6582.70548,0.02028
6580.77676,0.01956
6578.84805,0.01888
6576.91933,0.02040
6574.99062,0.02452
6573.06190,0.02671
6571.13319,0.02463
6569.20447,0.02250
6567.27575,0.02311
6565.34704,0.02347
6563.41832,0.02231
6561.48961,0.02191
6559.56089,0.02241
6557.63218,0.02364
6555.70346,0.02551
6553.77475,0.02567
6551.84603,0.02314
6549.91732,0.02049
6547.98860,0.01982
6546.05989,0.02086
6544.13117,0.02318
6542.20246,0.02604
6540.27374,0.02600
6538.34502,0.02268
6536.41631,0.02011
6534.48759,0.01949
6532.55888,0.02062
6530.63016,0.02321
6528.70145,0.02454
6526.77273,0.02436
6524.84402,0.02476
6522.91530,0.02519
6520.98659,0.02505
6519.05787,0.02599
6517.12916,0.02767
6515.20044,0.02808
6513.27172,0.02598
6511.34301,0.02335
6509.41429,0.02333
6507.48558,0.02507
6505.55686,0.02533
6503.62815,0.02573
6501.69943,0.02704
6499.77072,0.02516
6497.84200,0.01914
6495.91329,0.01476
6493.98457,0.01598
6492.05586,0.02091
6490.12714,0.02447
6488.19843,0.02526
6486.26971,0.02487
6484.34099,0.02521
6482.41228,0.02585
6480.48356,0.02604
6478.55485,0.02554
6476.62613,0.02491
6474.69742,0.02448
6472.76870,0.02407
6470.83999,0.02454
6468.91127,0.02591
6466.98256,0.02573
6465.05384,0.02403
6463.12513,0.02421
6461.19641,0.02619
6459.26770,0.02627
6457.33898,0.02390
6455.41026,0.02196
6453.48155,0.02259
6451.55283,0.02409
6449.62412,0.02441
6447.69540,0.02350
6445.76669,0.02312
6443.83797,0.02441
6441.90926,0.02365
6439.98054,0.01993
6438.05183,0.01857
6436.12311,0.02006
6434.19440,0.02170
6432.26568,0.02282
6430.33697,0.02381
6428.40825,0.02539
6426.47953,0.02671
6424.55082,0.02562
6422.62210,0.02153
6420.69339,0.01750
6418.76467,0.01790
6416.83596,0.02137
6414.90724,0.02254
6412.97853,0.02167
6411.04981,0.02333
6409.12110,0.02595
6407.19238,0.02490
6405.26367,0.02128
6403.33495,0.01914
6401.40623,0.01923
6399.47752,0.02091
6397.54880,0.02334
6395.62009,0.02523
6393.69137,0.02566
6391.76266,0.02523
6389.83394,0.02471
6387.90523,0.02377
6385.97651,0.02261
6384.04780,0.02220
6382.11908,0.02260
6380.19037,0.02411
6378.26165,0.02580
6376.33294,0.02599
6374.40422,0.02474
6372.47550,0.02264
6370.54679,0.02128
6368.61807,0.02348
6366.68936,0.02758
6364.76064,0.02861
6362.83193,0.02689
6360.90321,0.02562
6358.97450,0.02338
6357.04578,0.01997
6355.11707,0.01943
6353.18835,0.02230
6351.25964,0.02435
6349.33092,0.02435
6347.40221,0.02344
6345.47349,0.02253
6343.54477,0.02304
6341.61606,0.02507
6339.68734,0.02585
6337.75863,0.02355
6335.82991,0.02039
6333.90120,0.02056
6331.97248,0.02290
6330.04377,0.02357
6328.11505,0.02352
6326.18634,0.02479
6324.25762,0.02584
6322.32891,0.02594
6320.40019,0.02550
6318.47147,0.02444
6316.54276,0.02375
6314.61404,0.02477
6312.68533,0.02646
6310.75661,0.02797
6308.82790,0.02827
6306.89918,0.02679
6304.97047,0.02424
6303.04175,0.02235
6301.11304,0.02216
6299.18432,0.02379
6297.25561,0.02602
6295.32689,0.02709
6293.39818,0.02626
6291.46946,0.02575
6289.54074,0.02673
6287.61203,0.02669
6285.68331,0.02503
6283.75460,0.02419
6281.82588,0.02389
6279.89717,0.02151
6277.96845,0.01839
6276.03974,0.01921
6274.11102,0.02255
6272.18231,0.02298
6270.25359,0.02086
6268.32488,0.01978
6266.39616,0.01950
6264.46745,0.01903
6262.53873,0.01890
6260.61001,0.01987
6258.68130,0.02228
6256.75258,0.02421
6254.82387,0.02423
6252.89515,0.02317
6250.96644,0.02176
6249.03772,0.02233
6247.10901,0.02430
6245.18029,0.02315
6243.25158,0.02013
6241.32286,0.01993
6239.39415,0.02098
6237.46543,0.02138
6235.53672,0.02279
6233.60800,0.02457
6231.67928,0.02478
6229.75057,0.02386
6227.82185,0.02389
6225.89314,0.02504
6223.96442,0.02516
6222.03571,0.02538
6220.10699,0.02693
6218.17828,0.02703
6216.24956,0.02467
6214.32085,0.02222
6212.39213,0.02233
6210.46342,0.02488
6208.53470,0.02582
6206.60598,0.02401
6204.67727,0.02347
6202.74855,0.02502
6200.81984,0.02543
6198.89112,0.02485
6196.96241,0.02453
6195.03369,0.02376
6193.10498,0.02300
6191.17626,0.02411
6189.24755,0.02618
6187.31883,0.02684
6185.39012,0.02572
6183.46140,0.02374
6181.53269,0.02162
6179.60397,0.02091
6177.67525,0.02227
6175.74654,0.02374
6173.81782,0.02353
6171.88911,0.02343
6169.96039,0.02429
6168.03168,0.02353
6166.10296,0.02056
6164.17425,0.01911
6162.24553,0.02101
6160.31682,0.02357
6158.38810,0.02377
6156.45939,0.02209
6154.53067,0.02122
6152.60196,0.02171
6150.67324,0.02099
6148.74452,0.01899
6146.81581,0.01871
6144.88709,0.01981
6142.95838,0.01946
6141.02966,0.01908
6139.10095,0.02118
6137.17223,0.02445
6135.24352,0.02653
6133.31480,0.02700
6131.38609,0.02703
6129.45737,0.02702
6127.52866,0.02620
6125.59994,0.02530
6123.67122,0.02479
6121.74251,0.02400
6119.81379,0.02307
6117.88508,0.02254
6115.95636,0.02251
6114.02765,0.02271
6112.09893,0.02291
6110.17022,0.02332
6108.24150,0.02338
6106.31279,0.02227
6104.38407,0.02094
6102.45536,0.02101
6100.52664,0.02221
6098.59793,0.02264
6096.66921,0.02234
6094.74049,0.02288
6092.81178,0.02316
6090.88306,0.02256
6088.95435,0.02258
6087.02563,0.02272
6085.09692,0.02210
6083.16820,0.02180
6081.23949,0.02194
6079.31077,0.02188
6077.38206,0.02178
6075.45334,0.02267
6073.52463,0.02451
6071.59591,0.02515
6069.66720,0.02436
6067.73848,0.02390
6065.80976,0.02332
6063.88105,0.02283
6061.95233,0.02394
6060.02362,0.02517
6058.09490,0.02444
6056.16619,0.02304
6054.23747,0.02222
6052.30876,0.02137
6050.38004,0.02054
6048.45133,0.02079
6046.52261,0.02224
6044.59390,0.02412
6042.66518,0.02507
6040.73647,0.02439
6038.80775,0.02310
6036.87903,0.02243
6034.95032,0.02245
6033.02160,0.02322
6031.09289,0.02394
6029.16417,0.02368
6027.23546,0.02275
6025.30674,0.02224
6023.37803,0.02259
6021.44931,0.02287
6019.52060,0.02239
6017.59188,0.02172
6015.66317,0.02086
6013.73445,0.02074
6011.80573,0.02306
6009.87702,0.02649
6007.94830,0.02767
6006.01959,0.02630
6004.09087,0.02459
6002.16216,0.02380
6000.23344,0.02435
5998.30473,0.02545
5996.37601,0.02507
5994.44730,0.02391
5992.51858,0.02366
5990.58987,0.02376
5988.66115,0.02386
5986.73244,0.02384
5984.80372,0.02381
5982.87500,0.02404
5980.94629,0.02377
5979.01757,0.02323
5977.08886,0.02282
5975.16014,0.02272
5973.23143,0.02356
5971.30271,0.02554
5969.37400,0.02711
5967.44528,0.02579
5965.51657,0.02236
5963.58785,0.02002
5961.65914,0.01974
5959.73042,0.02099
5957.80171,0.02270
5955.87299,0.02421
5953.94427,0.02489
5952.01556,0.02490
5950.08684,0.02528
5948.15813,0.02544
5946.22941,0.02422
5944.30070,0.02238
5942.37198,0.02048
5940.44327,0.01952
5938.51455,0.02070
5936.58584,0.02254
5934.65712,0.02400
5932.72841,0.02516
5930.79969,0.02560
5928.87097,0.02709
5926.94226,0.02966
5925.01354,0.02968
5923.08483,0.02653
5921.15611,0.02308
5919.22740,0.02166
5917.29868,0.02264
5915.36997,0.02434
5913.44125,0.02463
5911.51254,0.02319
5909.58382,0.02201
5907.65511,0.02201
5905.72639,0.02218
5903.79768,0.02210
5901.86896,0.02252
5899.94024,0.02412
5898.01153,0.02591
5896.08281,0.02541
5894.15410,0.02252
5892.22538,0.02051
5890.29667,0.02171
5888.36795,0.02453
5886.43924,0.02596
5884.51052,0.02537
5882.58181,0.02457
5880.65309,0.02435
5878.72438,0.02410
5876.79566,0.02357
5874.86695,0.02277
5872.93823,0.02200
5871.00951,0.02200
5869.08080,0.02285
5867.15208,0.02351
5865.22337,0.02290
5863.29465,0.02240
5861.36594,0.02372
5859.43722,0.02498
5857.50851,0.02423
5855.57979,0.02256
5853.65108,0.02155
5851.72236,0.02167
5849.79365,0.02217
5847.86493,0.02250
5845.93622,0.02302
5844.00750,0.02380
5842.07878,0.02471
5840.15007,0.02572
5838.22135,0.02556
5836.29264,0.02400
5834.36392,0.02282
5832.43521,0.02286
5830.50649,0.02324
5828.57778,0.02363
5826.64906,0.02422
5824.72035,0.02467
5822.79163,0.02441
5820.86292,0.02384
5818.93420,0.02351
5817.00548,0.02452
5815.07677,0.02661
5813.14805,0.02748
5811.21934,0.02671
5809.29062,0.02584
5807.36191,0.02518
5805.43319,0.02498
5803.50448,0.02543
5801.57576,0.02560
5799.64705,0.02529
5797.71833,0.02453
5795.78962,0.02264
5793.86090,0.02100
5791.93219,0.02116
5790.00347,0.02157
5788.07475,0.02102
5786.14604,0.02087
5784.21732,0.02183
5782.28861,0.02280
5780.35989,0.02251
5778.43118,0.02137
5776.50246,0.02090
5774.57375,0.02145
5772.64503,0.02194
5770.71632,0.02206
5768.78760,0.02259
5766.85889,0.02339
5764.93017,0.02358
5763.00146,0.02279
5761.07274,0.02167
5759.14402,0.02150
5757.21531,0.02199
5755.28659,0.02227
5753.35788,0.02252
5751.42916,0.02291
5749.50045,0.02306
5747.57173,0.02276
5745.64302,0.02277
5743.71430,0.02355
5741.78559,0.02405
5739.85687,0.02357
5737.92816,0.02290
5735.99944,0.02289
5734.07072,0.02317
5732.14201,0.02375
5730.21329,0.02504
5728.28458,0.02637
5726.35586,0.02673
5724.42715,0.02614
5722.49843,0.02546
5720.56972,0.02518
5718.64100,0.02481
5716.71229,0.02357
5714.78357,0.02196
5712.85486,0.02188
5710.92614,0.02295
5708.99743,0.02327
5707.06871,0.02255
5705.13999,0.02126
5703.21128,0.01993
5701.28256,0.02025
5699.35385,0.02265
5697.42513,0.02481
5695.49642,0.02531
5693.56770,0.02450
5691.63899,0.02295
5689.71027,0.02218
5687.78156,0.02273
5685.85284,0.02304
5683.92413,0.02224
5681.99541,0.02165
5680.06670,0.02205
5678.13798,0.02245
5676.20926,0.02243
5674.28055,0.02253
5672.35183,0.02294
5670.42312,0.02313
5668.49440,0.02249
5666.56569,0.02154
5664.63697,0.02142
5662.70826,0.02212
5660.77954,0.02255
5658.85083,0.02227
5656.92211,0.02166
5654.99340,0.02119
5653.06468,0.02074
5651.13597,0.02057
5649.20725,0.02142
5647.27853,0.02266
5645.34982,0.02314
5643.42110,0.02306
5641.49239,0.02280
5639.56367,0.02242
5637.63496,0.02284
5635.70624,0.02416
5633.77753,0.02450
5631.84881,0.02373
5629.92010,0.02328
5627.99138,0.02349
5626.06267,0.02397
5624.13395,0.02446
5622.20523,0.02485
5620.27652,0.02478
5618.34780,0.02425
5616.41909,0.02427
5614.49037,0.02478
5612.56166,0.02509
5610.63294,0.02534
5608.70423,0.02551
5606.77551,0.02486
5604.84680,0.02324
5602.91808,0.02193
5600.98937,0.02224
5599.06065,0.02348
5597.13194,0.02395
5595.20322,0.02322
5593.27450,0.02207
5591.34579,0.02161
5589.41707,0.02246
5587.48836,0.02394
5585.55964,0.02472
5583.63093,0.02402
5581.70221,0.02225
5579.77350,0.02071
5577.84478,0.02070
5575.91607,0.02190
5573.98735,0.02303
5572.05864,0.02309
5570.12992,0.02199
5568.20121,0.02097
5566.27249,0.02133
5564.34377,0.02279
5562.41506,0.02405
5560.48634,0.02431
5558.55763,0.02408
5556.62891,0.02396
5554.70020,0.02452
5552.77148,0.02493
5550.84277,0.02385
5548.91405,0.02223
5546.98534,0.02182
5545.05662,0.02270
5543.12791,0.02389
5541.19919,0.02436
5539.27047,0.02371
5537.34176,0.02256
5535.41304,0.02177
5533.48433,0.02145
5531.55561,0.02151
5529.62690,0.02197
5527.69818,0.02279
5525.76947,0.02376
5523.84075,0.02452
5521.91204,0.02457
5519.98332,0.02400
5518.05461,0.02340
5516.12589,0.02269
5514.19718,0.02178
5512.26846,0.02206
5510.33974,0.02403
5508.41103,0.02568
5506.48231,0.02577
5504.55360,0.02591
5502.62488,0.02685
5500.69617,0.02731
5498.76745,0.02626
5496.83874,0.02478
5494.91002,0.02380
5492.98131,0.02255
5491.05259,0.02150
5489.12388,0.02136
5487.19516,0.02195
5485.26645,0.02311
5483.33773,0.02370
5481.40901,0.02334
5479.48030,0.02310
5477.55158,0.02360
5475.62287,0.02420
5473.69415,0.02474
5471.76544,0.02570
5469.83672,0.02642
5467.90801,0.02623
5465.97929,0.02555
5464.05058,0.02487
5462.12186,0.02434
5460.19315,0.02421
5458.26443,0.02453
5456.33572,0.02511
5454.40700,0.02539
5452.47828,0.02447
5450.54957,0.02305
5448.62085,0.02257
5446.69214,0.02313
5444.76342,0.02423
5442.83471,0.02504
5440.90599,0.02464
5438.97728,0.02403
5437.04856,0.02410
5435.11985,0.02465
5433.19113,0.02560
5431.26242,0.02569
5429.33370,0.02375
5427.40498,0.02150
5425.47627,0.02098
5423.54755,0.02120
5421.61884,0.02104
5419.69012,0.02111
5417.76141,0.02214
5415.83269,0.02358
5413.90398,0.02446
5411.97526,0.02422
5410.04655,0.02339
5408.11783,0.02267
5406.18912,0.02179
5404.26040,0.02065
5402.33169,0.01991
5400.40297,0.02024
5398.47425,0.02089
5396.54554,0.02121
5394.61682,0.02171
5392.68811,0.02210
5390.75939,0.02179
5388.83068,0.02170
5386.90196,0.02221
5384.97325,0.02233
5383.04453,0.02193
5381.11582,0.02212
5379.18710,0.02301
5377.25839,0.02345
5375.32967,0.02266
5373.40096,0.02191
5371.47224,0.02188
5369.54352,0.02218
5367.61481,0.02249
5365.68609,0.02212
5363.75738,0.02111
5361.82866,0.02074
5359.89995,0.02141
5357.97123,0.02257
5356.04252,0.02376
5354.11380,0.02433
5352.18509,0.02396
5350.25637,0.02385
5348.32766,0.02415
5346.39894,0.02360
5344.47022,0.02266
5342.54151,0.02344
5340.61279,0.02485
5338.68408,0.02473
5336.75536,0.02350
5334.82665,0.02356
5332.89793,0.02444
5330.96922,0.02473
5329.04050,0.02443
5327.11179,0.02373
5325.18307,0.02296
5323.25436,0.02278
5321.32564,0.02295
5319.39693,0.02343
5317.46821,0.02428
5315.53949,0.02454
5313.61078,0.02408
5311.68206,0.02410
5309.75335,0.02406
5307.82463,0.02292
5305.89592,0.02199
5303.96720,0.02202
5302.03849,0.02225
5300.10977,0.02303
5298.18106,0.02400
5296.25234,0.02424
5294.32363,0.02425
5292.39491,0.02447
5290.46620,0.02449
5288.53748,0.02467
5286.60876,0.02477
5284.68005,0.02402
5282.75133,0.02314
5280.82262,0.02308
5278.89390,0.02352
5276.96519,0.02377
5275.03647,0.02392
5273.10776,0.02445
5271.17904,0.02496
5269.25033,0.02504
5267.32161,0.02503
5265.39290,0.02457
5263.46418,0.02328
5261.53547,0.02274
5259.60675,0.02359
5257.67803,0.02428
5255.74932,0.02408
5253.82060,0.02358
5251.89189,0.02326
5249.96317,0.02338
5248.03446,0.02439
5246.10574,0.02523
5244.17703,0.02457
5242.24831,0.02341
5240.31960,0.02306
5238.39088,0.02332
5236.46217,0.02324
5234.53345,0.02290
5232.60473,0.02298
5230.67602,0.02326
5228.74730,0.02355
5226.81859,0.02378
5224.88987,0.02350
5222.96116,0.02233
5221.03244,0.02117
5219.10373,0.02128
5217.17501,0.02251
5215.24630,0.02359
5213.31758,0.02380
5211.38887,0.02340
5209.46015,0.02322
5207.53144,0.02358
5205.60272,0.02393
5203.67400,0.02379
5201.74529,0.02337
5199.81657,0.02314
5197.88786,0.02292
5195.95914,0.02235
5194.03043,0.02159
5192.10171,0.02109
5190.17300,0.02150
5188.24428,0.02299
5186.31557,0.02461
5184.38685,0.02583
5182.45814,0.02639
5180.52942,0.02578
5178.60071,0.02482
5176.67199,0.02422
5174.74327,0.02334
5172.81456,0.02239
5170.88584,0.02214
5168.95713,0.02254
5167.02841,0.02279
5165.09970,0.02268
5163.17098,0.02274
5161.24227,0.02284
5159.31355,0.02277
5157.38484,0.02274
5155.45612,0.02286
5153.52741,0.02323
5151.59869,0.02359
5149.66997,0.02359
5147.74126,0.02319
5145.81254,0.02283
5143.88383,0.02329
5141.95511,0.02423
5140.02640,0.02410
5138.09768,0.02287
5136.16897,0.02210
5134.24025,0.02264
5132.31154,0.02337
5130.38282,0.02314
5128.45411,0.02267
5126.52539,0.02280
5124.59668,0.02319
5122.66796,0.02358
5120.73924,0.02414
5118.81053,0.02458
5116.88181,0.02436
5114.95310,0.02422
5113.02438,0.02451
5111.09567,0.02422
5109.16695,0.02319
5107.23824,0.02233
5105.30952,0.02248
5103.38081,0.02360
5101.45209,0.02436
5099.52338,0.02400
5097.59466,0.02332
5095.66595,0.02324
5093.73723,0.02366
5091.80851,0.02404
5089.87980,0.02398
5087.95108,0.02373
5086.02237,0.02378
5084.09365,0.02393
5082.16494,0.02382
5080.23622,0.02357
5078.30751,0.02341
5076.37879,0.02338
5074.45008,0.02341
5072.52136,0.02343
5070.59265,0.02361
5068.66393,0.02408
5066.73522,0.02441
5064.80650,0.02452
5062.87778,0.02476
5060.94907,0.02505
5059.02035,0.02516
5057.09164,0.02472
5055.16292,0.02371
5053.23421,0.02303
5051.30549,0.02309
5049.37678,0.02325
5047.44806,0.02333
5045.51935,0.02332
5043.59063,0.02298
5041.66192,0.02279
5039.73320,0.02272
5037.80448,0.02271
5035.87577,0.02341
5033.94705,0.02461
5032.01834,0.02525
5030.08962,0.02481
5028.16091,0.02391
5026.23219,0.02364
5024.30348,0.02412
5022.37476,0.02463
5020.44605,0.02468
5018.51733,0.02406
5016.58862,0.02304
5014.65990,0.02273
5012.73119,0.02368
5010.80247,0.02492
5008.87375,0.02496
5006.94504,0.02374
5005.01632,0.02282
5003.08761,0.02262
5001.15889,0.02244
4999.23018,0.02264
4997.30146,0.02368
4995.37275,0.02494
4993.44403,0.02528
4991.51532,0.02439
4989.58660,0.02353
4987.65789,0.02356
4985.72917,0.02354
4983.80046,0.02296
4981.87174,0.02256
4979.94302,0.02276
4978.01431,0.02331
4976.08559,0.02393
4974.15688,0.02458
4972.22816,0.02480
4970.29945,0.02420
4968.37073,0.02364
4966.44202,0.02359
4964.51330,0.02374
4962.58459,0.02428
4960.65587,0.02521
4958.72716,0.02573
4956.79844,0.02516
4954.86972,0.02396
4952.94101,0.02329
4951.01229,0.02325
4949.08358,0.02281
4947.15486,0.02192
4945.22615,0.02137
4943.29743,0.02092
4941.36872,0.02087
4939.44000,0.02183
4937.51129,0.02286
4935.58257,0.02333
4933.65386,0.02367
4931.72514,0.02397
4929.79643,0.02403
4927.86771,0.02369
4925.93899,0.02328
4924.01028,0.02363
4922.08156,0.02454
4920.15285,0.02504
4918.22413,0.02494
4916.29542,0.02461
4914.36670,0.02426
4912.43799,0.02390
4910.50927,0.02376
4908.58056,0.02371
4906.65184,0.02293
4904.72313,0.02179
4902.79441,0.02180
4900.86570,0.02272
4898.93698,0.02349
4897.00826,0.02428
4895.07955,0.02481
4893.15083,0.02456
4891.22212,0.02420
4889.29340,0.02382
4887.36469,0.02331
4885.43597,0.02329
4883.50726,0.02357
4881.57854,0.02357
4879.64983,0.02352
4877.72111,0.02366
4875.79240,0.02350
4873.86368,0.02305
4871.93497,0.02300
4870.00625,0.02313
4868.07753,0.02303
4866.14882,0.02283
4864.22010,0.02275
4862.29139,0.02295
4860.36267,0.02346
4858.43396,0.02387
4856.50524,0.02362
4854.57653,0.02286
4852.64781,0.02247
4850.71910,0.02245
4848.79038,0.02228
4846.86167,0.02287
4844.93295,0.02459
4843.00423,0.02558
4841.07552,0.02511
4839.14680,0.02445
4837.21809,0.02420
4835.28937,0.02408
4833.36066,0.02385
4831.43194,0.02354
4829.50323,0.02355
4827.57451,0.02403
4825.64580,0.02469
4823.71708,0.02523
4821.78837,0.02551
4819.85965,0.02555
4817.93094,0.02545
4816.00222,0.02479
4814.07350,0.02362
4812.14479,0.02289
4810.21607,0.02284
4808.28736,0.02281
4806.35864,0.02276
4804.42993,0.02311
4802.50121,0.02370
4800.57250,0.02397
4798.64378,0.02398
4796.71507,0.02404
4794.78635,0.02421
4792.85764,0.02455
4790.92892,0.02478
4789.00021,0.02459
4787.07149,0.02400
4785.14277,0.02310
4783.21406,0.02245
4781.28534,0.02248
4779.35663,0.02271
4777.42791,0.02276
4775.49920,0.02298
4773.57048,0.02354
4771.64177,0.02415
4769.71305,0.02433
4767.78434,0.02410
4765.85562,0.02396
4763.92691,0.02413
4761.99819,0.02438
4760.06948,0.02430
4758.14076,0.02364
4756.21204,0.02301
4754.28333,0.02303
4752.35461,0.02329
4750.42590,0.02355
4748.49718,0.02391
4746.56847,0.02383
4744.63975,0.02330
4742.71104,0.02300
4740.78232,0.02307
4738.85361,0.02352
4736.92489,0.02408
4734.99618,0.02414
4733.06746,0.02381
4731.13874,0.02332
4729.21003,0.02281
4727.28131,0.02267
4725.35260,0.02317
4723.42388,0.02397
4721.49517,0.02441
4719.56645,0.02423
4717.63774,0.02386
4715.70902,0.02371
4713.78031,0.02373
4711.85159,0.02375
4709.92288,0.02373
4707.99416,0.02371
4706.06545,0.02372
4704.13673,0.02370
4702.20801,0.02383
4700.27930,0.02398
4698.35058,0.02375
4696.42187,0.02358
4694.49315,0.02401
4692.56444,0.02451
4690.63572,0.02465
4688.70701,0.02479
4686.77829,0.02512
4684.84958,0.02517
4682.92086,0.02480
4680.99215,0.02462
4679.06343,0.02468
4677.13472,0.02444
4675.20600,0.02390
4673.27728,0.02364
4671.34857,0.02402
4669.41985,0.02443
4667.49114,0.02425
4665.56242,0.02401
4663.63371,0.02432
4661.70499,0.02480
4659.77628,0.02487
4657.84756,0.02464
4655.91885,0.02448
4653.99013,0.02414
4652.06142,0.02370
4650.13270,0.02358
4648.20398,0.02355
4646.27527,0.02336
4644.34655,0.02317
4642.41784,0.02306
4640.48912,0.02300
4638.56041,0.02319
4636.63169,0.02357
4634.70298,0.02367
4632.77426,0.02342
4630.84555,0.02337
4628.91683,0.02371
4626.98812,0.02396
4625.05940,0.02384
4623.13069,0.02380
4621.20197,0.02392
4619.27325,0.02382
4617.34454,0.02360
4615.41582,0.02356
4613.48711,0.02366
4611.55839,0.02385
4609.62968,0.02422
4607.70096,0.02446
4605.77225,0.02435
4603.84353,0.02417
4601.91482,0.02392
4599.98610,0.02349
4598.05739,0.02327
4596.12867,0.02335
4594.19996,0.02343
4592.27124,0.02352
4590.34252,0.02360
4588.41381,0.02340
4586.48509,0.02305
4584.55638,0.02300
4582.62766,0.02340
4580.69895,0.02388
4578.77023,0.02393
4576.84152,0.02358
4574.91280,0.02347
4572.98409,0.02371
4571.05537,0.02408
4569.12666,0.02424
4567.19794,0.02374
4565.26923,0.02307
4563.34051,0.02315
4561.41179,0.02360
4559.48308,0.02375
4557.55436,0.02381
4555.62565,0.02400
4553.69693,0.02407
4551.76822,0.02386
4549.83950,0.02363
4547.91079,0.02369
4545.98207,0.02399
4544.05336,0.02415
4542.12464,0.02401
4540.19593,0.02372
4538.26721,0.02352
4536.33849,0.02345
4534.40978,0.02340
4532.48106,0.02347
4530.55235,0.02377
4528.62363,0.02406
4526.69492,0.02428
4524.76620,0.02470
4522.83749,0.02494
4520.90877,0.02464
4518.98006,0.02426
4517.05134,0.02421
4515.12263,0.02445
4513.19391,0.02476
4511.26520,0.02488
4509.33648,0.02478
4507.40776,0.02460
4505.47905,0.02456
4503.55033,0.02477
4501.62162,0.02511
4499.69290,0.02534
4497.76419,0.02540
4495.83547,0.02516
4493.90676,0.02442
4491.97804,0.02363
4490.04933,0.02342
4488.12061,0.02363
4486.19190,0.02386
4484.26318,0.02394
4482.33447,0.02404
4480.40575,0.02434
4478.47703,0.02438
4476.54832,0.02386
4474.61960,0.02359
4472.69089,0.02387
4470.76217,0.02413
4468.83346,0.02417
4466.90474,0.02410
4464.97603,0.02416
4463.04731,0.02462
4461.11860,0.02501
4459.18988,0.02478
4457.26117,0.02440
4455.33245,0.02419
4453.40373,0.02379
4451.47502,0.02337
4449.54630,0.02335
4447.61759,0.02355
4445.68887,0.02381
4443.76016,0.02396
4441.83144,0.02371
4439.90273,0.02342
4437.97401,0.02344
4436.04530,0.02342
4434.11658,0.02333
4432.18787,0.02344
4430.25915,0.02367
4428.33044,0.02367
4426.40172,0.02339
4424.47300,0.02324
4422.54429,0.02340
4420.61557,0.02365
4418.68686,0.02376
4416.75814,0.02386
4414.82943,0.02413
4412.90071,0.02440
4410.97200,0.02446
4409.04328,0.02438
4407.11457,0.02425
4405.18585,0.02406
4403.25714,0.02389
4401.32842,0.02375
4399.39971,0.02379
4397.47099,0.02423
4395.54227,0.02458
4393.61356,0.02435
4391.68484,0.02411
4389.75613,0.02407
4387.82741,0.02397
4385.89870,0.02394
4383.96998,0.02369
4382.04127,0.02316
4380.11255,0.02316
4378.18384,0.02377
4376.25512,0.02409
4374.32641,0.02382
4372.39769,0.02361
4370.46898,0.02399
4368.54026,0.02463
4366.61154,0.02504
4364.68283,0.02507
4362.75411,0.02486
4360.82540,0.02470
4358.89668,0.02474
4356.96797,0.02493
4355.03925,0.02502
4353.11054,0.02481
4351.18182,0.02446
4349.25311,0.02423
4347.32439,0.02419
4345.39568,0.02428
4343.46696,0.02418
4341.53824,0.02368
4339.60953,0.02332
4337.68081,0.02356
4335.75210,0.02412
4333.82338,0.02467
4331.89467,0.02504
4329.96595,0.02489
4328.03724,0.02455
4326.10852,0.02466
4324.17981,0.02490
4322.25109,0.02492
4320.32238,0.02505
4318.39366,0.02529
4316.46495,0.02548
4314.53623,0.02545
4312.60751,0.02483
4310.67880,0.02398
4308.75008,0.02352
4306.82137,0.02339
4304.89265,0.02348
4302.96394,0.02387
4301.03522,0.02430
4299.10651,0.02436
4297.17779,0.02422
4295.24908,0.02418
4293.32036,0.02416
4291.39165,0.02415
4289.46293,0.02420
4287.53422,0.02424
4285.60550,0.02436
4283.67678,0.02442
4281.74807,0.02443
4279.81935,0.02456
4277.89064,0.02460
4275.96192,0.02449
4274.03321,0.02437
4272.10449,0.02414
4270.17578,0.02403
4268.24706,0.02437
4266.31835,0.02463
4264.38963,0.02438
4262.46092,0.02395
4260.53220,0.02358
4258.60348,0.02331
4256.67477,0.02340
4254.74605,0.02397
4252.81734,0.02468
4250.88862,0.02479
4248.95991,0.02425
4247.03119,0.02391
4245.10248,0.02401
4243.17376,0.02419
4241.24505,0.02449
4239.31633,0.02482
4237.38762,0.02475
4235.45890,0.02421
4233.53019,0.02362
4231.60147,0.02352
4229.67275,0.02364
4227.74404,0.02366
4225.81532,0.02385
4223.88661,0.02419
4221.95789,0.02441
4220.02918,0.02451
4218.10046,0.02441
4216.17175,0.02419
4214.24303,0.02416
4212.31432,0.02442
4210.38560,0.02459
4208.45689,0.02459
4206.52817,0.02459
4204.59946,0.02456
4202.67074,0.02451
4200.74202,0.02444
4198.81331,0.02424
4196.88459,0.02408
4194.95588,0.02416
4193.02716,0.02417
4191.09845,0.02402
4189.16973,0.02410
4187.24102,0.02434
4185.31230,0.02426
4183.38359,0.02389
4181.45487,0.02361
4179.52616,0.02351
4177.59744,0.02362
4175.66873,0.02410
4173.74001,0.02483
4171.81129,0.02525
4169.88258,0.02511
4167.95386,0.02465
4166.02515,0.02421
4164.09643,0.02398
4162.16772,0.02394
4160.23900,0.02391
4158.31029,0.02400
4156.38157,0.02430
4154.45286,0.02445
4152.52414,0.02429
4150.59543,0.02425
4148.66671,0.02439
4146.73799,0.02430
4144.80928,0.02404
4142.88056,0.02400
4140.95185,0.02414
4139.02313,0.02422
4137.09442,0.02415
4135.16570,0.02407
4133.23699,0.02423
4131.30827,0.02450
4129.37956,0.02456
4127.45084,0.02449
4125.52213,0.02450
4123.59341,0.02439
4121.66470,0.02411
4119.73598,0.02410
4117.80726,0.02412
4115.87855,0.02375
4113.94983,0.02330
4112.02112,0.02326
4110.09240,0.02361
4108.16369,0.02391
4106.23497,0.02406
4104.30626,0.02413
4102.37754,0.02400
4100.44883,0.02397
4098.52011,0.02447
4096.59140,0.02510
4094.66268,0.02522
4092.73397,0.02467
4090.80525,0.02403
4088.87653,0.02409
4086.94782,0.02469
4085.01910,0.02498
4083.09039,0.02481
4081.16167,0.02457
4079.23296,0.02456
4077.30424,0.02465
4075.37553,0.02463
4073.44681,0.02456
4071.51810,0.02440
4069.58938,0.02409
4067.66067,0.02384
4065.73195,0.02374
4063.80323,0.02404
4061.87452,0.02463
4059.94580,0.02479
4058.01709,0.02441
4056.08837,0.02397
4054.15966,0.02362
4052.23094,0.02352
4050.30223,0.02388
4048.37351,0.02416
4046.44480,0.02401
4044.51608,0.02398
4042.58737,0.02426
4040.65865,0.02436
4038.72994,0.02420
4036.80122,0.02400
4034.87250,0.02399
4032.94379,0.02432
4031.01507,0.02497
4029.08636,0.02543
4027.15764,0.02529
4025.22893,0.02487
4023.30021,0.02472
4021.37150,0.02488
4019.44278,0.02511
4017.51407,0.02509
4015.58535,0.02461
4013.65664,0.02408
4011.72792,0.02392
4009.79921,0.02395
4007.87049,0.02406
4005.94177,0.02445
4004.01306,0.02487
4002.08434,0.02494
4000.15563,0.02481
3998.22691,0.02464
3996.29820,0.02439
3994.36948,0.02430
3992.44077,0.02449
3990.51205,0.02464
3988.58334,0.02452
3986.65462,0.02435
3984.72591,0.02430
3982.79719,0.02433
3980.86848,0.02445
3978.93976,0.02456
3977.01104,0.02455
3975.08233,0.02431
3973.15361,0.02379
3971.22490,0.02342
3969.29618,0.02358
3967.36747,0.02410
3965.43875,0.02464
3963.51004,0.02496
3961.58132,0.02512
3959.65261,0.02512
3957.72389,0.02491
3955.79518,0.02455
3953.86646,0.02428
3951.93774,0.02439
3950.00903,0.02474
3948.08031,0.02473
3946.15160,0.02450
3944.22288,0.02439
3942.29417,0.02437
3940.36545,0.02456
3938.43674,0.02463
3936.50802,0.02439
3934.57931,0.02420
3932.65059,0.02410
3930.72188,0.02410
3928.79316,0.02450
3926.86445,0.02499
3924.93573,0.02503
3923.00701,0.02479
3921.07830,0.02483
3919.14958,0.02507
3917.22087,0.02506
3915.29215,0.02463
3913.36344,0.02426
3911.43472,0.02423
3909.50601,0.02453
3907.57729,0.02498
3905.64858,0.02513
3903.71986,0.02456
3901.79115,0.02378
3899.86243,0.02367
3897.93372,0.02403
3896.00500,0.02422
3894.07628,0.02410
3892.14757,0.02391
3890.21885,0.02426
3888.29014,0.02501
3886.36142,0.02555
3884.43271,0.02554
3882.50399,0.02519
3880.57528,0.02463
3878.64656,0.02444
3876.71785,0.02482
3874.78913,0.02493
3872.86042,0.02432
3870.93170,0.02378
3869.00298,0.02398
3867.07427,0.02453
3865.14555,0.02472
3863.21684,0.02401
3861.28812,0.02317
3859.35941,0.02303
3857.43069,0.02362
3855.50198,0.02513
3853.57326,0.02609
3851.64455,0.02429
3849.71583,0.02381
3847.78712,0.02468
3845.85840,0.02555
3843.92969,0.02564
3842.00097,0.02520
3840.07225,0.02485
3838.14354,0.02424
3836.21482,0.02408
3834.28611,0.02464
3832.35739,0.02498
3830.42868,0.02509
3828.49996,0.02511
3826.57125,0.02503
3824.64253,0.02534
3822.71382,0.02594
3820.78510,0.02572
3818.85639,0.02488
3816.92767,0.02437
3814.99896,0.02415
3813.07024,0.02425
3811.14152,0.02446
3809.21281,0.02459
3807.28409,0.02457
3805.35538,0.02494
3803.42666,0.02554
3801.49795,0.02505
3799.56923,0.02431
3797.64052,0.02438
3795.71180,0.02421
3793.78309,0.02399
3791.85437,0.02431
3789.92566,0.02492
3787.99694,0.02525
3786.06823,0.02489
3784.13951,0.02414
3782.21079,0.02381
3780.28208,0.02379
3778.35336,0.02391
3776.42465,0.02440
3774.49593,0.02482
3772.56722,0.02481
3770.63850,0.02467
3768.70979,0.02474
3766.78107,0.02469
3764.85236,0.02430
3762.92364,0.02387
3760.99493,0.02363
3759.06621,0.02371
3757.13749,0.02438
3755.20878,0.02528
3753.28006,0.02579
3751.35135,0.02484
3749.42263,0.02323
3747.49392,0.02277
3745.56520,0.02242
3743.63649,0.02309
3741.70777,0.02454
3739.77906,0.02506
3737.85034,0.02460
3735.92163,0.02370
3733.99291,0.02314
3732.06420,0.02360
3730.13548,0.02451
3728.20676,0.02498
3726.27805,0.02461
3724.34933,0.02404
3722.42062,0.02401
3720.49190,0.02420
3718.56319,0.02443
3716.63447,0.02467
3714.70576,0.02490
3712.77704,0.02474
3710.84833,0.02345
3708.91961,0.02259
3706.99090,0.02305
3705.06218,0.02375
3703.13347,0.02387
3701.20475,0.02359
3699.27603,0.02378
3697.34732,0.02407
3695.41860,0.02429
3693.48989,0.02461
3691.56117,0.02446
3689.63246,0.02340
3687.70374,0.02303
3685.77503,0.02347
3683.84631,0.02397
3681.91760,0.02467
3679.98888,0.02540
3678.06017,0.02525
3676.13145,0.02360
3674.20273,0.02276
3672.27402,0.02325
3670.34530,0.02278
3668.41659,0.02244
3666.48787,0.02329
3664.55916,0.02402
3662.63044,0.02432
3660.70173,0.02438
3658.77301,0.02418
3656.84430,0.02380
3654.91558,0.02377
3652.98687,0.02396
3651.05815,0.02356
3649.12944,0.02240
3647.20072,0.02238
3645.27200,0.02292
3643.34329,0.02322
3641.41457,0.02328
3639.48586,0.02313
3637.55714,0.02304
3635.62843,0.02311
3633.69971,0.02322
3631.77100,0.02333
3629.84228,0.02300
3627.91357,0.02220
3625.98485,0.02253
3624.05614,0.02322
3622.12742,0.02351
3620.19871,0.02325
3618.26999,0.02298
3616.34127,0.02332
3614.41256,0.02378
3612.48384,0.02380
3610.55513,0.02332
3608.62641,0.02256
3606.69770,0.02221
3604.76898,0.02248
3602.84027,0.02283
3600.91155,0.02300
3598.98284,0.02299
3597.05412,0.02288
3595.12541,0.02269
3593.19669,0.02254
3591.26798,0.02265
3589.33926,0.02261
3587.41054,0.02208
3585.48183,0.02207
3583.55311,0.02269
3581.62440,0.02293
3579.69568,0.02298
3577.76697,0.02344
3575.83825,0.02365
3573.90954,0.02298
3571.98082,0.02233
3570.05211,0.02235
3568.12339,0.02278
3566.19468,0.02291
3564.26596,0.02268
3562.33724,0.02261
3560.40853,0.02256
3558.47981,0.02222
3556.55110,0.02183
3554.62238,0.02169
3552.69367,0.02166
3550.76495,0.02175
3548.83624,0.02213
3546.90752,0.02243
3544.97881,0.02244
3543.05009,0.02253
3541.12138,0.02267
3539.19266,0.02254
3537.26395,0.02218
3535.33523,0.02189
3533.40651,0.02180
3531.47780,0.02170
3529.54908,0.02153
3527.62037,0.02165
3525.69165,0.02196
3523.76294,0.02181
3521.83422,0.02142
3519.90551,0.02126
3517.97679,0.02111
3516.04808,0.02108
3514.11936,0.02148
3512.19065,0.02194
3510.26193,0.02201
3508.33322,0.02201
3506.40450,0.02225
3504.47578,0.02236
3502.54707,0.02206
3500.61835,0.02160
3498.68964,0.02142
3496.76092,0.02154
3494.83221,0.02158
3492.90349,0.02146
3490.97478,0.02155
3489.04606,0.02195
3487.11735,0.02235
3485.18863,0.02253
3483.25992,0.02266
3481.33120,0.02287
3479.40248,0.02284
3477.47377,0.02260
3475.54505,0.02256
3473.61634,0.02257
3471.68762,0.02234
3469.75891,0.02193
3467.83019,0.02149
3465.90148,0.02132
3463.97276,0.02157
3462.04405,0.02187
3460.11533,0.02199
3458.18662,0.02213
3456.25790,0.02232
3454.32919,0.02243
3452.40047,0.02244
3450.47175,0.02258
3448.54304,0.02275
3446.61432,0.02245
3444.68561,0.02210
3442.75689,0.02227
3440.82818,0.02253
3438.89946,0.02261
3436.97075,0.02250
3435.04203,0.02215
3433.11332,0.02162
3431.18460,0.02124
3429.25589,0.02144
3427.32717,0.02196
3425.39846,0.02236
3423.46974,0.02256
3421.54102,0.02240
3419.61231,0.02197
3417.68359,0.02171
3415.75488,0.02172
3413.82616,0.02172
3411.89745,0.02171
3409.96873,0.02179
3408.04002,0.02199
3406.11130,0.02218
3404.18259,0.02210
3402.25387,0.02184
3400.32516,0.02172
3398.39644,0.02167
3396.46773,0.02158
3394.53901,0.02159
3392.61029,0.02181
3390.68158,0.02213
3388.75286,0.02222
3386.82415,0.02201
3384.89543,0.02179
3382.96672,0.02174
3381.03800,0.02180
3379.10929,0.02185
3377.18057,0.02176
3375.25186,0.02154
3373.32314,0.02159
3371.39443,0.02196
3369.46571,0.02214
3367.53699,0.02207
3365.60828,0.02198
3363.67956,0.02202
3361.75085,0.02196
3359.82213,0.02167
3357.89342,0.02156
3355.96470,0.02180
3354.03599,0.02193
3352.10727,0.02196
3350.17856,0.02230
3348.24984,0.02264
3346.32113,0.02260
3344.39241,0.02259
3342.46370,0.02272
3340.53498,0.02270
3338.60626,0.02252
3336.67755,0.02247
3334.74883,0.02268
3332.82012,0.02266
3330.89140,0.02217
3328.96269,0.02179
3327.03397,0.02185
3325.10526,0.02197
3323.17654,0.02196
3321.24783,0.02182
3319.31911,0.02161
3317.39040,0.02165
3315.46168,0.02187
3313.53297,0.02178
3311.60425,0.02158
3309.67553,0.02170
3307.74682,0.02200
3305.81810,0.02223
3303.88939,0.02239
3301.96067,0.02247
3300.03196,0.02230
3298.10324,0.02198
3296.17453,0.02180
3294.24581,0.02178
3292.31710,0.02194
3290.38838,0.02219
3288.45967,0.02207
3286.53095,0.02168
3284.60223,0.02161
3282.67352,0.02177
3280.74480,0.02187
3278.81609,0.02192
3276.88737,0.02191
3274.95866,0.02175
3273.02994,0.02158
3271.10123,0.02162
3269.17251,0.02199
3267.24380,0.02234
3265.31508,0.02219
3263.38637,0.02182
3261.45765,0.02163
3259.52894,0.02160
3257.60022,0.02172
3255.67150,0.02186
3253.74279,0.02195
3251.81407,0.02209
3249.88536,0.02229
3247.95664,0.02262
3246.02793,0.02294
3244.09921,0.02290
3242.17050,0.02286
3240.24178,0.02305
3238.31307,0.02293
3236.38435,0.02259
3234.45564,0.02251
3232.52692,0.02248
3230.59821,0.02220
3228.66949,0.02188
3226.74077,0.02184
3224.81206,0.02210
3222.88334,0.02234
3220.95463,0.02240
3219.02591,0.02239
3217.09720,0.02230
3215.16848,0.02229
3213.23977,0.02245
3211.31105,0.02253
3209.38234,0.02255
3207.45362,0.02269
3205.52491,0.02282
3203.59619,0.02272
3201.66748,0.02260
3199.73876,0.02270
3197.81004,0.02295
3195.88133,0.02312
3193.95261,0.02305
3192.02390,0.02278
3190.09518,0.02240
3188.16647,0.02200
3186.23775,0.02198
3184.30904,0.02242
3182.38032,0.02297
3180.45161,0.02325
3178.52289,0.02289
3176.59418,0.02223
3174.66546,0.02210
3172.73674,0.02251
3170.80803,0.02284
3168.87931,0.02278
3166.95060,0.02256
3165.02188,0.02243
3163.09317,0.02245
3161.16445,0.02259
3159.23574,0.02274
3157.30702,0.02281
3155.37831,0.02292
3153.44959,0.02305
3151.52088,0.02293
3149.59216,0.02263
3147.66345,0.02261
3145.73473,0.02283
3143.80601,0.02285
3141.87730,0.02283
3139.94858,0.02307
3138.01987,0.02314
3136.09115,0.02301
3134.16244,0.02299
3132.23372,0.02287
3130.30501,0.02252
3128.37629,0.02230
3126.44758,0.02233
3124.51886,0.02238
3122.59015,0.02259
3120.66143,0.02303
3118.73272,0.02308
3116.80400,0.02270
3114.87528,0.02260
3112.94657,0.02289
3111.01785,0.02295
3109.08914,0.02280
3107.16042,0.02285
3105.23171,0.02293
3103.30299,0.02284
3101.37428,0.02276
3099.44556,0.02289
3097.51685,0.02310
3095.58813,0.02301
3093.65942,0.02261
3091.73070,0.02241
3089.80198,0.02264
3087.87327,0.02284
3085.94455,0.02270
3084.01584,0.02248
3082.08712,0.02244
3080.15841,0.02254
3078.22969,0.02266
3076.30098,0.02275
3074.37226,0.02282
3072.44355,0.02288
3070.51483,0.02297
3068.58612,0.02314
3066.65740,0.02328
3064.72869,0.02317
3062.79997,0.02276
3060.87125,0.02235
3058.94254,0.02223
3057.01382,0.02231
3055.08511,0.02243
3053.15639,0.02258
3051.22768,0.02278
3049.29896,0.02295
3047.37025,0.02294
3045.44153,0.02272
3043.51282,0.02248
3041.58410,0.02236
3039.65539,0.02237
3037.72667,0.02251
3035.79796,0.02272
3033.86924,0.02296
3031.94052,0.02311
3030.01181,0.02299
3028.08309,0.02281
3026.15438,0.02284
3024.22566,0.02290
3022.29695,0.02285
3020.36823,0.02285
3018.43952,0.02299
3016.51080,0.02303
3014.58209,0.02288
3012.65337,0.02268
3010.72466,0.02242
3008.79594,0.02229
3006.86723,0.02232
3004.93851,0.02217
3003.00979,0.02204
3001.08108,0.02228
2999.15236,0.02255
2997.22365,0.02242
2995.29493,0.02206
2993.36622,0.02200
2991.43750,0.02235
2989.50879,0.02273
2987.58007,0.02290
2985.65136,0.02274
2983.72264,0.02243
2981.79393,0.02232
2979.86521,0.02221
2977.93649,0.02202
2976.00778,0.02207
2974.07906,0.02230
2972.15035,0.02242
2970.22163,0.02226
2968.29292,0.02203
2966.36420,0.02200
2964.43549,0.02195
2962.50677,0.02169
2960.57806,0.02146
2958.64934,0.02140
2956.72063,0.02137
2954.79191,0.02138
2952.86320,0.02144
2950.93448,0.02146
2949.00576,0.02135
2947.07705,0.02115
2945.14833,0.02105
2943.21962,0.02118
2941.29090,0.02139
2939.36219,0.02169
2937.43347,0.02205
2935.50476,0.02230
2933.57604,0.02222
2931.64733,0.02187
2929.71861,0.02159
2927.78990,0.02159
2925.86118,0.02164
2923.93247,0.02166
2922.00375,0.02174
2920.07503,0.02169
2918.14632,0.02149
2916.21760,0.02142
2914.28889,0.02165
2912.36017,0.02196
2910.43146,0.02209
2908.50274,0.02227
2906.57403,0.02262
2904.64531,0.02279
2902.71660,0.02269
2900.78788,0.02258
2898.85917,0.02276
2896.93045,0.02302
2895.00173,0.02287
2893.07302,0.02253
2891.14430,0.02244
2889.21559,0.02243
2887.28687,0.02229
2885.35816,0.02222
2883.42944,0.02233
2881.50073,0.02246
2879.57201,0.02244
2877.64330,0.02237
2875.71458,0.02233
2873.78587,0.02215
2871.85715,0.02199
2869.92844,0.02210
2867.99972,0.02232
2866.07100,0.02231
2864.14229,0.02212
2862.21357,0.02193
2860.28486,0.02184
2858.35614,0.02200
2856.42743,0.02246
2854.49871,0.02285
2852.57000,0.02283
2850.64128,0.02263
2848.71257,0.02260
2846.78385,0.02270
2844.85514,0.02285
2842.92642,0.02296
2840.99771,0.02306
2839.06899,0.02320
2837.14027,0.02312
2835.21156,0.02294
2833.28284,0.02314
2831.35413,0.02354
2829.42541,0.02365
2827.49670,0.02347
2825.56798,0.02332
2823.63927,0.02338
2821.71055,0.02346
2819.78184,0.02336
2817.85312,0.02320
2815.92441,0.02320
2813.99569,0.02347
2812.06698,0.02379
2810.13826,0.02383
2808.20954,0.02355
2806.28083,0.02333
2804.35211,0.02334
2802.42340,0.02338
2800.49468,0.02346
2798.56597,0.02364
2796.63725,0.02380
2794.70854,0.02386
2792.77982,0.02382
2790.85111,0.02381
2788.92239,0.02376
2786.99368,0.02348
2785.06496,0.02329
2783.13624,0.02343
2781.20753,0.02356
2779.27881,0.02347
2777.35010,0.02340
2775.42138,0.02347
2773.49267,0.02373
2771.56395,0.02401
2769.63524,0.02411
2767.70652,0.02408
2765.77781,0.02395
2763.84909,0.02365
2761.92038,0.02331
2759.99166,0.02305
2758.06295,0.02293
2756.13423,0.02297
2754.20551,0.02316
2752.27680,0.02340
2750.34808,0.02356
2748.41937,0.02365
2746.49065,0.02370
2744.56194,0.02352
2742.63322,0.02308
2740.70451,0.02277
2738.77579,0.02297
2736.84708,0.02353
2734.91836,0.02397
2732.98965,0.02395
2731.06093,0.02356
2729.13222,0.02328
2727.20350,0.02324
2725.27478,0.02324
2723.34607,0.02336
2721.41735,0.02370
2719.48864,0.02392
2717.55992,0.02372
2715.63121,0.02340
2713.70249,0.02323
2711.77378,0.02315
2709.84506,0.02314
2707.91635,0.02337
2705.98763,0.02370
2704.05892,0.02376
2702.13020,0.02355
2700.20149,0.02341
2698.27277,0.02347
2696.34405,0.02357
2694.41534,0.02356
2692.48662,0.02360
2690.55791,0.02373
2688.62919,0.02378
2686.70048,0.02367
2684.77176,0.02351
2682.84305,0.02337
2680.91433,0.02319
2678.98562,0.02292
2677.05690,0.02276
2675.12819,0.02293
2673.19947,0.02331
2671.27075,0.02351
2669.34204,0.02347
2667.41332,0.02349
2665.48461,0.02351
2663.55589,0.02334
2661.62718,0.02325
2659.69846,0.02339
2657.76975,0.02347
2655.84103,0.02341
2653.91232,0.02340
2651.98360,0.02358
2650.05489,0.02396
2648.12617,0.02417
2646.19746,0.02391
2644.26874,0.02357
2642.34002,0.02350
2640.41131,0.02346
2638.48259,0.02342
2636.55388,0.02349
2634.62516,0.02349
2632.69645,0.02348
2630.76773,0.02357
2628.83902,0.02361
2626.91030,0.02359
2624.98159,0.02360
2623.05287,0.02361
2621.12416,0.02362
2619.19544,0.02368
2617.26673,0.02367
2615.33801,0.02352
2613.40929,0.02329
2611.48058,0.02309
2609.55186,0.02306
2607.62315,0.02325
2605.69443,0.02348
2603.76572,0.02366
2601.83700,0.02373
2599.90829,0.02361
2597.97957,0.02353
2596.05086,0.02360
2594.12214,0.02359
2592.19343,0.02359
2590.26471,0.02383
2588.33599,0.02396
2586.40728,0.02369
2584.47856,0.02334
2582.54985,0.02331
2580.62113,0.02349
2578.69242,0.02360
2576.76370,0.02353
2574.83499,0.02337
2572.90627,0.02338
2570.97756,0.02359
2569.04884,0.02375
2567.12013,0.02381
2565.19141,0.02388
2563.26270,0.02387
2561.33398,0.02383
2559.40526,0.02386
2557.47655,0.02380
2555.54783,0.02358
2553.61912,0.02345
2551.69040,0.02349
2549.76169,0.02353
2547.83297,0.02341
2545.90426,0.02329
2543.97554,0.02328
2542.04683,0.02330
2540.11811,0.02348
2538.18940,0.02377
2536.26068,0.02388
2534.33197,0.02383
2532.40325,0.02364
2530.47453,0.02326
2528.54582,0.02298
2526.61710,0.02307
2524.68839,0.02342
2522.75967,0.02363
2520.83096,0.02360
2518.90224,0.02359
2516.97353,0.02370
2515.04481,0.02375
2513.11610,0.02364
2511.18738,0.02341
2509.25867,0.02327
2507.32995,0.02342
2505.40124,0.02366
2503.47252,0.02370
2501.54380,0.02363
2499.61509,0.02361
2497.68637,0.02358
2495.75766,0.02349
2493.82894,0.02340
2491.90023,0.02333
2489.97151,0.02330
2488.04280,0.02333
2486.11408,0.02342
2484.18537,0.02351
2482.25665,0.02347
2480.32794,0.02333
2478.39922,0.02331
2476.47050,0.02347
2474.54179,0.02358
2472.61307,0.02349
2470.68436,0.02337
2468.75564,0.02336
2466.82693,0.02325
2464.89821,0.02310
2462.96950,0.02320
2461.04078,0.02346
2459.11207,0.02366
2457.18335,0.02370
2455.25464,0.02353
2453.32592,0.02326
2451.39721,0.02309
2449.46849,0.02311
2447.53977,0.02326
2445.61106,0.02344
2443.68234,0.02353
2441.75363,0.02347
2439.82491,0.02340
2437.89620,0.02349
2435.96748,0.02364
2434.03877,0.02373
2432.11005,0.02375
2430.18134,0.02368
2428.25262,0.02349
2426.32391,0.02335
2424.39519,0.02342
2422.46648,0.02347
2420.53776,0.02331
2418.60904,0.02316
2416.68033,0.02318
2414.75161,0.02329
2412.82290,0.02342
2410.89418,0.02350
2408.96547,0.02346
2407.03675,0.02339
2405.10804,0.02339
2403.17932,0.02339
2401.25061,0.02335
2399.32189,0.02342
2397.39318,0.02350
2395.46446,0.02344
2393.53574,0.02342
2391.60703,0.02369
2389.67831,0.02408
2387.74960,0.02421
2385.82088,0.02413
2383.89217,0.02406
2381.96345,0.02401
2380.03474,0.02404
2378.10602,0.02421
2376.17731,0.02431
2374.24859,0.02418
2372.31988,0.02419
2370.39116,0.02488
2368.46245,0.02574
2366.53373,0.02600
2364.60501,0.02648
2362.67630,0.02724
2360.74758,0.02673
2358.81887,0.02514
2356.89015,0.02336
2354.96144,0.02213
2353.03272,0.02259
2351.10401,0.02366
2349.17529,0.02391
2347.24658,0.02343
2345.31786,0.02293
2343.38915,0.02300
2341.46043,0.02343
2339.53172,0.02374
2337.60300,0.02350
2335.67428,0.02329
2333.74557,0.02414
2331.81685,0.02499
2329.88814,0.02475
2327.95942,0.02452
2326.03071,0.02483
2324.10199,0.02472
2322.17328,0.02404
2320.24456,0.02361
2318.31585,0.02364
2316.38713,0.02375
2314.45842,0.02375
2312.52970,0.02371
2310.60099,0.02377
2308.67227,0.02399
2306.74355,0.02424
2304.81484,0.02427
2302.88612,0.02404
2300.95741,0.02370
2299.02869,0.02348
2297.09998,0.02357
2295.17126,0.02381
2293.24255,0.02392
2291.31383,0.02383
2289.38512,0.02370
2287.45640,0.02375
2285.52769,0.02384
2283.59897,0.02370
2281.67025,0.02338
2279.74154,0.02310
2277.81282,0.02300
2275.88411,0.02310
2273.95539,0.02331
2272.02668,0.02350
2270.09796,0.02358
2268.16925,0.02360
2266.24053,0.02359
2264.31182,0.02353
2262.38310,0.02350
2260.45439,0.02360
2258.52567,0.02372
2256.59696,0.02368
2254.66824,0.02347
2252.73952,0.02329
2250.81081,0.02336
2248.88209,0.02351
2246.95338,0.02351
2245.02466,0.02347
2243.09595,0.02350
2241.16723,0.02357
2239.23852,0.02354
2237.30980,0.02345
2235.38109,0.02340
2233.45237,0.02335
2231.52366,0.02329
2229.59494,0.02332
2227.66623,0.02337
2225.73751,0.02332
2223.80879,0.02326
2221.88008,0.02324
2219.95136,0.02328
2218.02265,0.02343
2216.09393,0.02354
2214.16522,0.02343
2212.23650,0.02321
2210.30779,0.02299
2208.37907,0.02289
2206.45036,0.02304
2204.52164,0.02323
2202.59293,0.02332
2200.66421,0.02345
2198.73549,0.02359
2196.80678,0.02355
2194.87806,0.02327
2192.94935,0.02301
2191.02063,0.02290
2189.09192,0.02288
2187.16320,0.02300
2185.23449,0.02327
2183.30577,0.02356
2181.37706,0.02375
2179.44834,0.02384
2177.51963,0.02368
2175.59091,0.02326
2173.66220,0.02299
2171.73348,0.02312
2169.80476,0.02331
2167.87605,0.02333
2165.94733,0.02331
2164.01862,0.02336
2162.08990,0.02337
2160.16119,0.02330
2158.23247,0.02329
2156.30376,0.02335
2154.37504,0.02334
2152.44633,0.02332
2150.51761,0.02327
2148.58890,0.02324
2146.66018,0.02335
2144.73147,0.02347
2142.80275,0.02354
2140.87403,0.02361
2138.94532,0.02353
2137.01660,0.02331
2135.08789,0.02324
2133.15917,0.02323
2131.23046,0.02309
2129.30174,0.02301
2127.37303,0.02310
2125.44431,0.02320
2123.51560,0.02318
2121.58688,0.02317
2119.65817,0.02324
2117.72945,0.02330
2115.80074,0.02337
2113.87202,0.02350
2111.94330,0.02354
2110.01459,0.02349
2108.08587,0.02340
2106.15716,0.02330
2104.22844,0.02330
2102.29973,0.02347
2100.37101,0.02357
2098.44230,0.02343
2096.51358,0.02328
2094.58487,0.02331
2092.65615,0.02333
2090.72744,0.02317
2088.79872,0.02299
2086.87000,0.02295
2084.94129,0.02305
2083.01257,0.02322
2081.08386,0.02335
2079.15514,0.02344
2077.22643,0.02350
2075.29771,0.02354
2073.36900,0.02353
2071.44028,0.02340
2069.51157,0.02318
2067.58285,0.02305
2065.65414,0.02308
2063.72542,0.02312
2061.79671,0.02310
2059.86799,0.02307
2057.93927,0.02311
2056.01056,0.02321
2054.08184,0.02328
2052.15313,0.02329
2050.22441,0.02323
2048.29570,0.02314
2046.36698,0.02307
2044.43827,0.02300
2042.50955,0.02298
2040.58084,0.02307
2038.65212,0.02326
2036.72341,0.02352
2034.79469,0.02370
2032.86598,0.02357
2030.93726,0.02328
2029.00854,0.02311
2027.07983,0.02308
2025.15111,0.02310
2023.22240,0.02312
2021.29368,0.02312
2019.36497,0.02313
2017.43625,0.02313
2015.50754,0.02313
2013.57882,0.02315
2011.65011,0.02310
2009.72139,0.02298
2007.79268,0.02296
2005.86396,0.02306
2003.93524,0.02318
2002.00653,0.02327
2000.07781,0.02334
1998.14910,0.02336
1996.22038,0.02331
1994.29167,0.02326
1992.36295,0.02318
1990.43424,0.02312
1988.50552,0.02310
1986.57681,0.02304
1984.64809,0.02300
1982.71938,0.02311
1980.79066,0.02331
1978.86195,0.02343
1976.93323,0.02331
1975.00451,0.02302
1973.07580,0.02286
1971.14708,0.02293
1969.21837,0.02311
1967.28965,0.02329
1965.36094,0.02331
1963.43222,0.02322
1961.50351,0.02318
1959.57479,0.02316
1957.64608,0.02306
1955.71736,0.02297
1953.78865,0.02307
1951.85993,0.02320
1949.93122,0.02321
1948.00250,0.02319
1946.07378,0.02320
1944.14507,0.02318
1942.21635,0.02299
1940.28764,0.02280
1938.35892,0.02279
1936.43021,0.02292
1934.50149,0.02311
1932.57278,0.02318
1930.64406,0.02309
1928.71535,0.02303
1926.78663,0.02301
1924.85792,0.02290
1922.92920,0.02287
1921.00049,0.02300
1919.07177,0.02307
1917.14305,0.02303
1915.21434,0.02298
1913.28562,0.02300
1911.35691,0.02313
1909.42819,0.02321
1907.49948,0.02311
1905.57076,0.02306
1903.64205,0.02320
1901.71333,0.02333
1899.78462,0.02326
1897.85590,0.02307
1895.92719,0.02294
1893.99847,0.02287
1892.06975,0.02273
1890.14104,0.02250
1888.21232,0.02242
1886.28361,0.02260
1884.35489,0.02282
1882.42618,0.02292
1880.49746,0.02282
1878.56875,0.02263
1876.64003,0.02255
1874.71132,0.02267
1872.78260,0.02284
1870.85389,0.02281
1868.92517,0.02264
1866.99646,0.02271
1865.06774,0.02291
1863.13902,0.02295
1861.21031,0.02295
1859.28159,0.02308
1857.35288,0.02321
1855.42416,0.02315
1853.49545,0.02293
1851.56673,0.02268
1849.63802,0.02258
1847.70930,0.02271
1845.78059,0.02279
1843.85187,0.02248
1841.92316,0.02221
1839.99444,0.02231
1838.06573,0.02252
1836.13701,0.02259
1834.20829,0.02255
1832.27958,0.02260
1830.35086,0.02259
1828.42215,0.02244
1826.49343,0.02231
1824.56472,0.02213
1822.63600,0.02205
1820.70729,0.02217
1818.77857,0.02237
1816.84986,0.02250
1814.92114,0.02252
1812.99243,0.02256
1811.06371,0.02261
1809.13499,0.02247
1807.20628,0.02227
1805.27756,0.02215
1803.34885,0.02215
1801.42013,0.02225
1799.49142,0.02236
1797.56270,0.02237
1795.63399,0.02227
1793.70527,0.02199
1791.77656,0.02156
1789.84784,0.02137
1787.91913,0.02147
1785.99041,0.02166
1784.06170,0.02176
1782.13298,0.02170
1780.20426,0.02152
1778.27555,0.02144
1776.34683,0.02164
1774.41812,0.02200
1772.48940,0.02186
1770.56069,0.02082
1768.63197,0.02014
1766.70326,0.02014
1764.77454,0.02030
1762.84583,0.02017
1760.91711,0.01969
1758.98840,0.01941
1757.05968,0.01946
1755.13097,0.01972
1753.20225,0.02010
1751.27353,0.02029
1749.34482,0.02002
1747.41610,0.01981
1745.48739,0.01988
1743.55867,0.02011
1741.62996,0.02049
1739.70124,0.02078
1737.77253,0.02082
1735.84381,0.02071
1733.91510,0.02046
1731.98638,0.02073
1730.05767,0.02150
1728.12895,0.02204
1726.20024,0.02230
1724.27152,0.02254
1722.34280,0.02288
1720.41409,0.02321
1718.48537,0.02321
1716.55666,0.02248
1714.62794,0.02205
1712.69923,0.02227
1710.77051,0.02261
1708.84180,0.02277
1706.91308,0.02276
1704.98437,0.02281
1703.05565,0.02286
1701.12694,0.02242
1699.19822,0.02141
1697.26950,0.02101
1695.34079,0.02122
1693.41207,0.02151
1691.48336,0.02178
1689.55464,0.02191
1687.62593,0.02199
1685.69721,0.02200
1683.76850,0.02143
1681.83978,0.02081
1679.91107,0.02076
1677.98235,0.02098
1676.05364,0.02115
1674.12492,0.02103
1672.19621,0.02100
1670.26749,0.02104
1668.33877,0.02065
1666.41006,0.02043
1664.48134,0.02070
1662.55263,0.02096
1660.62391,0.02088
1658.69520,0.02087
1656.76648,0.02095
1654.83777,0.02059
1652.90905,0.01957
1650.98034,0.01975
1649.05162,0.02012
1647.12291,0.01996
1645.19419,0.02009
1643.26548,0.02046
1641.33676,0.02071
1639.40804,0.02103
1637.47933,0.02129
1635.55061,0.02093
1633.62190,0.02066
1631.69318,0.02078
1629.76447,0.02082
1627.83575,0.02074
1625.90704,0.02075
1623.97832,0.02086
1622.04961,0.02096
1620.12089,0.02116
1618.19218,0.02130
1616.26346,0.02114
1614.33474,0.02100
1612.40603,0.02107
1610.47731,0.02113
1608.54860,0.02102
1606.61988,0.02095
1604.69117,0.02107
1602.76245,0.02114
1600.83374,0.02115
1598.90502,0.02118
1596.97631,0.02114
1595.04759,0.02101
1593.11888,0.02091
1591.19016,0.02087
1589.26145,0.02075
1587.33273,0.02072
1585.40401,0.02093
1583.47530,0.02106
1581.54658,0.02094
1579.61787,0.02089
1577.68915,0.02112
1575.76044,0.02126
1573.83172,0.02126
1571.90301,0.02137
1569.97429,0.02127
1568.04558,0.02085
1566.11686,0.02056
1564.18815,0.02046
1562.25943,0.02047
1560.33072,0.02015
1558.40200,0.01906
1556.47328,0.01932
1554.54457,0.01992
1552.61585,0.02020
1550.68714,0.02040
1548.75842,0.02049
1546.82971,0.02055
1544.90099,0.02067
1542.97228,0.02034
1541.04356,0.01872
1539.11485,0.01845
1537.18613,0.01967
1535.25742,0.02067
1533.32870,0.02115
1531.39999,0.02103
1529.47127,0.02093
1527.54255,0.02098
1525.61384,0.02102
1523.68512,0.02087
1521.75641,0.02081
1519.82769,0.02125
1517.89898,0.02137
1515.97026,0.02091
1514.04155,0.02073
1512.11283,0.02093
1510.18412,0.02096
1508.25540,0.02033
1506.32669,0.01960
1504.39797,0.02009
1502.46925,0.02063
1500.54054,0.02088
1498.61182,0.02077
1496.68311,0.02062
1494.75439,0.02079
1492.82568,0.02113
1490.89696,0.02147
1488.96825,0.02137
1487.03953,0.02086
1485.11082,0.02063
1483.18210,0.02062
1481.25339,0.02064
1479.32467,0.02071
1477.39596,0.02076
1475.46724,0.02053
1473.53852,0.01992
1471.60981,0.01972
1469.68109,0.02013
1467.75238,0.02046
1465.82366,0.02048
1463.89495,0.02054
1461.96623,0.02105
1460.03752,0.02176
1458.10880,0.02197
1456.18009,0.02082
1454.25137,0.02029
1452.32266,0.02042
1450.39394,0.02070
1448.46523,0.02096
1446.53651,0.02102
1444.60779,0.02084
1442.67908,0.02063
1440.75036,0.02060
1438.82165,0.02058
1436.89293,0.02021
1434.96422,0.01991
1433.03550,0.02010
1431.10679,0.02037
1429.17807,0.02047
1427.24936,0.02057
1425.32064,0.02063
1423.39193,0.02046
1421.46321,0.02032
1419.53449,0.02028
1417.60578,0.02012
1415.67706,0.01999
1413.74835,0.01989
1411.81963,0.01980
1409.89092,0.01982
1407.96220,0.02001
1406.03349,0.02025
1404.10477,0.02033
1402.17606,0.02042
1400.24734,0.02083
1398.31863,0.02124
1396.38991,0.02106
1394.46120,0.02044
1392.53248,0.01993
1390.60376,0.01969
1388.67505,0.01973
1386.74633,0.01991
1384.81762,0.01987
1382.88890,0.01973
1380.96019,0.01978
1379.03147,0.01995
1377.10276,0.01998
1375.17404,0.01990
1373.24533,0.01994
1371.31661,0.02003
1369.38790,0.02003
1367.45918,0.01992
1365.53047,0.01973
1363.60175,0.01946
1361.67303,0.01925
1359.74432,0.01929
1357.81560,0.01949
1355.88689,0.01965
1353.95817,0.01967
1352.02946,0.01962
1350.10074,0.01958
1348.17203,0.01953
1346.24331,0.01952
1344.31460,0.01957
1342.38588,0.01968
1340.45717,0.01980
1338.52845,0.01977
1336.59974,0.01951
1334.67102,0.01930
1332.74230,0.01931
1330.81359,0.01940
1328.88487,0.01935
1326.95616,0.01922
1325.02744,0.01920
1323.09873,0.01930
1321.17001,0.01936
1319.24130,0.01935
1317.31258,0.01919
1315.38387,0.01878
1313.45515,0.01835
1311.52644,0.01820
1309.59772,0.01836
1307.66900,0.01860
1305.74029,0.01877
1303.81157,0.01889
1301.88286,0.01890
1299.95414,0.01886
1298.02543,0.01896
1296.09671,0.01913
1294.16800,0.01929
1292.23928,0.01949
1290.31057,0.01973
1288.38185,0.01998
1286.45314,0.02014
1284.52442,0.02025
1282.59571,0.02042
1280.66699,0.02056
1278.73827,0.02062
1276.80956,0.02085
1274.88084,0.02115
1272.95213,0.02124
1271.02341,0.02110
1269.09470,0.02098
1267.16598,0.02109
1265.23727,0.02134
1263.30855,0.02158
1261.37984,0.02176
1259.45112,0.02185
1257.52241,0.02186
1255.59369,0.02184
1253.66498,0.02182
1251.73626,0.02182
1249.80754,0.02194
1247.87883,0.02208
1245.95011,0.02200
1244.02140,0.02180
1242.09268,0.02170
1240.16397,0.02164
1238.23525,0.02160
1236.30654,0.02156
1234.37782,0.02137
1232.44911,0.02113
1230.52039,0.02113
1228.59168,0.02125
1226.66296,0.02125
1224.73424,0.02119
1222.80553,0.02115
1220.87681,0.02115
1218.94810,0.02127
1217.01938,0.02141
1215.09067,0.02122
1213.16195,0.02074
1211.23324,0.02031
1209.30452,0.02011
1207.37581,0.02020
1205.44709,0.02051
1203.51838,0.02082
1201.58966,0.02089
1199.66095,0.02063
1197.73223,0.02026
1195.80351,0.01997
1193.87480,0.01978
1191.94608,0.01971
1190.01737,0.01977
1188.08865,0.01986
1186.15994,0.01983
1184.23122,0.01981
1182.30251,0.01991
1180.37379,0.01993
1178.44508,0.01978
1176.51636,0.01966
1174.58765,0.01962
1172.65893,0.01964
1170.73022,0.01975
1168.80150,0.01980
1166.87278,0.01962
1164.94407,0.01929
1163.01535,0.01904
1161.08664,0.01903
1159.15792,0.01913
1157.22921,0.01907
1155.30049,0.01896
1153.37178,0.01898
1151.44306,0.01886
1149.51435,0.01863
1147.58563,0.01871
1145.65692,0.01916
1143.72820,0.01951
1141.79949,0.01962
1139.87077,0.01969
1137.94205,0.01966
1136.01334,0.01962
1134.08462,0.01984
1132.15591,0.01992
1130.22719,0.01976
1128.29848,0.01992
1126.36976,0.02029
1124.44105,0.02048
1122.51233,0.02058
1120.58362,0.02070
1118.65490,0.02088
1116.72619,0.02093
1114.79747,0.02061
1112.86875,0.02018
1110.94004,0.02005
1109.01132,0.02018
1107.08261,0.02041
1105.15389,0.02067
1103.22518,0.02072
1101.29646,0.02034
1099.36775,0.01981
1097.43903,0.01966
1095.51032,0.01993
1093.58160,0.02014
1091.65289,0.02010
1089.72417,0.02008
1087.79546,0.02016
1085.86674,0.01999
1083.93802,0.01948
1082.00931,0.01926
1080.08059,0.01980
1078.15188,0.02064
1076.22316,0.02110
1074.29445,0.02121
1072.36573,0.02127
1070.43702,0.02139
1068.50830,0.02147
1066.57959,0.02139
1064.65087,0.02125
1062.72216,0.02122
1060.79344,0.02124
1058.86473,0.02106
1056.93601,0.02068
1055.00729,0.02063
1053.07858,0.02095
1051.14986,0.02117
1049.22115,0.02122
1047.29243,0.02129
1045.36372,0.02122
1043.43500,0.02109
1041.50629,0.02114
1039.57757,0.02121
1037.64886,0.02116
1035.72014,0.02104
1033.79143,0.02083
1031.86271,0.02047
1029.93399,0.02017
1028.00528,0.02026
1026.07656,0.02054
1024.14785,0.02072
1022.21913,0.02084
1020.29042,0.02087
1018.36170,0.02075
1016.43299,0.02075
1014.50427,0.02108
1012.57556,0.02150
1010.64684,0.02177
1008.71813,0.02192
1006.78941,0.02212
1004.86070,0.02252
1002.93198,0.02311
1001.00326,0.02339
999.07455,0.02306
997.14583,0.02268
995.21712,0.02269
993.28840,0.02281
991.35969,0.02278
989.43097,0.02276
987.50226,0.02282
985.57354,0.02292
983.64483,0.02316
981.71611,0.02328
979.78740,0.02303
977.85868,0.02271
975.92997,0.02259
974.00125,0.02268
972.07253,0.02277
970.14382,0.02260
968.21510,0.02232
966.28639,0.02229
964.35767,0.02226
962.42896,0.02190
960.50024,0.02156
958.57153,0.02157
956.64281,0.02163
954.71410,0.02161
952.78538,0.02179
950.85667,0.02212
948.92795,0.02221
946.99924,0.02181
945.07052,0.02124
943.14180,0.02105
941.21309,0.02127
939.28437,0.02166
937.35566,0.02214
935.42694,0.02247
933.49823,0.02225
931.56951,0.02163
929.64080,0.02128
927.71208,0.02135
925.78337,0.02146
923.85465,0.02139
921.92594,0.02121
919.99722,0.02123
918.06850,0.02165
916.13979,0.02193
914.21107,0.02155
912.28236,0.02120
910.35364,0.02146
908.42493,0.02173
906.49621,0.02153
904.56750,0.02118
902.63878,0.02093
900.71007,0.02078
898.78135,0.02082
896.85264,0.02102
894.92392,0.02110
892.99521,0.02099
891.06649,0.02093
889.13777,0.02097
887.20906,0.02106
885.28034,0.02129
883.35163,0.02160
881.42291,0.02167
879.49420,0.02147
877.56548,0.02106
875.63677,0.02047
873.70805,0.02010
871.77934,0.02016
869.85062,0.02045
867.92191,0.02079
865.99319,0.02114
864.06448,0.02144
862.13576,0.02152
860.20704,0.02143
858.27833,0.02127
856.34961,0.02121
854.42090,0.02124
852.49218,0.02101
850.56347,0.02061
848.63475,0.02052
846.70604,0.02057
844.77732,0.02061
842.84861,0.02074
840.91989,0.02077
838.99118,0.02072
837.06246,0.02072
835.13375,0.02049
833.20503,0.02019
831.27631,0.02014
829.34760,0.02023
827.41888,0.02038
825.49017,0.02059
823.56145,0.02061
821.63274,0.02052
819.70402,0.02062
817.77531,0.02075
815.84659,0.02092
813.91788,0.02119
811.98916,0.02117
810.06045,0.02075
808.13173,0.02037
806.20301,0.02025
804.27430,0.02015
802.34558,0.01984
800.41687,0.01937
798.48815,0.01905
796.55944,0.01927
794.63072,0.01966
792.70201,0.01970
790.77329,0.01982
788.84458,0.02013
786.91586,0.02013
784.98715,0.02004
783.05843,0.02024
781.12972,0.02035
779.20100,0.02014
777.27228,0.01968
775.34357,0.01919
773.41485,0.01915
771.48614,0.01946
769.55742,0.01958
767.62871,0.01942
765.69999,0.01911
763.77128,0.01904
761.84256,0.01935
759.91385,0.01945
757.98513,0.01910
756.05642,0.01884
754.12770,0.01890
752.19899,0.01906
750.27027,0.01917
748.34155,0.01924
746.41284,0.01931
744.48412,0.01917
742.55541,0.01884
740.62669,0.01877
738.69798,0.01919
736.76926,0.01989
734.84055,0.02046
732.91183,0.02072
730.98312,0.02079
729.05440,0.02048
727.12569,0.01989
725.19697,0.01958
723.26825,0.01956
721.33954,0.01934
719.41082,0.01887
717.48211,0.01870
715.55339,0.01902
713.62468,0.01926
711.69596,0.01898
709.76725,0.01859
707.83853,0.01854
705.90982,0.01879
703.98110,0.01916
702.05239,0.01944
700.12367,0.01935
698.19496,0.01885
696.26624,0.01832
694.33752,0.01804
692.40881,0.01795
690.48009,0.01798
688.55138,0.01831
686.62266,0.01905
684.69395,0.01954
682.76523,0.01941
680.83652,0.01916
678.90780,0.01898
676.97909,0.01876
675.05037,0.01842
673.12166,0.01776
671.19294,0.01683
669.26423,0.01577
667.33551,0.01600
665.40679,0.01746
663.47808,0.01860
661.54936,0.01895
659.62065,0.01838
657.69193,0.01763
655.76322,0.01727
653.83450,0.01743
651.90579,0.01824
649.97707,0.01877
648.04836,0.01824
646.11964,0.01745
644.19093,0.01729
642.26221,0.01722
640.33350,0.01680
638.40478,0.01688
636.47606,0.01781
634.54735,0.01887
632.61863,0.01943
630.68992,0.01902
628.76120,0.01818
626.83249,0.01771
624.90377,0.01760
622.97506,0.01781
621.04634,0.01823
619.11763,0.01812
617.18891,0.01750
615.26020,0.01713
613.33148,0.01687
611.40276,0.01631
609.47405,0.01588
607.54533,0.01567
605.61662,0.01578
603.68790,0.01657
601.75919,0.01773
599.83047,0.01814
