7496.91655,0.12646
7494.98784,0.12580
7493.05912,0.12656
7491.13041,0.12517
7489.20169,0.12144
7487.27297,0.12043
7485.34426,0.12270
7483.41554,0.12351
7481.48683,0.12227
7479.55811,0.12111
7477.62940,0.12148
7475.70068,0.12266
7473.77197,0.12208
7471.84325,0.11901
7469.91454,0.11599
7467.98582,0.11816
7466.05711,0.12404
7464.12839,0.12703
7462.19968,0.12746
7460.27096,0.12791
7458.34224,0.12797
7456.41353,0.12800
7454.48481,0.12788
7452.55610,0.12611
7450.62738,0.12141
7448.69867,0.11725
7446.76995,0.12039
7444.84124,0.12872
7442.91252,0.13028
7440.98381,0.12012
7439.05509,0.10986
7437.12638,0.11119
7435.19766,0.11839
7433.26895,0.12001
7431.34023,0.11714
7429.41151,0.11965
7427.48280,0.12729
7425.55408,0.12885
7423.62537,0.12273
7421.69665,0.11876
7419.76794,0.12189
7417.83922,0.12712
7415.91051,0.12638
7413.98179,0.12015
7412.05308,0.11483
7410.12436,0.11371
7408.19565,0.11677
7406.26693,0.12144
7404.33821,0.12343
7402.40950,0.12053
7400.48078,0.11409
7398.55207,0.10879
7396.62335,0.10773
7394.69464,0.10887
7392.76592,0.11055
7390.83721,0.11193
7388.90849,0.11228
7386.97978,0.11091
7385.05106,0.10459
7383.12235,0.09699
7381.19363,0.10014
7379.26492,0.11521
7377.33620,0.12508
7375.40748,0.11963
7373.47877,0.11093
7371.55005,0.10917
7369.62134,0.11010
7367.69262,0.11187
7365.76391,0.11449
7363.83519,0.11394
7361.90648,0.11327
7359.97776,0.12056
7358.04905,0.12857
7356.12033,0.12643
7354.19162,0.11480
7352.26290,0.10263
7350.33419,0.09765
7348.40547,0.09897
7346.47675,0.10086
7344.54804,0.10061
7342.61932,0.09808
7340.69061,0.09632
7338.76189,0.09834
7336.83318,0.10169
7334.90446,0.10313
7332.97575,0.10372
7331.04703,0.10272
7329.11832,0.09847
7327.18960,0.09614
7325.26089,0.10102
7323.33217,0.10541
7321.40346,0.10297
7319.47474,0.10063
7317.54602,0.10300
7315.61731,0.10552
7313.68859,0.10733
7311.75988,0.10677
7309.83116,0.10124
7307.90245,0.09713
7305.97373,0.09934
7304.04502,0.10254
7302.11630,0.10440
7300.18759,0.10989
7298.25887,0.11825
7296.33016,0.12222
7294.40144,0.12032
7292.47272,0.11441
7290.54401,0.10572
7288.61529,0.09677
7286.68658,0.09388
7284.75786,0.09816
7282.82915,0.10135
7280.90043,0.09969
7278.97172,0.09729
7277.04300,0.09556
7275.11429,0.09365
7273.18557,0.09476
7271.25686,0.10049
7269.32814,0.10511
7267.39943,0.10369
7265.47071,0.09757
7263.54199,0.09302
7261.61328,0.09395
7259.68456,0.09600
7257.75585,0.09713
7255.82713,0.09964
7253.89842,0.09947
7251.96970,0.09731
7250.04099,0.10066
7248.11227,0.10520
7246.18356,0.10344
7244.25484,0.09920
7242.32613,0.10023
7240.39741,0.10403
7238.46870,0.10465
7236.53998,0.10379
7234.61126,0.10340
7232.68255,0.10260
7230.75383,0.10169
7228.82512,0.10071
7226.89640,0.09582
7224.96769,0.09090
7223.03897,0.09355
7221.11026,0.10112
7219.18154,0.10387
7217.25283,0.10056
7215.32411,0.09626
7213.39540,0.09559
7211.46668,0.09911
7209.53796,0.10063
7207.60925,0.09941
7205.68053,0.09993
7203.75182,0.10077
7201.82310,0.10106
7199.89439,0.10111
7197.96567,0.10101
7196.03696,0.10209
7194.10824,0.10123
7192.17953,0.09543
7190.25081,0.08803
7188.32210,0.08441
7186.39338,0.08690
7184.46467,0.09272
7182.53595,0.09787
7180.60723,0.10004
7178.67852,0.10073
7176.74980,0.10221
7174.82109,0.10454
7172.89237,0.10467
7170.96366,0.10067
7169.03494,0.09800
7167.10623,0.10012
7165.17751,0.09906
7163.24880,0.09396
7161.32008,0.09354
7159.39137,0.09831
7157.46265,0.10016
7155.53394,0.09732
7153.60522,0.09447
7151.67650,0.09545
7149.74779,0.09759
7147.81907,0.09741
7145.89036,0.09695
7143.96164,0.09740
7142.03293,0.09506
7140.10421,0.09032
7138.17550,0.09054
7136.24678,0.09531
7134.31807,0.09590
7132.38935,0.09459
7130.46064,0.09849
7128.53192,0.10282
7126.60321,0.10042
7124.67449,0.09648
7122.74577,0.09643
7120.81706,0.09632
7118.88834,0.09366
7116.95963,0.09086
7115.03091,0.09273
7113.10220,0.09939
7111.17348,0.10497
7109.24477,0.10820
7107.31605,0.10841
7105.38734,0.10300
7103.45862,0.09761
7101.52991,0.09614
7099.60119,0.09605
7097.67247,0.09669
7095.74376,0.09710
7093.81504,0.09544
7091.88633,0.09474
7089.95761,0.09756
7088.02890,0.10039
7086.10018,0.10227
7084.17147,0.10338
7082.24275,0.10173
7080.31404,0.09928
7078.38532,0.09886
7076.45661,0.10135
7074.52789,0.10668
7072.59918,0.11194
7070.67046,0.11395
7068.74174,0.11162
7066.81303,0.10743
7064.88431,0.10540
7062.95560,0.10668
7061.02688,0.10815
7059.09817,0.10861
7057.16945,0.11071
7055.24074,0.11262
7053.31202,0.11169
7051.38331,0.11182
7049.45459,0.11479
7047.52588,0.11547
7045.59716,0.11040
7043.66845,0.10439
7041.73973,0.10387
7039.81101,0.10885
7037.88230,0.11386
7035.95358,0.11492
7034.02487,0.11224
7032.09615,0.10913
7030.16744,0.11070
7028.23872,0.11594
7026.31001,0.11741
7024.38129,0.11381
7022.45258,0.11096
7020.52386,0.11140
7018.59515,0.11316
7016.66643,0.11515
7014.73771,0.11600
7012.80900,0.11521
7010.88028,0.11524
7008.95157,0.11656
7007.02285,0.11556
7005.09414,0.11039
7003.16542,0.10414
7001.23671,0.09962
6999.30799,0.09780
6997.37928,0.10028
6995.45056,0.10509
6993.52185,0.10740
6991.59313,0.10739
6989.66442,0.10998
6987.73570,0.11457
6985.80698,0.11594
6983.87827,0.11514
6981.94955,0.11532
6980.02084,0.11427
6978.09212,0.11087
6976.16341,0.10776
6974.23469,0.10654
6972.30598,0.10740
6970.37726,0.10970
6968.44855,0.11160
6966.51983,0.11361
6964.59112,0.11658
6962.66240,0.11751
6960.73369,0.11557
6958.80497,0.11522
6956.87625,0.11678
6954.94754,0.11549
6953.01882,0.11169
6951.09011,0.11108
6949.16139,0.11352
6947.23268,0.11514
6945.30396,0.11662
6943.37525,0.11811
6941.44653,0.11641
6939.51782,0.11286
6937.58910,0.10889
6935.66039,0.10431
6933.73167,0.10234
6931.80296,0.10533
6929.87424,0.11029
6927.94552,0.11292
6926.01681,0.11177
6924.08809,0.11149
6922.15938,0.11628
6920.23066,0.12155
6918.30195,0.12136
6916.37323,0.11700
6914.44452,0.11267
6912.51580,0.11052
6910.58709,0.11139
6908.65837,0.11498
6906.72966,0.11769
6904.80094,0.11626
6902.87222,0.11356
6900.94351,0.11412
6899.01479,0.11629
6897.08608,0.11669
6895.15736,0.11585
6893.22865,0.11497
6891.29993,0.11469
6889.37122,0.11653
6887.44250,0.11927
6885.51379,0.11871
6883.58507,0.11536
6881.65636,0.11499
6879.72764,0.11653
6877.79893,0.11494
6875.87021,0.11185
6873.94149,0.10991
6872.01278,0.10916
6870.08406,0.11069
6868.15535,0.11451
6866.22663,0.11844
6864.29792,0.12006
6862.36920,0.11841
6860.44049,0.11567
6858.51177,0.11539
6856.58306,0.11666
6854.65434,0.11642
6852.72563,0.11537
6850.79691,0.11439
6848.86820,0.11341
6846.93948,0.11441
6845.01076,0.11581
6843.08205,0.11337
6841.15333,0.10919
6839.22462,0.10869
6837.29590,0.11183
6835.36719,0.11329
6833.43847,0.11062
6831.50976,0.10872
6829.58104,0.11149
6827.65233,0.11703
6825.72361,0.11956
6823.79490,0.11621
6821.86618,0.11317
6819.93746,0.11457
6818.00875,0.11626
6816.08003,0.11613
6814.15132,0.11519
6812.22260,0.11488
6810.29389,0.11573
6808.36517,0.11611
6806.43646,0.11573
6804.50774,0.11718
6802.57903,0.12041
6800.65031,0.12180
6798.72160,0.12040
6796.79288,0.11795
6794.86417,0.11533
6792.93545,0.11441
6791.00673,0.11566
6789.07802,0.11642
6787.14930,0.11663
6785.22059,0.11884
6783.29187,0.12143
6781.36316,0.12053
6779.43444,0.11673
6777.50573,0.11423
6775.57701,0.11488
6773.64830,0.11669
6771.71958,0.11715
6769.79087,0.11579
6767.86215,0.11409
6765.93344,0.11448
6764.00472,0.11748
6762.07600,0.11969
6760.14729,0.11887
6758.21857,0.11755
6756.28986,0.11823
6754.36114,0.12078
6752.43243,0.12301
6750.50371,0.12347
6748.57500,0.12358
6746.64628,0.12341
6744.71757,0.12033
6742.78885,0.11468
6740.86014,0.11078
6738.93142,0.11206
6737.00271,0.11784
6735.07399,0.12397
6733.14527,0.12675
6731.21656,0.12608
6729.28784,0.12313
6727.35913,0.12030
6725.43041,0.12095
6723.50170,0.12415
6721.57298,0.12650
6719.64427,0.12713
6717.71555,0.12607
6715.78684,0.12406
6713.85812,0.12173
6711.92941,0.11873
6710.00069,0.11676
6708.07197,0.11740
6706.14326,0.11997
6704.21454,0.12262
6702.28583,0.12351
6700.35711,0.12424
6698.42840,0.12594
6696.49968,0.12581
6694.57097,0.12323
6692.64225,0.12107
6690.71354,0.11808
6688.78482,0.11251
6686.85611,0.11046
6684.92739,0.11525
6682.99868,0.12114
6681.06996,0.12332
6679.14124,0.12217
6677.21253,0.12064
6675.28381,0.12114
6673.35510,0.12292
6671.42638,0.12293
6669.49767,0.12111
6667.56895,0.12078
6665.64024,0.12298
6663.71152,0.12552
6661.78281,0.12545
6659.85409,0.12262
6657.92538,0.12048
6655.99666,0.12047
6654.06795,0.12216
6652.13923,0.12535
6650.21051,0.12791
6648.28180,0.12857
6646.35308,0.12824
6644.42437,0.12657
6642.49565,0.12511
6640.56694,0.12635
6638.63822,0.12751
6636.70951,0.12647
6634.78079,0.12589
6632.85208,0.12553
6630.92336,0.12388
6628.99465,0.12389
6627.06593,0.12537
6625.13722,0.12377
6623.20850,0.12095
6621.27978,0.12181
6619.35107,0.12545
6617.42235,0.12814
6615.49364,0.12731
6613.56492,0.12406
6611.63621,0.12329
6609.70749,0.12667
6607.77878,0.13070
6605.85006,0.13204
6603.92135,0.13080
6601.99263,0.12893
6600.06392,0.12666
6598.13520,0.12446
6596.20648,0.12437
6594.27777,0.12649
6592.34905,0.12804
6590.42034,0.12648
6588.49162,0.12413
6586.56291,0.12426
6584.63419,0.12571
6582.70548,0.12820
6580.77676,0.13216
6578.84805,0.13457
6576.91933,0.13280
6574.99062,0.12928
6573.06190,0.12838
6571.13319,0.12968
6569.20447,0.13075
6567.27575,0.13063
6565.34704,0.12900
6563.41832,0.12747
6561.48961,0.12823
6559.56089,0.13046
6557.63218,0.13247
6555.70346,0.13390
6553.77475,0.13367
6551.84603,0.13173
6549.91732,0.13049
6547.98860,0.13044
6546.05989,0.13004
6544.13117,0.12926
6542.20246,0.12990
6540.27374,0.13182
6538.34502,0.13258
6536.41631,0.13066
6534.48759,0.12671
6532.55888,0.12433
6530.63016,0.12651
6528.70145,0.13022
6526.77273,0.13137
6524.84402,0.13039
6522.91530,0.12918
6520.98659,0.12822
6519.05787,0.12761
6517.12916,0.12733
6515.20044,0.12815
6513.27172,0.13002
6511.34301,0.13027
6509.41429,0.12870
6507.48558,0.12893
6505.55686,0.13136
6503.62815,0.13246
6501.69943,0.13097
6499.77072,0.12913
6497.84200,0.12793
6495.91329,0.12789
6493.98457,0.12920
6492.05586,0.12907
6490.12714,0.12690
6488.19843,0.12588
6486.26971,0.12757
6484.34099,0.13080
6482.41228,0.13213
6480.48356,0.13050
6478.55485,0.12992
6476.62613,0.13184
6474.69742,0.13280
6472.76870,0.13148
6470.83999,0.13076
6468.91127,0.13226
6466.98256,0.13330
6465.05384,0.13219
6463.12513,0.13182
6461.19641,0.13368
6459.26770,0.13458
6457.33898,0.13263
6455.41026,0.13013
6453.48155,0.12963
6451.55283,0.13087
6449.62412,0.13105
6447.69540,0.12898
6445.76669,0.12766
6443.83797,0.12983
6441.90926,0.13306
6439.98054,0.13245
6438.05183,0.12875
6436.12311,0.12674
6434.19440,0.12702
6432.26568,0.12770
6430.33697,0.12812
6428.40825,0.12886
6426.47953,0.13045
6424.55082,0.13061
6422.62210,0.12840
6420.69339,0.12667
6418.76467,0.12674
6416.83596,0.12696
6414.90724,0.12692
6412.97853,0.12736
6411.04981,0.12831
6409.12110,0.12964
6407.19238,0.13012
6405.26367,0.12930
6403.33495,0.12875
6401.40623,0.12806
6399.47752,0.12743
6397.54880,0.12855
6395.62009,0.13042
6393.69137,0.13135
6391.76266,0.13123
6389.83394,0.13116
6387.90523,0.13196
6385.97651,0.13146
6384.04780,0.12905
6382.11908,0.12785
6380.19037,0.12798
6378.26165,0.12674
6376.33294,0.12385
6374.40422,0.12165
6372.47550,0.12279
6370.54679,0.12685
6368.61807,0.13046
6366.68936,0.13073
6364.76064,0.12872
6362.83193,0.12785
6360.90321,0.12860
6358.97450,0.12856
6357.04578,0.12689
6355.11707,0.12603
6353.18835,0.12705
6351.25964,0.12721
6349.33092,0.12570
6347.40221,0.12470
6345.47349,0.12566
6343.54477,0.12753
6341.61606,0.12865
6339.68734,0.12932
6337.75863,0.13023
6335.82991,0.13034
6333.90120,0.12920
6331.97248,0.12803
6330.04377,0.12685
6328.11505,0.12572
6326.18634,0.12637
6324.25762,0.12715
6322.32891,0.12569
6320.40019,0.12434
6318.47147,0.12440
6316.54276,0.12358
6314.61404,0.12232
6312.68533,0.12153
6310.75661,0.12015
6308.82790,0.11997
6306.89918,0.12142
6304.97047,0.12160
6303.04175,0.12187
6301.11304,0.12422
6299.18432,0.12621
6297.25561,0.12596
6295.32689,0.12469
6293.39818,0.12430
6291.46946,0.12492
6289.54074,0.12423
6287.61203,0.12169
6285.68331,0.12067
6283.75460,0.12247
6281.82588,0.12417
6279.89717,0.12423
6277.96845,0.12402
6276.03974,0.12376
6274.11102,0.12202
6272.18231,0.11939
6270.25359,0.11707
6268.32488,0.11536
6266.39616,0.11599
6264.46745,0.11831
6262.53873,0.11839
6260.61001,0.11742
6258.68130,0.11896
6256.75258,0.12091
6254.82387,0.12038
6252.89515,0.11879
6250.96644,0.11717
6249.03772,0.11412
6247.10901,0.11009
6245.18029,0.10836
6243.25158,0.11014
6241.32286,0.11233
6239.39415,0.11198
6237.46543,0.11092
6235.53672,0.11204
6233.60800,0.11371
6231.67928,0.11347
6229.75057,0.11200
6227.82185,0.11091
6225.89314,0.11087
6223.96442,0.11174
6222.03571,0.11272
6220.10699,0.11198
6218.17828,0.10838
6216.24956,0.10394
6214.32085,0.10150
6212.39213,0.10161
6210.46342,0.10339
6208.53470,0.10540
6206.60598,0.10627
6204.67727,0.10602
6202.74855,0.10509
6200.81984,0.10341
6198.89112,0.10133
6196.96241,0.09916
6195.03369,0.09716
6193.10498,0.09619
6191.17626,0.09579
6189.24755,0.09412
6187.31883,0.09146
6185.39012,0.08998
6183.46140,0.08991
6181.53269,0.08966
6179.60397,0.08865
6177.67525,0.08733
6175.74654,0.08620
6173.81782,0.08595
6171.88911,0.08648
6169.96039,0.08680
6168.03168,0.08688
6166.10296,0.08589
6164.17425,0.08317
6162.24553,0.08112
6160.31682,0.08099
6158.38810,0.08176
6156.45939,0.08377
6154.53067,0.08642
6152.60196,0.08740
6150.67324,0.08611
6148.74452,0.08376
6146.81581,0.08108
6144.88709,0.07866
6142.95838,0.07757
6141.02966,0.07758
6139.10095,0.07731
6137.17223,0.07642
6135.24352,0.07484
6133.31480,0.07240
6131.38609,0.07116
6129.45737,0.07267
6127.52866,0.07376
6125.59994,0.07215
6123.67122,0.07046
6121.74251,0.06994
6119.81379,0.06890
6117.88508,0.06738
6115.95636,0.06676
6114.02765,0.06737
6112.09893,0.06850
6110.17022,0.06915
6108.24150,0.06875
6106.31279,0.06748
6104.38407,0.06661
6102.45536,0.06684
6100.52664,0.06695
6098.59793,0.06637
6096.66921,0.06528
6094.74049,0.06350
6092.81178,0.06160
6090.88306,0.06014
6088.95435,0.05920
6087.02563,0.05932
6085.09692,0.06060
6083.16820,0.06140
6081.23949,0.06085
6079.31077,0.06013
6077.38206,0.05943
6075.45334,0.05869
6073.52463,0.05848
6071.59591,0.05873
6069.66720,0.05873
6067.73848,0.05759
6065.80976,0.05632
6063.88105,0.05734
6061.95233,0.06009
6060.02362,0.06129
6058.09490,0.06018
6056.16619,0.05890
6054.23747,0.05832
6052.30876,0.05804
6050.38004,0.05781
6048.45133,0.05737
6046.52261,0.05655
6044.59390,0.05566
6042.66518,0.05519
6040.73647,0.05487
6038.80775,0.05470
6036.87903,0.05566
6034.95032,0.05732
6033.02160,0.05823
6031.09289,0.05805
6029.16417,0.05747
6027.23546,0.05714
6025.30674,0.05650
6023.37803,0.05542
6021.44931,0.05569
6019.52060,0.05665
6017.59188,0.05569
6015.66317,0.05368
6013.73445,0.05345
6011.80573,0.05502
6009.87702,0.05611
6007.94830,0.05596
6006.01959,0.05589
6004.09087,0.05595
6002.16216,0.05545
6000.23344,0.05543
5998.30473,0.05644
5996.37601,0.05742
5994.44730,0.05768
5992.51858,0.05727
5990.58987,0.05681
5988.66115,0.05679
5986.73244,0.05653
5984.80372,0.05589
5982.87500,0.05544
5980.94629,0.05595
5979.01757,0.05778
5977.08886,0.05845
5975.16014,0.05673
5973.23143,0.05539
5971.30271,0.05573
5969.37400,0.05632
5967.44528,0.05643
5965.51657,0.05598
5963.58785,0.05514
5961.65914,0.05439
5959.73042,0.05410
5957.80171,0.05434
5955.87299,0.05506
5953.94427,0.05620
5952.01556,0.05695
5950.08684,0.05670
5948.15813,0.05662
5946.22941,0.05701
5944.30070,0.05689
5942.37198,0.05670
5940.44327,0.05717
5938.51455,0.05773
5936.58584,0.05748
5934.65712,0.05649
5932.72841,0.05566
5930.79969,0.05551
5928.87097,0.05620
5926.94226,0.05729
5925.01354,0.05769
5923.08483,0.05737
5921.15611,0.05758
5919.22740,0.05844
5917.29868,0.05837
5915.36997,0.05749
5913.44125,0.05756
5911.51254,0.05804
5909.58382,0.05771
5907.65511,0.05717
5905.72639,0.05725
5903.79768,0.05765
5901.86896,0.05777
5899.94024,0.05775
5898.01153,0.05839
5896.08281,0.05946
5894.15410,0.05975
5892.22538,0.05935
5890.29667,0.05872
5888.36795,0.05742
5886.43924,0.05632
5884.51052,0.05589
5882.58181,0.05472
5880.65309,0.05310
5878.72438,0.05313
5876.79566,0.05560
5874.86695,0.05867
5872.93823,0.05982
5871.00951,0.05943
5869.08080,0.05899
5867.15208,0.05865
5865.22337,0.05822
5863.29465,0.05771
5861.36594,0.05724
5859.43722,0.05818
5857.50851,0.06110
5855.57979,0.06339
5853.65108,0.06315
5851.72236,0.06216
5849.79365,0.06201
5847.86493,0.06220
5845.93622,0.06215
5844.00750,0.06181
5842.07878,0.06160
5840.15007,0.06232
5838.22135,0.06392
5836.29264,0.06494
5834.36392,0.06445
5832.43521,0.06353
5830.50649,0.06346
5828.57778,0.06418
5826.64906,0.06479
5824.72035,0.06450
5822.79163,0.06376
5820.86292,0.06448
5818.93420,0.06621
5817.00548,0.06652
5815.07677,0.06577
5813.14805,0.06587
5811.21934,0.06659
5809.29062,0.06652
5807.36191,0.06557
5805.43319,0.06474
5803.50448,0.06450
5801.57576,0.06456
5799.64705,0.06444
5797.71833,0.06431
5795.78962,0.06431
5793.86090,0.06355
5791.93219,0.06214
5790.00347,0.06132
5788.07475,0.06081
5786.14604,0.05989
5784.21732,0.05962
5782.28861,0.06075
5780.35989,0.06158
5778.43118,0.06082
5776.50246,0.05965
5774.57375,0.05976
5772.64503,0.06087
5770.71632,0.06180
5768.78760,0.06229
5766.85889,0.06220
5764.93017,0.06184
5763.00146,0.06206
5761.07274,0.06233
5759.14402,0.06221
5757.21531,0.06272
5755.28659,0.06356
5753.35788,0.06363
5751.42916,0.06281
5749.50045,0.06147
5747.57173,0.06117
5745.64302,0.06240
5743.71430,0.06364
5741.78559,0.06480
5739.85687,0.06575
5737.92816,0.06539
5735.99944,0.06464
5734.07072,0.06520
5732.14201,0.06681
5730.21329,0.06829
5728.28458,0.06978
5726.35586,0.07121
5724.42715,0.07184
5722.49843,0.07219
5720.56972,0.07314
5718.64100,0.07410
5716.71229,0.07449
5714.78357,0.07543
5712.85486,0.07715
5710.92614,0.07773
5708.99743,0.07717
5707.06871,0.07737
5705.13999,0.07885
5703.21128,0.08043
5701.28256,0.08036
5699.35385,0.07835
5697.42513,0.07629
5695.49642,0.07522
5693.56770,0.07444
5691.63899,0.07380
5689.71027,0.07365
5687.78156,0.07368
5685.85284,0.07357
5683.92413,0.07416
5681.99541,0.07518
5680.06670,0.07469
5678.13798,0.07307
5676.20926,0.07199
5674.28055,0.07139
5672.35183,0.07090
5670.42312,0.07061
5668.49440,0.07063
5666.56569,0.07115
5664.63697,0.07163
5662.70826,0.07137
5660.77954,0.07073
5658.85083,0.06999
5656.92211,0.06902
5654.99340,0.06871
5653.06468,0.06957
5651.13597,0.07050
5649.20725,0.07084
5647.27853,0.07150
5645.34982,0.07244
5643.42110,0.07337
5641.49239,0.07536
5639.56367,0.07776
5637.63496,0.07874
5635.70624,0.07884
5633.77753,0.07913
5631.84881,0.07897
5629.92010,0.07886
5627.99138,0.08073
5626.06267,0.08361
5624.13395,0.08481
5622.20523,0.08433
5620.27652,0.08392
5618.34780,0.08457
5616.41909,0.08593
5614.49037,0.08654
5612.56166,0.08589
5610.63294,0.08572
5608.70423,0.08720
5606.77551,0.08937
5604.84680,0.09085
5602.91808,0.09078
5600.98937,0.08931
5599.06065,0.08807
5597.13194,0.08806
5595.20322,0.08842
5593.27450,0.08843
5591.34579,0.08811
5589.41707,0.08756
5587.48836,0.08680
5585.55964,0.08611
5583.63093,0.08605
5581.70221,0.08627
5579.77350,0.08591
5577.84478,0.08546
5575.91607,0.08601
5573.98735,0.08683
5572.05864,0.08673
5570.12992,0.08641
5568.20121,0.08652
5566.27249,0.08652
5564.34377,0.08649
5562.41506,0.08698
5560.48634,0.08737
5558.55763,0.08690
5556.62891,0.08632
5554.70020,0.08653
5552.77148,0.08682
5550.84277,0.08669
5548.91405,0.08657
5546.98534,0.08624
5545.05662,0.08574
5543.12791,0.08576
5541.19919,0.08587
5539.27047,0.08562
5537.34176,0.08550
5535.41304,0.08527
5533.48433,0.08422
5531.55561,0.08318
5529.62690,0.08343
5527.69818,0.08476
5525.76947,0.08606
5523.84075,0.08655
5521.91204,0.08631
5519.98332,0.08549
5518.05461,0.08450
5516.12589,0.08440
5514.19718,0.08535
5512.26846,0.08622
5510.33974,0.08625
5508.41103,0.08609
5506.48231,0.08663
5504.55360,0.08702
5502.62488,0.08684
5500.69617,0.08714
5498.76745,0.08814
5496.83874,0.08855
5494.91002,0.08742
5492.98131,0.08542
5491.05259,0.08422
5489.12388,0.08486
5487.19516,0.08602
5485.26645,0.08561
5483.33773,0.08437
5481.40901,0.08388
5479.48030,0.08380
5477.55158,0.08356
5475.62287,0.08331
5473.69415,0.08323
5471.76544,0.08339
5469.83672,0.08396
5467.90801,0.08419
5465.97929,0.08319
5464.05058,0.08210
5462.12186,0.08231
5460.19315,0.08318
5458.26443,0.08374
5456.33572,0.08444
5454.40700,0.08482
5452.47828,0.08408
5450.54957,0.08383
5448.62085,0.08517
5446.69214,0.08669
5444.76342,0.08755
5442.83471,0.08744
5440.90599,0.08696
5438.97728,0.08772
5437.04856,0.08912
5435.11985,0.08981
5433.19113,0.08955
5431.26242,0.08892
5429.33370,0.08849
5427.40498,0.08815
5425.47627,0.08799
5423.54755,0.08845
5421.61884,0.08908
5419.69012,0.08896
5417.76141,0.08798
5415.83269,0.08701
5413.90398,0.08680
5411.97526,0.08694
5410.04655,0.08731
5408.11783,0.08767
5406.18912,0.08737
5404.26040,0.08694
5402.33169,0.08707
5400.40297,0.08777
5398.47425,0.08853
5396.54554,0.08856
5394.61682,0.08784
5392.68811,0.08755
5390.75939,0.08851
5388.83068,0.08966
5386.90196,0.08996
5384.97325,0.08979
5383.04453,0.08943
5381.11582,0.08904
5379.18710,0.08931
5377.25839,0.09007
5375.32967,0.08994
5373.40096,0.08863
5371.47224,0.08755
5369.54352,0.08722
5367.61481,0.08722
5365.68609,0.08718
5363.75738,0.08718
5361.82866,0.08774
5359.89995,0.08867
5357.97123,0.08907
5356.04252,0.08873
5354.11380,0.08801
5352.18509,0.08749
5350.25637,0.08730
5348.32766,0.08734
5346.39894,0.08764
5344.47022,0.08781
5342.54151,0.08721
5340.61279,0.08635
5338.68408,0.08636
5336.75536,0.08663
5334.82665,0.08567
5332.89793,0.08467
5330.96922,0.08526
5329.04050,0.08664
5327.11179,0.08758
5325.18307,0.08794
5323.25436,0.08772
5321.32564,0.08746
5319.39693,0.08745
5317.46821,0.08713
5315.53949,0.08700
5313.61078,0.08773
5311.68206,0.08840
5309.75335,0.08783
5307.82463,0.08636
5305.89592,0.08568
5303.96720,0.08569
5302.03849,0.08525
5300.10977,0.08483
5298.18106,0.08455
5296.25234,0.08384
5294.32363,0.08304
5292.39491,0.08230
5290.46620,0.08139
5288.53748,0.08028
5286.60876,0.07866
5284.68005,0.07673
5282.75133,0.07548
5280.82262,0.07522
5278.89390,0.07503
5276.96519,0.07402
5275.03647,0.07242
5273.10776,0.07070
5271.17904,0.06937
5269.25033,0.06911
5267.32161,0.06948
5265.39290,0.06959
5263.46418,0.06944
5261.53547,0.06929
5259.60675,0.06925
5257.67803,0.06934
5255.74932,0.06974
5253.82060,0.07072
5251.89189,0.07207
5249.96317,0.07349
5248.03446,0.07468
5246.10574,0.07519
5244.17703,0.07559
5242.24831,0.07696
5240.31960,0.07907
5238.39088,0.08094
5236.46217,0.08253
5234.53345,0.08388
5232.60473,0.08465
5230.67602,0.08543
5228.74730,0.08680
5226.81859,0.08871
5224.88987,0.09054
5222.96116,0.09112
5221.03244,0.09108
5219.10373,0.09164
5217.17501,0.09246
5215.24630,0.09269
5213.31758,0.09236
5211.38887,0.09202
5209.46015,0.09227
5207.53144,0.09268
5205.60272,0.09232
5203.67400,0.09227
5201.74529,0.09315
5199.81657,0.09389
5197.88786,0.09406
5195.95914,0.09366
5194.03043,0.09268
5192.10171,0.09195
5190.17300,0.09207
5188.24428,0.09275
5186.31557,0.09315
5184.38685,0.09223
5182.45814,0.09041
5180.52942,0.08972
5178.60071,0.09067
5176.67199,0.09166
5174.74327,0.09144
5172.81456,0.09087
5170.88584,0.09098
5168.95713,0.09129
5167.02841,0.09135
5165.09970,0.09156
5163.17098,0.09177
5161.24227,0.09181
5159.31355,0.09184
5157.38484,0.09177
5155.45612,0.09205
5153.52741,0.09326
5151.59869,0.09468
5149.66997,0.09534
5147.74126,0.09519
5145.81254,0.09497
5143.88383,0.09522
5141.95511,0.09565
5140.02640,0.09597
5138.09768,0.09627
5136.16897,0.09672
5134.24025,0.09772
5132.31154,0.09879
5130.38282,0.09892
5128.45411,0.09809
5126.52539,0.09690
5124.59668,0.09596
5122.66796,0.09560
5120.73924,0.09577
5118.81053,0.09634
5116.88181,0.09718
5114.95310,0.09810
5113.02438,0.09868
5111.09567,0.09874
5109.16695,0.09857
5107.23824,0.09812
5105.30952,0.09740
5103.38081,0.09730
5101.45209,0.09807
5099.52338,0.09854
5097.59466,0.09826
5095.66595,0.09799
5093.73723,0.09780
5091.80851,0.09728
5089.87980,0.09657
5087.95108,0.09603
5086.02237,0.09602
5084.09365,0.09611
5082.16494,0.09572
5080.23622,0.09540
5078.30751,0.09556
5076.37879,0.09563
5074.45008,0.09527
5072.52136,0.09505
5070.59265,0.09561
5068.66393,0.09663
5066.73522,0.09755
5064.80650,0.09829
5062.87778,0.09879
5060.94907,0.09901
5059.02035,0.09899
5057.09164,0.09881
5055.16292,0.09852
5053.23421,0.09799
5051.30549,0.09712
5049.37678,0.09620
5047.44806,0.09557
5045.51935,0.09535
5043.59063,0.09580
5041.66192,0.09676
5039.73320,0.09722
5037.80448,0.09728
5035.87577,0.09785
5033.94705,0.09809
5032.01834,0.09704
5030.08962,0.09573
5028.16091,0.09517
5026.23219,0.09531
5024.30348,0.09593
5022.37476,0.09623
5020.44605,0.09565
5018.51733,0.09499
5016.58862,0.09475
5014.65990,0.09469
5012.73119,0.09444
5010.80247,0.09378
5008.87375,0.09348
5006.94504,0.09374
5005.01632,0.09360
5003.08761,0.09329
5001.15889,0.09344
4999.23018,0.09340
4997.30146,0.09274
4995.37275,0.09206
4993.44403,0.09207
4991.51532,0.09250
4989.58660,0.09238
4987.65789,0.09158
4985.72917,0.09071
4983.80046,0.09011
4981.87174,0.08980
4979.94302,0.08956
4978.01431,0.08951
4976.08559,0.08990
4974.15688,0.09018
4972.22816,0.09008
4970.29945,0.09043
4968.37073,0.09124
4966.44202,0.09130
4964.51330,0.09017
4962.58459,0.08896
4960.65587,0.08899
4958.72716,0.08996
4956.79844,0.09053
4954.86972,0.09044
4952.94101,0.09015
4951.01229,0.08989
4949.08358,0.08972
4947.15486,0.08949
4945.22615,0.08935
4943.29743,0.08951
4941.36872,0.08959
4939.44000,0.08949
4937.51129,0.08929
4935.58257,0.08883
4933.65386,0.08852
4931.72514,0.08873
4929.79643,0.08884
4927.86771,0.08857
4925.93899,0.08824
4924.01028,0.08759
4922.08156,0.08659
4920.15285,0.08570
4918.22413,0.08490
4916.29542,0.08400
4914.36670,0.08305
4912.43799,0.08222
4910.50927,0.08164
4908.58056,0.08097
4906.65184,0.08027
4904.72313,0.07965
4902.79441,0.07875
4900.86570,0.07778
4898.93698,0.07730
4897.00826,0.07711
4895.07955,0.07703
4893.15083,0.07720
4891.22212,0.07694
4889.29340,0.07586
4887.36469,0.07543
4885.43597,0.07645
4883.50726,0.07743
4881.57854,0.07730
4879.64983,0.07659
4877.72111,0.07596
4875.79240,0.07544
4873.86368,0.07492
4871.93497,0.07444
4870.00625,0.07403
4868.07753,0.07364
4866.14882,0.07346
4864.22010,0.07349
4862.29139,0.07307
4860.36267,0.07226
4858.43396,0.07166
4856.50524,0.07119
4854.57653,0.07079
4852.64781,0.07057
4850.71910,0.07017
4848.79038,0.06988
4846.86167,0.07020
4844.93295,0.07071
4843.00423,0.07080
4841.07552,0.07048
4839.14680,0.07037
4837.21809,0.07077
4835.28937,0.07132
4833.36066,0.07187
4831.43194,0.07235
4829.50323,0.07237
4827.57451,0.07189
4825.64580,0.07164
4823.71708,0.07198
4821.78837,0.07240
4819.85965,0.07245
4817.93094,0.07228
4816.00222,0.07235
4814.07350,0.07272
4812.14479,0.07319
4810.21607,0.07350
4808.28736,0.07346
4806.35864,0.07310
4804.42993,0.07271
4802.50121,0.07287
4800.57250,0.07352
4798.64378,0.07384
4796.71507,0.07342
4794.78635,0.07267
4792.85764,0.07230
4790.92892,0.07214
4789.00021,0.07169
4787.07149,0.07123
4785.14277,0.07103
4783.21406,0.07081
4781.28534,0.07054
4779.35663,0.07021
4777.42791,0.06930
4775.49920,0.06803
4773.57048,0.06711
4771.64177,0.06665
4769.71305,0.06671
4767.78434,0.06722
4765.85562,0.06781
4763.92691,0.06793
4761.99819,0.06732
4760.06948,0.06648
4758.14076,0.06597
4756.21204,0.06565
4754.28333,0.06506
4752.35461,0.06454
4750.42590,0.06448
4748.49718,0.06430
4746.56847,0.06386
4744.63975,0.06371
4742.71104,0.06369
4740.78232,0.06329
4738.85361,0.06268
4736.92489,0.06236
4734.99618,0.06250
4733.06746,0.06286
4731.13874,0.06299
4729.21003,0.06249
4727.28131,0.06156
4725.35260,0.06108
4723.42388,0.06158
4721.49517,0.06223
4719.56645,0.06212
4717.63774,0.06181
4715.70902,0.06180
4713.78031,0.06159
4711.85159,0.06109
4709.92288,0.06067
4707.99416,0.06062
4706.06545,0.06087
4704.13673,0.06096
4702.20801,0.06091
4700.27930,0.06088
4698.35058,0.06092
4696.42187,0.06109
4694.49315,0.06132
4692.56444,0.06173
4690.63572,0.06205
4688.70701,0.06170
4686.77829,0.06078
4684.84958,0.06001
4682.92086,0.06015
4680.99215,0.06098
4679.06343,0.06145
4677.13472,0.06142
4675.20600,0.06144
4673.27728,0.06150
4671.34857,0.06146
4669.41985,0.06123
4667.49114,0.06074
4665.56242,0.06048
4663.63371,0.06072
4661.70499,0.06121
4659.77628,0.06173
4657.84756,0.06212
4655.91885,0.06212
4653.99013,0.06178
4652.06142,0.06157
4650.13270,0.06164
4648.20398,0.06160
4646.27527,0.06140
4644.34655,0.06128
4642.41784,0.06140
4640.48912,0.06184
4638.56041,0.06234
4636.63169,0.06247
4634.70298,0.06234
4632.77426,0.06223
4630.84555,0.06191
4628.91683,0.06124
4626.98812,0.06059
4625.05940,0.06036
4623.13069,0.06061
4621.20197,0.06082
4619.27325,0.06063
4617.34454,0.06039
4615.41582,0.06042
4613.48711,0.06076
4611.55839,0.06120
4609.62968,0.06136
4607.70096,0.06153
4605.77225,0.06194
4603.84353,0.06217
4601.91482,0.06220
4599.98610,0.06215
4598.05739,0.06207
4596.12867,0.06217
4594.19996,0.06221
4592.27124,0.06206
4590.34252,0.06212
4588.41381,0.06240
4586.48509,0.06254
4584.55638,0.06238
4582.62766,0.06176
4580.69895,0.06096
4578.77023,0.06053
4576.84152,0.06064
4574.91280,0.06108
4572.98409,0.06132
4571.05537,0.06094
4569.12666,0.06053
4567.19794,0.06056
4565.26923,0.06057
4563.34051,0.06063
4561.41179,0.06128
4559.48308,0.06216
4557.55436,0.06255
4555.62565,0.06253
4553.69693,0.06260
4551.76822,0.06270
4549.83950,0.06247
4547.91079,0.06216
4545.98207,0.06230
4544.05336,0.06258
4542.12464,0.06239
4540.19593,0.06197
4538.26721,0.06175
4536.33849,0.06189
4534.40978,0.06229
4532.48106,0.06252
4530.55235,0.06245
4528.62363,0.06245
4526.69492,0.06278
4524.76620,0.06329
4522.83749,0.06359
4520.90877,0.06358
4518.98006,0.06361
4517.05134,0.06370
4515.12263,0.06361
4513.19391,0.06326
4511.26520,0.06275
4509.33648,0.06251
4507.40776,0.06273
4505.47905,0.06266
4503.55033,0.06197
4501.62162,0.06138
4499.69290,0.06121
4497.76419,0.06138
4495.83547,0.06228
4493.90676,0.06348
4491.97804,0.06367
4490.04933,0.06272
4488.12061,0.06180
4486.19190,0.06131
4484.26318,0.06104
4482.33447,0.06123
4480.40575,0.06165
4478.47703,0.06166
4476.54832,0.06148
4474.61960,0.06161
4472.69089,0.06178
4470.76217,0.06178
4468.83346,0.06181
4466.90474,0.06176
4464.97603,0.06168
4463.04731,0.06189
4461.11860,0.06210
4459.18988,0.06198
4457.26117,0.06166
4455.33245,0.06127
4453.40373,0.06104
4451.47502,0.06127
4449.54630,0.06185
4447.61759,0.06226
4445.68887,0.06205
4443.76016,0.06142
4441.83144,0.06104
4439.90273,0.06135
4437.97401,0.06195
4436.04530,0.06221
4434.11658,0.06197
4432.18787,0.06135
4430.25915,0.06058
4428.33044,0.06040
4426.40172,0.06117
4424.47300,0.06200
4422.54429,0.06210
4420.61557,0.06181
4418.68686,0.06168
4416.75814,0.06185
4414.82943,0.06215
4412.90071,0.06212
4410.97200,0.06198
4409.04328,0.06216
4407.11457,0.06227
4405.18585,0.06219
4403.25714,0.06230
4401.32842,0.06253
4399.39971,0.06252
4397.47099,0.06217
4395.54227,0.06173
4393.61356,0.06170
4391.68484,0.06212
4389.75613,0.06236
4387.82741,0.06217
4385.89870,0.06211
4383.96998,0.06221
4382.04127,0.06205
4380.11255,0.06171
4378.18384,0.06156
4376.25512,0.06169
4374.32641,0.06185
4372.39769,0.06198
4370.46898,0.06214
4368.54026,0.06203
4366.61154,0.06157
4364.68283,0.06114
4362.75411,0.06114
4360.82540,0.06163
4358.89668,0.06238
4356.96797,0.06301
4355.03925,0.06317
4353.11054,0.06287
4351.18182,0.06238
4349.25311,0.06195
4347.32439,0.06186
4345.39568,0.06206
4343.46696,0.06239
4341.53824,0.06266
4339.60953,0.06251
4337.68081,0.06205
4335.75210,0.06183
4333.82338,0.06209
4331.89467,0.06253
4329.96595,0.06262
4328.03724,0.06223
4326.10852,0.06171
4324.17981,0.06109
4322.25109,0.06057
4320.32238,0.06055
4318.39366,0.06094
4316.46495,0.06148
4314.53623,0.06199
4312.60751,0.06231
4310.67880,0.06230
4308.75008,0.06197
4306.82137,0.06153
4304.89265,0.06130
4302.96394,0.06141
4301.03522,0.06168
4299.10651,0.06204
4297.17779,0.06244
4295.24908,0.06253
4293.32036,0.06235
4291.39165,0.06218
4289.46293,0.06214
4287.53422,0.06218
4285.60550,0.06216
4283.67678,0.06211
4281.74807,0.06217
4279.81935,0.06223
4277.89064,0.06222
4275.96192,0.06213
4274.03321,0.06201
4272.10449,0.06187
4270.17578,0.06172
4268.24706,0.06179
4266.31835,0.06221
4264.38963,0.06255
4262.46092,0.06253
4260.53220,0.06230
4258.60348,0.06188
4256.67477,0.06151
4254.74605,0.06153
4252.81734,0.06186
4250.88862,0.06206
4248.95991,0.06196
4247.03119,0.06190
4245.10248,0.06209
4243.17376,0.06236
4241.24505,0.06236
4239.31633,0.06211
4237.38762,0.06187
4235.45890,0.06174
4233.53019,0.06179
4231.60147,0.06211
4229.67275,0.06250
4227.74404,0.06260
4225.81532,0.06248
4223.88661,0.06245
4221.95789,0.06255
4220.02918,0.06265
4218.10046,0.06254
4216.17175,0.06216
4214.24303,0.06194
4212.31432,0.06209
4210.38560,0.06211
4208.45689,0.06172
4206.52817,0.06136
4204.59946,0.06139
4202.67074,0.06164
4200.74202,0.06177
4198.81331,0.06184
4196.88459,0.06220
4194.95588,0.06263
4193.02716,0.06269
4191.09845,0.06252
4189.16973,0.06255
4187.24102,0.06277
4185.31230,0.06293
4183.38359,0.06287
4181.45487,0.06265
4179.52616,0.06239
4177.59744,0.06226
4175.66873,0.06250
4173.74001,0.06319
4171.81129,0.06388
4169.88258,0.06393
4167.95386,0.06338
4166.02515,0.06281
4164.09643,0.06254
4162.16772,0.06247
4160.23900,0.06237
4158.31029,0.06214
4156.38157,0.06198
4154.45286,0.06200
4152.52414,0.06204
4150.59543,0.06204
4148.66671,0.06218
4146.73799,0.06234
4144.80928,0.06226
4142.88056,0.06213
4140.95185,0.06211
4139.02313,0.06215
4137.09442,0.06236
4135.16570,0.06256
4133.23699,0.06248
4131.30827,0.06234
4129.37956,0.06245
4127.45084,0.06281
4125.52213,0.06306
4123.59341,0.06294
4121.66470,0.06257
4119.73598,0.06230
4117.80726,0.06225
4115.87855,0.06231
4113.94983,0.06236
4112.02112,0.06240
4110.09240,0.06223
4108.16369,0.06186
4106.23497,0.06188
4104.30626,0.06227
4102.37754,0.06246
4100.44883,0.06254
4098.52011,0.06253
4096.59140,0.06225
4094.66268,0.06203
4092.73397,0.06215
4090.80525,0.06245
4088.87653,0.06267
4086.94782,0.06280
4085.01910,0.06296
4083.09039,0.06306
4081.16167,0.06304
4079.23296,0.06307
4077.30424,0.06296
4075.37553,0.06263
4073.44681,0.06227
4071.51810,0.06208
4069.58938,0.06213
4067.66067,0.06233
4065.73195,0.06259
4063.80323,0.06288
4061.87452,0.06322
4059.94580,0.06343
4058.01709,0.06316
4056.08837,0.06266
4054.15966,0.06239
4052.23094,0.06248
4050.30223,0.06279
4048.37351,0.06296
4046.44480,0.06278
4044.51608,0.06239
4042.58737,0.06219
4040.65865,0.06240
4038.72994,0.06270
4036.80122,0.06273
4034.87250,0.06281
4032.94379,0.06310
4031.01507,0.06319
4029.08636,0.06309
4027.15764,0.06300
4025.22893,0.06281
4023.30021,0.06259
4021.37150,0.06247
4019.44278,0.06252
4017.51407,0.06265
4015.58535,0.06241
4013.65664,0.06203
4011.72792,0.06211
4009.79921,0.06229
4007.87049,0.06235
4005.94177,0.06267
4004.01306,0.06306
4002.08434,0.06315
4000.15563,0.06307
3998.22691,0.06309
3996.29820,0.06327
3994.36948,0.06328
3992.44077,0.06298
3990.51205,0.06263
3988.58334,0.06248
3986.65462,0.06244
3984.72591,0.06229
3982.79719,0.06223
3980.86848,0.06241
3978.93976,0.06264
3977.01104,0.06297
3975.08233,0.06330
3973.15361,0.06327
3971.22490,0.06294
3969.29618,0.06251
3967.36747,0.06222
3965.43875,0.06237
3963.51004,0.06281
3961.58132,0.06303
3959.65261,0.06296
3957.72389,0.06302
3955.79518,0.06330
3953.86646,0.06350
3951.93774,0.06339
3950.00903,0.06298
3948.08031,0.06266
3946.15160,0.06265
3944.22288,0.06277
3942.29417,0.06289
3940.36545,0.06294
3938.43674,0.06296
3936.50802,0.06296
3934.57931,0.06280
3932.65059,0.06246
3930.72188,0.06231
3928.79316,0.06241
3926.86445,0.06253
3924.93573,0.06251
3923.00701,0.06228
3921.07830,0.06209
3919.14958,0.06212
3917.22087,0.06228
3915.29215,0.06264
3913.36344,0.06317
3911.43472,0.06366
3909.50601,0.06397
3907.57729,0.06390
3905.64858,0.06324
3903.71986,0.06235
3901.79115,0.06212
3899.86243,0.06224
3897.93372,0.06233
3896.00500,0.06250
3894.07628,0.06250
3892.14757,0.06229
3890.21885,0.06236
3888.29014,0.06253
3886.36142,0.06241
3884.43271,0.06235
3882.50399,0.06245
3880.57528,0.06224
3878.64656,0.06209
3876.71785,0.06226
3874.78913,0.06253
3872.86042,0.06300
3870.93170,0.06336
3869.00298,0.06317
3867.07427,0.06279
3865.14555,0.06234
3863.21684,0.06212
3861.28812,0.06242
3859.35941,0.06267
3857.43069,0.06252
3855.50198,0.06196
3853.57326,0.06164
3851.64455,0.06226
3849.71583,0.06287
3847.78712,0.06327
3845.85840,0.06327
3843.92969,0.06279
3842.00097,0.06243
3840.07225,0.06233
3838.14354,0.06239
3836.21482,0.06276
3834.28611,0.06284
3832.35739,0.06267
3830.42868,0.06278
3828.49996,0.06311
3826.57125,0.06336
3824.64253,0.06344
3822.71382,0.06307
3820.78510,0.06232
3818.85639,0.06219
3816.92767,0.06238
3814.99896,0.06282
3813.07024,0.06320
3811.14152,0.06302
3809.21281,0.06260
3807.28409,0.06238
3805.35538,0.06253
3803.42666,0.06272
3801.49795,0.06267
3799.56923,0.06287
3797.64052,0.06332
3795.71180,0.06352
3793.78309,0.06349
3791.85437,0.06349
3789.92566,0.06343
3787.99694,0.06310
3786.06823,0.06275
3784.13951,0.06303
3782.21079,0.06371
3780.28208,0.06378
3778.35336,0.06306
3776.42465,0.06275
3774.49593,0.06315
3772.56722,0.06363
3770.63850,0.06358
3768.70979,0.06301
3766.78107,0.06247
3764.85236,0.06239
3762.92364,0.06290
3760.99493,0.06351
3759.06621,0.06376
3757.13749,0.06371
3755.20878,0.06362
3753.28006,0.06340
3751.35135,0.06260
3749.42263,0.06177
3747.49392,0.06168
3745.56520,0.06141
3743.63649,0.06103
3741.70777,0.06126
3739.77906,0.06178
3737.85034,0.06206
3735.92163,0.06140
3733.99291,0.06068
3732.06420,0.06162
3730.13548,0.06270
3728.20676,0.06314
3726.27805,0.06321
3724.34933,0.06333
3722.42062,0.06334
3720.49190,0.06315
3718.56319,0.06322
3716.63447,0.06342
3714.70576,0.06328
3712.77704,0.06233
3710.84833,0.06070
3708.91961,0.06061
3706.99090,0.06172
3705.06218,0.06252
3703.13347,0.06258
3701.20475,0.06219
3699.27603,0.06217
3697.34732,0.06250
3695.41860,0.06269
3693.48989,0.06271
3691.56117,0.06245
3689.63246,0.06168
3687.70374,0.06130
3685.77503,0.06172
3683.84631,0.06239
3681.91760,0.06293
3679.98888,0.06281
3678.06017,0.06207
3676.13145,0.06178
3674.20273,0.06296
3672.27402,0.06392
3670.34530,0.06357
3668.41659,0.06276
3666.48787,0.06266
3664.55916,0.06286
3662.63044,0.06294
3660.70173,0.06281
3658.77301,0.06255
3656.84430,0.06229
3654.91558,0.06229
3652.98687,0.06241
3651.05815,0.06196
3649.12944,0.06088
3647.20072,0.06107
3645.27200,0.06193
3643.34329,0.06242
3641.41457,0.06234
3639.48586,0.06203
3637.55714,0.06202
3635.62843,0.06222
3633.69971,0.06246
3631.77100,0.06298
3629.84228,0.06338
3627.91357,0.06271
3625.98485,0.06206
3624.05614,0.06192
3622.12742,0.06190
3620.19871,0.06178
3618.26999,0.06170
3616.34127,0.06203
3614.41256,0.06246
3612.48384,0.06267
3610.55513,0.06266
3608.62641,0.06241
3606.69770,0.06205
3604.76898,0.06193
3602.84027,0.06212
3600.91155,0.06230
3598.98284,0.06211
3597.05412,0.06190
3595.12541,0.06194
3593.19669,0.06217
3591.26798,0.06244
3589.33926,0.06232
3587.41054,0.06186
3585.48183,0.06180
3583.55311,0.06190
3581.62440,0.06183
3579.69568,0.06170
3577.76697,0.06154
3575.83825,0.06143
3573.90954,0.06150
3571.98082,0.06163
3570.05211,0.06188
3568.12339,0.06227
3566.19468,0.06225
3564.26596,0.06207
3562.33724,0.06217
3560.40853,0.06226
3558.47981,0.06212
3556.55110,0.06175
3554.62238,0.06121
3552.69367,0.06081
3550.76495,0.06088
3548.83624,0.06121
3546.90752,0.06151
3544.97881,0.06175
3543.05009,0.06204
3541.12138,0.06222
3539.19266,0.06207
3537.26395,0.06196
3535.33523,0.06222
3533.40651,0.06246
3531.47780,0.06217
3529.54908,0.06147
3527.62037,0.06107
3525.69165,0.06131
3523.76294,0.06172
3521.83422,0.06185
3519.90551,0.06193
3517.97679,0.06231
3516.04808,0.06253
3514.11936,0.06227
3512.19065,0.06203
3510.26193,0.06201
3508.33322,0.06192
3506.40450,0.06168
3504.47578,0.06143
3502.54707,0.06142
3500.61835,0.06158
3498.68964,0.06166
3496.76092,0.06170
3494.83221,0.06179
3492.90349,0.06190
3490.97478,0.06196
3489.04606,0.06191
3487.11735,0.06180
3485.18863,0.06173
3483.25992,0.06184
3481.33120,0.06205
3479.40248,0.06211
3477.47377,0.06208
3475.54505,0.06223
3473.61634,0.06255
3471.68762,0.06250
3469.75891,0.06181
3467.83019,0.06119
3465.90148,0.06132
3463.97276,0.06172
3462.04405,0.06179
3460.11533,0.06172
3458.18662,0.06182
3456.25790,0.06208
3454.32919,0.06231
3452.40047,0.06214
3450.47175,0.06163
3448.54304,0.06144
3446.61432,0.06186
3444.68561,0.06234
3442.75689,0.06238
3440.82818,0.06194
3438.89946,0.06132
3436.97075,0.06094
3435.04203,0.06110
3433.11332,0.06171
3431.18460,0.06222
3429.25589,0.06232
3427.32717,0.06204
3425.39846,0.06150
3423.46974,0.06101
3421.54102,0.06085
3419.61231,0.06106
3417.68359,0.06154
3415.75488,0.06201
3413.82616,0.06222
3411.89745,0.06218
3409.96873,0.06211
3408.04002,0.06213
3406.11130,0.06206
3404.18259,0.06202
3402.25387,0.06231
3400.32516,0.06254
3398.39644,0.06222
3396.46773,0.06170
3394.53901,0.06161
3392.61029,0.06201
3390.68158,0.06236
3388.75286,0.06231
3386.82415,0.06184
3384.89543,0.06139
3382.96672,0.06157
3381.03800,0.06202
3379.10929,0.06191
3377.18057,0.06148
3375.25186,0.06143
3373.32314,0.06176
3371.39443,0.06194
3369.46571,0.06165
3367.53699,0.06137
3365.60828,0.06140
3363.67956,0.06144
3361.75085,0.06140
3359.82213,0.06146
3357.89342,0.06153
3355.96470,0.06152
3354.03599,0.06150
3352.10727,0.06153
3350.17856,0.06166
3348.24984,0.06185
3346.32113,0.06191
3344.39241,0.06166
3342.46370,0.06126
3340.53498,0.06120
3338.60626,0.06142
3336.67755,0.06144
3334.74883,0.06127
3332.82012,0.06133
3330.89140,0.06168
3328.96269,0.06203
3327.03397,0.06200
3325.10526,0.06144
3323.17654,0.06094
3321.24783,0.06120
3319.31911,0.06196
3317.39040,0.06244
3315.46168,0.06233
3313.53297,0.06203
3311.60425,0.06181
3309.67553,0.06146
3307.74682,0.06104
3305.81810,0.06096
3303.88939,0.06117
3301.96067,0.06152
3300.03196,0.06209
3298.10324,0.06251
3296.17453,0.06242
3294.24581,0.06197
3292.31710,0.06175
3290.38838,0.06201
3288.45967,0.06221
3286.53095,0.06196
3284.60223,0.06159
3282.67352,0.06161
3280.74480,0.06194
3278.81609,0.06201
3276.88737,0.06173
3274.95866,0.06159
3273.02994,0.06177
3271.10123,0.06195
3269.17251,0.06195
3267.24380,0.06184
3265.31508,0.06178
3263.38637,0.06194
3261.45765,0.06213
3259.52894,0.06215
3257.60022,0.06214
3255.67150,0.06233
3253.74279,0.06267
3251.81407,0.06263
3249.88536,0.06213
3247.95664,0.06186
3246.02793,0.06188
3244.09921,0.06161
3242.17050,0.06114
3240.24178,0.06099
3238.31307,0.06143
3236.38435,0.06213
3234.45564,0.06241
3232.52692,0.06218
3230.59821,0.06178
3228.66949,0.06154
3226.74077,0.06170
3224.81206,0.06213
3222.88334,0.06235
3220.95463,0.06235
3219.02591,0.06238
3217.09720,0.06234
3215.16848,0.06210
3213.23977,0.06193
3211.31105,0.06204
3209.38234,0.06228
3207.45362,0.06236
3205.52491,0.06222
3203.59619,0.06224
3201.66748,0.06243
3199.73876,0.06230
3197.81004,0.06198
3195.88133,0.06202
3193.95261,0.06216
3192.02390,0.06205
3190.09518,0.06196
3188.16647,0.06206
3186.23775,0.06201
3184.30904,0.06170
3182.38032,0.06163
3180.45161,0.06181
3178.52289,0.06179
3176.59418,0.06163
3174.66546,0.06166
3172.73674,0.06184
3170.80803,0.06195
3168.87931,0.06191
3166.95060,0.06184
3165.02188,0.06178
3163.09317,0.06171
3161.16445,0.06172
3159.23574,0.06173
3157.30702,0.06154
3155.37831,0.06148
3153.44959,0.06176
3151.52088,0.06200
3149.59216,0.06188
3147.66345,0.06154
3145.73473,0.06145
3143.80601,0.06182
3141.87730,0.06229
3139.94858,0.06247
3138.01987,0.06216
3136.09115,0.06166
3134.16244,0.06141
3132.23372,0.06142
3130.30501,0.06151
3128.37629,0.06158
3126.44758,0.06166
3124.51886,0.06172
3122.59015,0.06179
3120.66143,0.06198
3118.73272,0.06212
3116.80400,0.06204
3114.87528,0.06192
3112.94657,0.06182
3111.01785,0.06163
3109.08914,0.06151
3107.16042,0.06173
3105.23171,0.06214
3103.30299,0.06223
3101.37428,0.06198
3099.44556,0.06174
3097.51685,0.06157
3095.58813,0.06153
3093.65942,0.06161
3091.73070,0.06165
3089.80198,0.06161
3087.87327,0.06162
3085.94455,0.06169
3084.01584,0.06173
3082.08712,0.06176
3080.15841,0.06189
3078.22969,0.06187
3076.30098,0.06157
3074.37226,0.06141
3072.44355,0.06139
3070.51483,0.06129
3068.58612,0.06135
3066.65740,0.06168
3064.72869,0.06188
3062.79997,0.06166
3060.87125,0.06134
3058.94254,0.06130
3057.01382,0.06142
3055.08511,0.06140
3053.15639,0.06141
3051.22768,0.06160
3049.29896,0.06177
3047.37025,0.06186
3045.44153,0.06187
3043.51282,0.06191
3041.58410,0.06202
3039.65539,0.06207
3037.72667,0.06201
3035.79796,0.06194
3033.86924,0.06186
3031.94052,0.06172
3030.01181,0.06165
3028.08309,0.06176
3026.15438,0.06182
3024.22566,0.06167
3022.29695,0.06154
3020.36823,0.06163
3018.43952,0.06177
3016.51080,0.06167
3014.58209,0.06134
3012.65337,0.06105
3010.72466,0.06085
3008.79594,0.06086
3006.86723,0.06110
3004.93851,0.06121
3003.00979,0.06103
3001.08108,0.06091
2999.15236,0.06093
2997.22365,0.06093
2995.29493,0.06094
2993.36622,0.06089
2991.43750,0.06067
2989.50879,0.06029
2987.58007,0.05991
2985.65136,0.05986
2983.72264,0.06016
2981.79393,0.06046
2979.86521,0.06051
2977.93649,0.06048
2976.00778,0.06072
2974.07906,0.06126
2972.15035,0.06175
2970.22163,0.06206
2968.29292,0.06235
2966.36420,0.06281
2964.43549,0.06353
2962.50677,0.06421
2960.57806,0.06450
2958.64934,0.06447
2956.72063,0.06431
2954.79191,0.06406
2952.86320,0.06397
2950.93448,0.06404
2949.00576,0.06399
2947.07705,0.06389
2945.14833,0.06395
2943.21962,0.06413
2941.29090,0.06431
2939.36219,0.06451
2937.43347,0.06469
2935.50476,0.06474
2933.57604,0.06480
2931.64733,0.06489
2929.71861,0.06509
2927.78990,0.06549
2925.86118,0.06571
2923.93247,0.06553
2922.00375,0.06548
2920.07503,0.06573
2918.14632,0.06583
2916.21760,0.06558
2914.28889,0.06519
2912.36017,0.06482
2910.43146,0.06447
2908.50274,0.06419
2906.57403,0.06403
2904.64531,0.06401
2902.71660,0.06418
2900.78788,0.06436
2898.85917,0.06429
2896.93045,0.06396
2895.00173,0.06377
2893.07302,0.06390
2891.14430,0.06398
2889.21559,0.06367
2887.28687,0.06321
2885.35816,0.06304
2883.42944,0.06315
2881.50073,0.06330
2879.57201,0.06342
2877.64330,0.06349
2875.71458,0.06357
2873.78587,0.06379
2871.85715,0.06404
2869.92844,0.06423
2867.99972,0.06432
2866.07100,0.06418
2864.14229,0.06388
2862.21357,0.06378
2860.28486,0.06409
2858.35614,0.06450
2856.42743,0.06472
2854.49871,0.06479
2852.57000,0.06482
2850.64128,0.06466
2848.71257,0.06424
2846.78385,0.06373
2844.85514,0.06344
2842.92642,0.06353
2840.99771,0.06375
2839.06899,0.06389
2837.14027,0.06399
2835.21156,0.06400
2833.28284,0.06385
2831.35413,0.06358
2829.42541,0.06344
2827.49670,0.06357
2825.56798,0.06370
2823.63927,0.06358
2821.71055,0.06350
2819.78184,0.06361
2817.85312,0.06367
2815.92441,0.06361
2813.99569,0.06363
2812.06698,0.06374
2810.13826,0.06380
2808.20954,0.06365
2806.28083,0.06333
2804.35211,0.06319
2802.42340,0.06330
2800.49468,0.06338
2798.56597,0.06339
2796.63725,0.06336
2794.70854,0.06330
2792.77982,0.06331
2790.85111,0.06337
2788.92239,0.06327
2786.99368,0.06307
2785.06496,0.06300
2783.13624,0.06308
2781.20753,0.06307
2779.27881,0.06296
2777.35010,0.06301
2775.42138,0.06329
2773.49267,0.06344
2771.56395,0.06319
2769.63524,0.06284
2767.70652,0.06267
2765.77781,0.06269
2763.84909,0.06292
2761.92038,0.06318
2759.99166,0.06333
2758.06295,0.06344
2756.13423,0.06356
2754.20551,0.06357
2752.27680,0.06343
2750.34808,0.06326
2748.41937,0.06318
2746.49065,0.06319
2744.56194,0.06328
2742.63322,0.06334
2740.70451,0.06334
2738.77579,0.06330
2736.84708,0.06316
2734.91836,0.06304
2732.98965,0.06310
2731.06093,0.06327
2729.13222,0.06334
2727.20350,0.06315
2725.27478,0.06295
2723.34607,0.06308
2721.41735,0.06326
2719.48864,0.06325
2717.55992,0.06323
2715.63121,0.06320
2713.70249,0.06309
2711.77378,0.06304
2709.84506,0.06299
2707.91635,0.06290
2705.98763,0.06302
2704.05892,0.06322
2702.13020,0.06305
2700.20149,0.06281
2698.27277,0.06288
2696.34405,0.06299
2694.41534,0.06292
2692.48662,0.06277
2690.55791,0.06272
2688.62919,0.06287
2686.70048,0.06319
2684.77176,0.06339
2682.84305,0.06321
2680.91433,0.06294
2678.98562,0.06280
2677.05690,0.06267
2675.12819,0.06259
2673.19947,0.06260
2671.27075,0.06268
2669.34204,0.06284
2667.41332,0.06291
2665.48461,0.06286
2663.55589,0.06286
2661.62718,0.06287
2659.69846,0.06279
2657.76975,0.06270
2655.84103,0.06265
2653.91232,0.06275
2651.98360,0.06289
2650.05489,0.06282
2648.12617,0.06279
2646.19746,0.06305
2644.26874,0.06322
2642.34002,0.06304
2640.41131,0.06285
2638.48259,0.06281
2636.55388,0.06274
2634.62516,0.06262
2632.69645,0.06253
2630.76773,0.06249
2628.83902,0.06250
2626.91030,0.06251
2624.98159,0.06254
2623.05287,0.06266
2621.12416,0.06280
2619.19544,0.06275
2617.26673,0.06260
2615.33801,0.06264
2613.40929,0.06288
2611.48058,0.06298
2609.55186,0.06293
2607.62315,0.06294
2605.69443,0.06290
2603.76572,0.06280
2601.83700,0.06285
2599.90829,0.06288
2597.97957,0.06273
2596.05086,0.06257
2594.12214,0.06243
2592.19343,0.06235
2590.26471,0.06247
2588.33599,0.06268
2586.40728,0.06268
2584.47856,0.06255
2582.54985,0.06252
2580.62113,0.06261
2578.69242,0.06271
2576.76370,0.06279
2574.83499,0.06288
2572.90627,0.06295
2570.97756,0.06284
2569.04884,0.06260
2567.12013,0.06247
2565.19141,0.06256
2563.26270,0.06272
2561.33398,0.06278
2559.40526,0.06270
2557.47655,0.06258
2555.54783,0.06253
2553.61912,0.06253
2551.69040,0.06248
2549.76169,0.06240
2547.83297,0.06229
2545.90426,0.06226
2543.97554,0.06243
2542.04683,0.06261
2540.11811,0.06259
2538.18940,0.06252
2536.26068,0.06266
2534.33197,0.06292
2532.40325,0.06306
2530.47453,0.06302
2528.54582,0.06293
2526.61710,0.06288
2524.68839,0.06275
2522.75967,0.06251
2520.83096,0.06227
2518.90224,0.06217
2516.97353,0.06229
2515.04481,0.06259
2513.11610,0.06298
2511.18738,0.06323
2509.25867,0.06313
2507.32995,0.06287
2505.40124,0.06262
2503.47252,0.06235
2501.54380,0.06214
2499.61509,0.06210
2497.68637,0.06219
2495.75766,0.06244
2493.82894,0.06275
2491.90023,0.06296
2489.97151,0.06295
2488.04280,0.06273
2486.11408,0.06253
2484.18537,0.06247
2482.25665,0.06252
2480.32794,0.06259
2478.39922,0.06264
2476.47050,0.06262
2474.54179,0.06256
2472.61307,0.06260
2470.68436,0.06267
2468.75564,0.06254
2466.82693,0.06236
2464.89821,0.06242
2462.96950,0.06267
2461.04078,0.06289
2459.11207,0.06295
2457.18335,0.06284
2455.25464,0.06272
2453.32592,0.06272
2451.39721,0.06267
2449.46849,0.06252
2447.53977,0.06247
2445.61106,0.06258
2443.68234,0.06261
2441.75363,0.06251
2439.82491,0.06257
2437.89620,0.06287
2435.96748,0.06308
2434.03877,0.06294
2432.11005,0.06261
2430.18134,0.06244
2428.25262,0.06245
2426.32391,0.06246
2424.39519,0.06250
2422.46648,0.06255
2420.53776,0.06249
2418.60904,0.06250
2416.68033,0.06277
2414.75161,0.06289
2412.82290,0.06264
2410.89418,0.06246
2408.96547,0.06269
2407.03675,0.06296
2405.10804,0.06290
2403.17932,0.06260
2401.25061,0.06242
2399.32189,0.06251
2397.39318,0.06269
2395.46446,0.06284
2393.53574,0.06294
2391.60703,0.06292
2389.67831,0.06283
2387.74960,0.06281
2385.82088,0.06288
2383.89217,0.06299
2381.96345,0.06313
2380.03474,0.06331
2378.10602,0.06353
2376.17731,0.06348
2374.24859,0.06283
2372.31988,0.06225
2370.39116,0.06260
2368.46245,0.06342
2366.53373,0.06418
2364.60501,0.06513
2362.67630,0.06510
2360.74758,0.06370
2358.81887,0.06296
2356.89015,0.06299
2354.96144,0.06289
2353.03272,0.06268
2351.10401,0.06243
2349.17529,0.06235
2347.24658,0.06253
2345.31786,0.06288
2343.38915,0.06294
2341.46043,0.06249
2339.53172,0.06216
2337.60300,0.06187
2335.67428,0.06135
2333.74557,0.06131
2331.81685,0.06187
2329.88814,0.06232
2327.95942,0.06247
2326.03071,0.06216
2324.10199,0.06147
2322.17328,0.06121
2320.24456,0.06163
2318.31585,0.06209
2316.38713,0.06232
2314.45842,0.06265
2312.52970,0.06295
2310.60099,0.06282
2308.67227,0.06248
2306.74355,0.06228
2304.81484,0.06226
2302.88612,0.06231
2300.95741,0.06231
2299.02869,0.06227
2297.09998,0.06233
2295.17126,0.06238
2293.24255,0.06233
2291.31383,0.06239
2289.38512,0.06256
2287.45640,0.06259
2285.52769,0.06242
2283.59897,0.06221
2281.67025,0.06217
2279.74154,0.06235
2277.81282,0.06258
2275.88411,0.06255
2273.95539,0.06227
2272.02668,0.06214
2270.09796,0.06214
2268.16925,0.06202
2266.24053,0.06191
2264.31182,0.06186
2262.38310,0.06183
2260.45439,0.06179
2258.52567,0.06177
2256.59696,0.06185
2254.66824,0.06199
2252.73952,0.06205
2250.81081,0.06199
2248.88209,0.06187
2246.95338,0.06180
2245.02466,0.06184
2243.09595,0.06194
2241.16723,0.06200
2239.23852,0.06191
2237.30980,0.06181
2235.38109,0.06192
2233.45237,0.06213
2231.52366,0.06228
2229.59494,0.06242
2227.66623,0.06257
2225.73751,0.06266
2223.80879,0.06250
2221.88008,0.06216
2219.95136,0.06203
2218.02265,0.06212
2216.09393,0.06216
2214.16522,0.06207
2212.23650,0.06194
2210.30779,0.06184
2208.37907,0.06188
2206.45036,0.06206
2204.52164,0.06229
2202.59293,0.06239
2200.66421,0.06227
2198.73549,0.06206
2196.80678,0.06187
2194.87806,0.06167
2192.94935,0.06162
2191.02063,0.06190
2189.09192,0.06224
2187.16320,0.06229
2185.23449,0.06212
2183.30577,0.06204
2181.37706,0.06217
2179.44834,0.06228
2177.51963,0.06218
2175.59091,0.06198
2173.66220,0.06193
2171.73348,0.06195
2169.80476,0.06183
2167.87605,0.06160
2165.94733,0.06149
2164.01862,0.06156
2162.08990,0.06164
2160.16119,0.06170
2158.23247,0.06190
2156.30376,0.06211
2154.37504,0.06219
2152.44633,0.06223
2150.51761,0.06225
2148.58890,0.06223
2146.66018,0.06221
2144.73147,0.06210
2142.80275,0.06192
2140.87403,0.06185
2138.94532,0.06185
2137.01660,0.06183
2135.08789,0.06191
2133.15917,0.06206
2131.23046,0.06207
2129.30174,0.06192
2127.37303,0.06172
2125.44431,0.06161
2123.51560,0.06164
2121.58688,0.06169
2119.65817,0.06160
2117.72945,0.06143
2115.80074,0.06124
2113.87202,0.06103
2111.94330,0.06087
2110.01459,0.06084
2108.08587,0.06091
2106.15716,0.06112
2104.22844,0.06144
2102.29973,0.06161
2100.37101,0.06150
2098.44230,0.06135
2096.51358,0.06139
2094.58487,0.06151
2092.65615,0.06150
2090.72744,0.06146
2088.79872,0.06152
2086.87000,0.06157
2084.94129,0.06153
2083.01257,0.06145
2081.08386,0.06134
2079.15514,0.06122
2077.22643,0.06119
2075.29771,0.06123
2073.36900,0.06128
2071.44028,0.06123
2069.51157,0.06107
2067.58285,0.06093
2065.65414,0.06092
2063.72542,0.06098
2061.79671,0.06100
2059.86799,0.06098
2057.93927,0.06101
2056.01056,0.06111
2054.08184,0.06125
2052.15313,0.06133
2050.22441,0.06135
2048.29570,0.06129
2046.36698,0.06116
2044.43827,0.06105
2042.50955,0.06091
2040.58084,0.06066
2038.65212,0.06055
2036.72341,0.06062
2034.79469,0.06073
2032.86598,0.06092
2030.93726,0.06110
2029.00854,0.06114
2027.07983,0.06111
2025.15111,0.06095
2023.22240,0.06072
2021.29368,0.06064
2019.36497,0.06069
2017.43625,0.06072
2015.50754,0.06069
2013.57882,0.06064
2011.65011,0.06064
2009.72139,0.06062
2007.79268,0.06057
2005.86396,0.06061
2003.93524,0.06070
2002.00653,0.06067
2000.07781,0.06068
1998.14910,0.06077
1996.22038,0.06072
1994.29167,0.06054
1992.36295,0.06048
1990.43424,0.06070
1988.50552,0.06083
1986.57681,0.06056
1984.64809,0.06020
1982.71938,0.06010
1980.79066,0.06019
1978.86195,0.06028
1976.93323,0.06031
1975.00451,0.06031
1973.07580,0.06034
1971.14708,0.06039
1969.21837,0.06038
1967.28965,0.06030
1965.36094,0.06025
1963.43222,0.06020
1961.50351,0.06009
1959.57479,0.06002
1957.64608,0.06007
1955.71736,0.06010
1953.78865,0.05996
1951.85993,0.05980
1949.93122,0.05983
1948.00250,0.05998
1946.07378,0.06004
1944.14507,0.05999
1942.21635,0.05985
1940.28764,0.05963
1938.35892,0.05945
1936.43021,0.05941
1934.50149,0.05944
1932.57278,0.05942
1930.64406,0.05936
1928.71535,0.05927
1926.78663,0.05916
1924.85792,0.05907
1922.92920,0.05902
1921.00049,0.05906
1919.07177,0.05906
1917.14305,0.05895
1915.21434,0.05889
1913.28562,0.05891
1911.35691,0.05892
1909.42819,0.05896
1907.49948,0.05912
1905.57076,0.05924
1903.64205,0.05915
1901.71333,0.05900
1899.78462,0.05894
1897.85590,0.05886
1895.92719,0.05877
1893.99847,0.05875
1892.06975,0.05870
1890.14104,0.05853
1888.21232,0.05834
1886.28361,0.05827
1884.35489,0.05832
1882.42618,0.05837
1880.49746,0.05826
1878.56875,0.05806
1876.64003,0.05797
1874.71132,0.05797
1872.78260,0.05793
1870.85389,0.05775
1868.92517,0.05741
1866.99646,0.05718
1865.06774,0.05728
1863.13902,0.05746
1861.21031,0.05751
1859.28159,0.05732
1857.35288,0.05703
1855.42416,0.05694
1853.49545,0.05693
1851.56673,0.05672
1849.63802,0.05645
1847.70930,0.05628
1845.78059,0.05608
1843.85187,0.05576
1841.92316,0.05568
1839.99444,0.05569
1838.06573,0.05544
1836.13701,0.05500
1834.20829,0.05481
1832.27958,0.05487
1830.35086,0.05467
1828.42215,0.05418
1826.49343,0.05389
1824.56472,0.05357
1822.63600,0.05316
1820.70729,0.05282
1818.77857,0.05243
1816.84986,0.05189
1814.92114,0.05132
1812.99243,0.05074
1811.06371,0.05001
1809.13499,0.04925
1807.20628,0.04857
1805.27756,0.04794
1803.34885,0.04736
1801.42013,0.04646
1799.49142,0.04496
1797.56270,0.04349
1795.63399,0.04254
1793.70527,0.04197
1791.77656,0.04183
1789.84784,0.04252
1787.91913,0.04400
1785.99041,0.04634
1784.06170,0.04961
1782.13298,0.05363
1780.20426,0.05873
1778.27555,0.06429
1776.34683,0.06931
1774.41812,0.07420
1772.48940,0.07983
1770.56069,0.08468
1768.63197,0.08711
1766.70326,0.08807
1764.77454,0.08795
1762.84583,0.08663
1760.91711,0.08422
1758.98840,0.08183
1757.05968,0.07954
1755.13097,0.07761
1753.20225,0.07637
1751.27353,0.07503
1749.34482,0.07331
1747.41610,0.07211
1745.48739,0.07140
1743.55867,0.07069
1741.62996,0.06992
1739.70124,0.06920
1737.77253,0.06881
1735.84381,0.06861
1733.91510,0.06791
1731.98638,0.06725
1730.05767,0.06718
1728.12895,0.06717
1726.20024,0.06715
1724.27152,0.06696
1722.34280,0.06656
1720.41409,0.06607
1718.48537,0.06554
1716.55666,0.06522
1714.62794,0.06523
1712.69923,0.06515
1710.77051,0.06487
1708.84180,0.06446
1706.91308,0.06400
1704.98437,0.06372
1703.05565,0.06364
1701.12694,0.06336
1699.19822,0.06272
1697.26950,0.06214
1695.34079,0.06184
1693.41207,0.06192
1691.48336,0.06197
1689.55464,0.06184
1687.62593,0.06186
1685.69721,0.06201
1683.76850,0.06166
1681.83978,0.06129
1679.91107,0.06124
1677.98235,0.06106
1676.05364,0.06061
1674.12492,0.06009
1672.19621,0.05989
1670.26749,0.06000
1668.33877,0.06020
1666.41006,0.06039
1664.48134,0.06059
1662.55263,0.06047
1660.62391,0.06009
1658.69520,0.06004
1656.76648,0.06022
1654.83777,0.06015
1652.90905,0.05956
1650.98034,0.05963
1649.05162,0.05972
1647.12291,0.05943
1645.19419,0.05956
1643.26548,0.05998
1641.33676,0.06029
1639.40804,0.06042
1637.47933,0.06005
1635.55061,0.05914
1633.62190,0.05917
1631.69318,0.05955
1629.76447,0.05962
1627.83575,0.05946
1625.90704,0.05937
1623.97832,0.05940
1622.04961,0.05938
1620.12089,0.05941
1618.19218,0.05933
1616.26346,0.05870
1614.33474,0.05819
1612.40603,0.05817
1610.47731,0.05813
1608.54860,0.05792
1606.61988,0.05794
1604.69117,0.05833
1602.76245,0.05876
1600.83374,0.05898
1598.90502,0.05914
1596.97631,0.05933
1595.04759,0.05930
1593.11888,0.05898
1591.19016,0.05894
1589.26145,0.05929
1587.33273,0.05954
1585.40401,0.05947
1583.47530,0.05925
1581.54658,0.05900
1579.61787,0.05884
1577.68915,0.05866
1575.76044,0.05807
1573.83172,0.05757
1571.90301,0.05740
1569.97429,0.05710
1568.04558,0.05667
1566.11686,0.05648
1564.18815,0.05649
1562.25943,0.05671
1560.33072,0.05685
1558.40200,0.05574
1556.47328,0.05462
1554.54457,0.05443
1552.61585,0.05462
1550.68714,0.05494
1548.75842,0.05492
1546.82971,0.05463
1544.90099,0.05426
1542.97228,0.05362
1541.04356,0.05257
1539.11485,0.05185
1537.18613,0.05183
1535.25742,0.05174
1533.32870,0.05136
1531.39999,0.05119
1529.47127,0.05119
1527.54255,0.05064
1525.61384,0.04929
1523.68512,0.04776
1521.75641,0.04630
1519.82769,0.04538
1517.89898,0.04447
1515.97026,0.04309
1514.04155,0.04242
1512.11283,0.04289
1510.18412,0.04445
1508.25540,0.04946
1506.32669,0.06228
1504.39797,0.06943
1502.46925,0.07194
1500.54054,0.07333
1498.61182,0.07350
1496.68311,0.07227
1494.75439,0.07094
1492.82568,0.07001
1490.89696,0.06865
1488.96825,0.06684
1487.03953,0.06582
1485.11082,0.06527
1483.18210,0.06470
1481.25339,0.06397
1479.32467,0.06316
1477.39596,0.06244
1475.46724,0.06166
1473.53852,0.06080
1471.60981,0.06035
1469.68109,0.06045
1467.75238,0.06066
1465.82366,0.06091
1463.89495,0.06126
1461.96623,0.06152
1460.03752,0.06140
1458.10880,0.06048
1456.18009,0.05943
1454.25137,0.05947
1452.32266,0.05964
1450.39394,0.05966
1448.46523,0.05946
1446.53651,0.05909
1444.60779,0.05884
1442.67908,0.05869
1440.75036,0.05861
1438.82165,0.05850
1436.89293,0.05795
1434.96422,0.05727
1433.03550,0.05701
1431.10679,0.05681
1429.17807,0.05639
1427.24936,0.05589
1425.32064,0.05546
1423.39193,0.05520
1421.46321,0.05502
1419.53449,0.05441
1417.60578,0.05339
1415.67706,0.05302
1413.74835,0.05324
1411.81963,0.05378
1409.89092,0.05450
1407.96220,0.05525
1406.03349,0.05576
1404.10477,0.05595
1402.17606,0.05604
1400.24734,0.05604
1398.31863,0.05573
1396.38991,0.05504
1394.46120,0.05422
1392.53248,0.05366
1390.60376,0.05332
1388.67505,0.05328
1386.74633,0.05388
1384.81762,0.05455
1382.88890,0.05453
1380.96019,0.05408
1379.03147,0.05355
1377.10276,0.05294
1375.17404,0.05208
1373.24533,0.05125
1371.31661,0.05078
1369.38790,0.05053
1367.45918,0.05060
1365.53047,0.05129
1363.60175,0.05250
1361.67303,0.05340
1359.74432,0.05325
1357.81560,0.05243
1355.88689,0.05147
1353.95817,0.05089
1352.02946,0.05061
1350.10074,0.05020
1348.17203,0.04972
1346.24331,0.04926
1344.31460,0.04874
1342.38588,0.04818
1340.45717,0.04764
1338.52845,0.04717
1336.59974,0.04682
1334.67102,0.04645
1332.74230,0.04595
1330.81359,0.04539
1328.88487,0.04490
1326.95616,0.04445
1325.02744,0.04387
1323.09873,0.04316
1321.17001,0.04241
1319.24130,0.04153
1317.31258,0.04060
1315.38387,0.03979
1313.45515,0.03914
1311.52644,0.03881
1309.59772,0.03877
1307.66900,0.03856
1305.74029,0.03786
1303.81157,0.03691
1301.88286,0.03607
1299.95414,0.03545
1298.02543,0.03503
1296.09671,0.03479
1294.16800,0.03471
1292.23928,0.03477
1290.31057,0.03483
1288.38185,0.03461
1286.45314,0.03401
1284.52442,0.03320
1282.59571,0.03238
1280.66699,0.03141
1278.73827,0.03000
1276.80956,0.02814
1274.88084,0.02612
1272.95213,0.02409
1271.02341,0.02208
1269.09470,0.02050
1267.16598,0.01984
1265.23727,0.02041
1263.30855,0.02276
1261.37984,0.02763
1259.45112,0.03535
1257.52241,0.04536
1255.59369,0.05645
1253.66498,0.06742
1251.73626,0.07737
1249.80754,0.08571
1247.87883,0.09231
1245.95011,0.09744
1244.02140,0.10164
1242.09268,0.10555
1240.16397,0.10947
1238.23525,0.11345
1236.30654,0.11763
1234.37782,0.12200
1232.44911,0.12629
1230.52039,0.13020
1228.59168,0.13336
1226.66296,0.13532
1224.73424,0.13600
1222.80553,0.13547
1220.87681,0.13345
1218.94810,0.12944
1217.01938,0.12325
1215.09067,0.11509
1213.16195,0.10517
1211.23324,0.09411
1209.30452,0.08358
1207.37581,0.07571
1205.44709,0.07272
1203.51838,0.07688
1201.58966,0.08875
1199.66095,0.10611
1197.73223,0.12526
1195.80351,0.14246
1193.87480,0.15518
1191.94608,0.16230
1190.01737,0.16353
1188.08865,0.15924
1186.15994,0.15037
1184.23122,0.13895
1182.30251,0.12780
1180.37379,0.11850
1178.44508,0.11060
1176.51636,0.10302
1174.58765,0.09522
1172.65893,0.08831
1170.73022,0.08585
1168.80150,0.09240
1166.87278,0.10902
1164.94407,0.13004
1163.01535,0.14666
1161.08664,0.15376
1159.15792,0.15199
1157.22921,0.14536
1155.30049,0.13779
1153.37178,0.13119
1151.44306,0.12591
1149.51435,0.12161
1147.58563,0.11790
1145.65692,0.11449
1143.72820,0.11142
1141.79949,0.10888
1139.87077,0.10663
1137.94205,0.10444
1136.01334,0.10248
1134.08462,0.10093
1132.15591,0.09973
1130.22719,0.09838
1128.29848,0.09667
1126.36976,0.09503
1124.44105,0.09373
1122.51233,0.09252
1120.58362,0.09124
1118.65490,0.09006
1116.72619,0.08918
1114.79747,0.08841
1112.86875,0.08770
1110.94004,0.08739
1109.01132,0.08747
1107.08261,0.08760
1105.15389,0.08756
1103.22518,0.08757
1101.29646,0.08801
1099.36775,0.08842
1097.43903,0.08784
1095.51032,0.08630
1093.58160,0.08460
1091.65289,0.08282
1089.72417,0.08067
1087.79546,0.07860
1085.86674,0.07785
1083.93802,0.08012
1082.00931,0.08587
1080.08059,0.09224
1078.15188,0.09539
1076.22316,0.09479
1074.29445,0.09264
1072.36573,0.09050
1070.43702,0.08871
1068.50830,0.08736
1066.57959,0.08641
1064.65087,0.08556
1062.72216,0.08459
1060.79344,0.08382
1058.86473,0.08325
1056.93601,0.08255
1055.00729,0.08185
1053.07858,0.08130
1051.14986,0.08071
1049.22115,0.07997
1047.29243,0.07920
1045.36372,0.07860
1043.43500,0.07821
1041.50629,0.07790
1039.57757,0.07753
1037.64886,0.07683
1035.72014,0.07569
1033.79143,0.07440
1031.86271,0.07305
1029.93399,0.07139
1028.00528,0.06940
1026.07656,0.06718
1024.14785,0.06474
1022.21913,0.06250
1020.29042,0.06206
1018.36170,0.06681
1016.43299,0.07842
1014.50427,0.09124
1012.57556,0.09712
1010.64684,0.09583
1008.71813,0.09312
1006.78941,0.09215
1004.86070,0.09235
1002.93198,0.09239
1001.00326,0.09138
999.07455,0.08939
997.14583,0.08749
995.21712,0.08648
993.28840,0.08607
991.35969,0.08572
989.43097,0.08525
987.50226,0.08472
985.57354,0.08412
983.64483,0.08357
981.71611,0.08308
979.78740,0.08251
977.85868,0.08186
975.92997,0.08140
974.00125,0.08119
972.07253,0.08095
970.14382,0.08044
968.21510,0.07972
966.28639,0.07906
964.35767,0.07867
962.42896,0.07849
960.50024,0.07843
958.57153,0.07850
956.64281,0.07859
954.71410,0.07862
952.78538,0.07843
950.85667,0.07804
948.92795,0.07770
946.99924,0.07755
945.07052,0.07740
943.14180,0.07715
941.21309,0.07692
939.28437,0.07678
937.35566,0.07671
935.42694,0.07657
933.49823,0.07632
931.56951,0.07608
929.64080,0.07579
927.71208,0.07534
925.78337,0.07483
923.85465,0.07453
921.92594,0.07457
919.99722,0.07456
918.06850,0.07419
916.13979,0.07367
914.21107,0.07339
912.28236,0.07346
910.35364,0.07358
908.42493,0.07346
906.49621,0.07318
904.56750,0.07259
902.63878,0.07154
900.71007,0.07045
898.78135,0.06973
896.85264,0.06919
894.92392,0.06865
892.99521,0.06867
891.06649,0.06986
889.13777,0.07171
887.20906,0.07319
885.28034,0.07418
883.35163,0.07496
881.42291,0.07534
879.49420,0.07519
877.56548,0.07486
875.63677,0.07438
873.70805,0.07351
871.77934,0.07256
869.85062,0.07180
867.92191,0.07117
865.99319,0.07054
864.06448,0.06964
862.13576,0.06853
860.20704,0.06772
858.27833,0.06711
856.34961,0.06637
854.42090,0.06571
852.49218,0.06531
850.56347,0.06522
848.63475,0.06552
846.70604,0.06612
844.77732,0.06668
842.84861,0.06679
840.91989,0.06666
838.99118,0.06707
837.06246,0.06852
835.13375,0.07082
833.20503,0.07375
831.27631,0.07725
829.34760,0.08055
827.41888,0.08279
825.49017,0.08396
823.56145,0.08427
821.63274,0.08387
819.70402,0.08327
817.77531,0.08324
815.84659,0.08394
813.91788,0.08477
811.98916,0.08516
810.06045,0.08512
808.13173,0.08484
806.20301,0.08433
804.27430,0.08372
802.34558,0.08300
800.41687,0.08205
798.48815,0.08081
796.55944,0.07946
794.63072,0.07842
792.70201,0.07770
790.77329,0.07696
788.84458,0.07597
786.91586,0.07481
784.98715,0.07419
783.05843,0.07432
781.12972,0.07434
779.20100,0.07388
777.27228,0.07348
775.34357,0.07358
773.41485,0.07413
771.48614,0.07493
769.55742,0.07587
767.62871,0.07704
765.69999,0.07825
763.77128,0.07897
761.84256,0.07925
759.91385,0.07961
757.98513,0.08005
756.05642,0.08043
754.12770,0.08083
752.19899,0.08094
750.27027,0.08053
748.34155,0.07990
746.41284,0.07922
744.48412,0.07847
742.55541,0.07798
740.62669,0.07792
738.69798,0.07778
736.76926,0.07726
734.84055,0.07688
732.91183,0.07668
730.98312,0.07634
729.05440,0.07640
727.12569,0.07716
725.19697,0.07789
723.26825,0.07801
721.33954,0.07741
719.41082,0.07629
717.48211,0.07545
715.55339,0.07545
713.62468,0.07594
711.69596,0.07626
709.76725,0.07619
707.83853,0.07600
705.90982,0.07631
703.98110,0.07698
702.05239,0.07721
700.12367,0.07697
698.19496,0.07660
696.26624,0.07610
694.33752,0.07558
692.40881,0.07520
690.48009,0.07528
688.55138,0.07605
686.62266,0.07681
684.69395,0.07692
682.76523,0.07674
680.83652,0.07631
678.90780,0.07541
676.97909,0.07481
675.05037,0.07481
673.12166,0.07467
671.19294,0.07441
669.26423,0.07447
667.33551,0.07453
665.40679,0.07413
663.47808,0.07395
661.54936,0.07470
659.62065,0.07559
657.69193,0.07539
655.76322,0.07498
653.83450,0.07495
651.90579,0.07457
649.97707,0.07345
648.04836,0.07205
646.11964,0.07124
644.19093,0.07101
642.26221,0.07077
640.33350,0.07069
638.40478,0.07115
636.47606,0.07172
634.54735,0.07176
632.61863,0.07144
630.68992,0.07141
628.76120,0.07181
626.83249,0.07177
624.90377,0.07104
622.97506,0.07034
621.04634,0.06963
619.11763,0.06920
617.18891,0.06944
615.26020,0.06915
613.33148,0.06832
611.40276,0.06854
609.47405,0.06927
607.54533,0.06882
605.61662,0.06790
603.68790,0.06780
601.75919,0.06822
599.83047,0.06854
