7496.91655,0.12468
7494.98784,0.12249
7493.05912,0.12058
7491.13041,0.12315
7489.20169,0.12444
7487.27297,0.12215
7485.34426,0.12309
7483.41554,0.12606
7481.48683,0.12344
7479.55811,0.11949
7477.62940,0.11964
7475.70068,0.12122
7473.77197,0.12487
7471.84325,0.12778
7469.91454,0.12201
7467.98582,0.11331
7466.05711,0.11395
7464.12839,0.12143
7462.19968,0.12525
7460.27096,0.12585
7458.34224,0.12809
7456.41353,0.12933
7454.48481,0.12608
7452.55610,0.11894
7450.62738,0.11292
7448.69867,0.11381
7446.76995,0.11826
7444.84124,0.11877
7442.91252,0.11427
7440.98381,0.11143
7439.05509,0.11497
7437.12638,0.11841
7435.19766,0.11736
7433.26895,0.11945
7431.34023,0.12573
7429.41151,0.12665
7427.48280,0.12090
7425.55408,0.11584
7423.62537,0.11227
7421.69665,0.10883
7419.76794,0.10865
7417.83922,0.11049
7415.91051,0.11074
7413.98179,0.11322
7412.05308,0.11690
7410.12436,0.11751
7408.19565,0.11829
7406.26693,0.12096
7404.33821,0.12214
7402.40950,0.12242
7400.48078,0.12288
7398.55207,0.12227
7396.62335,0.12090
7394.69464,0.11796
7392.76592,0.11428
7390.83721,0.11347
7388.90849,0.11431
7386.97978,0.11688
7385.05106,0.12059
7383.12235,0.11893
7381.19363,0.11089
7379.26492,0.10720
7377.33620,0.11140
7375.40748,0.11474
7373.47877,0.11288
7371.55005,0.11215
7369.62134,0.11339
7367.69262,0.11027
7365.76391,0.10388
7363.83519,0.10276
7361.90648,0.10463
7359.97776,0.10328
7358.04905,0.10116
7356.12033,0.10355
7354.19162,0.10849
7352.26290,0.10931
7350.33419,0.10578
7348.40547,0.10241
7346.47675,0.10475
7344.54804,0.11201
7342.61932,0.11306
7340.69061,0.10638
7338.76189,0.10489
7336.83318,0.11134
7334.90446,0.11288
7332.97575,0.10639
7331.04703,0.09983
7329.11832,0.09563
7327.18960,0.09167
7325.26089,0.09123
7323.33217,0.09419
7321.40346,0.09797
7319.47474,0.10251
7317.54602,0.10576
7315.61731,0.10426
7313.68859,0.09970
7311.75988,0.09432
7309.83116,0.09159
7307.90245,0.09306
7305.97373,0.09607
7304.04502,0.09867
7302.11630,0.09986
7300.18759,0.09831
7298.25887,0.09580
7296.33016,0.09627
7294.40144,0.09782
7292.47272,0.09685
7290.54401,0.09734
7288.61529,0.10053
7286.68658,0.10271
7284.75786,0.10175
7282.82915,0.09908
7280.90043,0.09654
7278.97172,0.09578
7277.04300,0.09735
7275.11429,0.09726
7273.18557,0.09368
7271.25686,0.09264
7269.32814,0.09587
7267.39943,0.09826
7265.47071,0.09765
7263.54199,0.09697
7261.61328,0.09828
7259.68456,0.10098
7257.75585,0.10118
7255.82713,0.09742
7253.89842,0.09409
7251.96970,0.09658
7250.04099,0.10329
7248.11227,0.10672
7246.18356,0.10463
7244.25484,0.10372
7242.32613,0.10785
7240.39741,0.10954
7238.46870,0.10424
7236.53998,0.09831
7234.61126,0.09649
7232.68255,0.09544
7230.75383,0.09326
7228.82512,0.09288
7226.89640,0.09249
7224.96769,0.09219
7223.03897,0.09568
7221.11026,0.10274
7219.18154,0.10844
7217.25283,0.10949
7215.32411,0.10943
7213.39540,0.10991
7211.46668,0.10645
7209.53796,0.09912
7207.60925,0.09363
7205.68053,0.09366
7203.75182,0.09643
7201.82310,0.09689
7199.89439,0.09623
7197.96567,0.09690
7196.03696,0.09872
7194.10824,0.10125
7192.17953,0.10386
7190.25081,0.10469
7188.32210,0.10326
7186.39338,0.10184
7184.46467,0.09844
7182.53595,0.09226
7180.60723,0.09251
7178.67852,0.09935
7176.74980,0.10310
7174.82109,0.10272
7172.89237,0.10056
7170.96366,0.09846
7169.03494,0.09807
7167.10623,0.09865
7165.17751,0.09789
7163.24880,0.09628
7161.32008,0.09697
7159.39137,0.09952
7157.46265,0.10169
7155.53394,0.10425
7153.60522,0.10541
7151.67650,0.10389
7149.74779,0.10300
7147.81907,0.10396
7145.89036,0.10486
7143.96164,0.10441
7142.03293,0.10355
7140.10421,0.10597
7138.17550,0.10938
7136.24678,0.10789
7134.31807,0.10417
7132.38935,0.10078
7130.46064,0.09877
7128.53192,0.10140
7126.60321,0.10372
7124.67449,0.10074
7122.74577,0.09807
7120.81706,0.09885
7118.88834,0.10001
7116.95963,0.10105
7115.03091,0.10243
7113.10220,0.10261
7111.17348,0.10237
7109.24477,0.10270
7107.31605,0.10206
7105.38734,0.10150
7103.45862,0.10143
7101.52991,0.09922
7099.60119,0.09608
7097.67247,0.09604
7095.74376,0.09941
7093.81504,0.10431
7091.88633,0.10744
7089.95761,0.10629
7088.02890,0.10344
7086.10018,0.10302
7084.17147,0.10540
7082.24275,0.10769
7080.31404,0.10780
7078.38532,0.10707
7076.45661,0.10598
7074.52789,0.10354
7072.59918,0.10227
7070.67046,0.10570
7068.74174,0.11017
7066.81303,0.11140
7064.88431,0.11127
7062.95560,0.11052
7061.02688,0.10840
7059.09817,0.10720
7057.16945,0.10761
7055.24074,0.10735
7053.31202,0.10581
7051.38331,0.10549
7049.45459,0.10745
7047.52588,0.10962
7045.59716,0.11061
7043.66845,0.11039
7041.73973,0.10821
7039.81101,0.10562
7037.88230,0.10437
7035.95358,0.10469
7034.02487,0.10812
7032.09615,0.11316
7030.16744,0.11426
7028.23872,0.11049
7026.31001,0.10716
7024.38129,0.10861
7022.45258,0.11114
7020.52386,0.11011
7018.59515,0.10761
7016.66643,0.10672
7014.73771,0.10696
7012.80900,0.10600
7010.88028,0.10405
7008.95157,0.10425
7007.02285,0.10622
7005.09414,0.10645
7003.16542,0.10537
7001.23671,0.10676
6999.30799,0.11023
6997.37928,0.11085
6995.45056,0.10835
6993.52185,0.10887
6991.59313,0.11297
6989.66442,0.11427
6987.73570,0.11068
6985.80698,0.10813
6983.87827,0.11026
6981.94955,0.11155
6980.02084,0.10937
6978.09212,0.10718
6976.16341,0.10690
6974.23469,0.11072
6972.30598,0.11728
6970.37726,0.12066
6968.44855,0.12048
6966.51983,0.12205
6964.59112,0.12484
6962.66240,0.12309
6960.73369,0.11634
6958.80497,0.10956
6956.87625,0.10656
6954.94754,0.10967
6953.01882,0.11634
6951.09011,0.11872
6949.16139,0.11481
6947.23268,0.11075
6945.30396,0.10967
6943.37525,0.11143
6941.44653,0.11530
6939.51782,0.11689
6937.58910,0.11510
6935.66039,0.11464
6933.73167,0.11521
6931.80296,0.11343
6929.87424,0.11129
6927.94552,0.11107
6926.01681,0.11155
6924.08809,0.11263
6922.15938,0.11475
6920.23066,0.11712
6918.30195,0.11888
6916.37323,0.12014
6914.44452,0.12063
6912.51580,0.11959
6910.58709,0.11740
6908.65837,0.11543
6906.72966,0.11458
6904.80094,0.11546
6902.87222,0.11779
6900.94351,0.11953
6899.01479,0.11843
6897.08608,0.11475
6895.15736,0.11062
6893.22865,0.10809
6891.29993,0.10903
6889.37122,0.11330
6887.44250,0.11591
6885.51379,0.11369
6883.58507,0.11120
6881.65636,0.11535
6879.72764,0.12359
6877.79893,0.12567
6875.87021,0.12023
6873.94149,0.11660
6872.01278,0.11827
6870.08406,0.11960
6868.15535,0.11886
6866.22663,0.11932
6864.29792,0.11892
6862.36920,0.11479
6860.44049,0.11030
6858.51177,0.10852
6856.58306,0.10875
6854.65434,0.11123
6852.72563,0.11641
6850.79691,0.12118
6848.86820,0.12195
6846.93948,0.12013
6845.01076,0.11947
6843.08205,0.11987
6841.15333,0.11855
6839.22462,0.11566
6837.29590,0.11322
6835.36719,0.11200
6833.43847,0.11273
6831.50976,0.11531
6829.58104,0.11692
6827.65233,0.11453
6825.72361,0.10888
6823.79490,0.10604
6821.86618,0.10895
6819.93746,0.11256
6818.00875,0.11353
6816.08003,0.11421
6814.15132,0.11511
6812.22260,0.11620
6810.29389,0.11813
6808.36517,0.12026
6806.43646,0.12163
6804.50774,0.12103
6802.57903,0.11874
6800.65031,0.11628
6798.72160,0.11373
6796.79288,0.11354
6794.86417,0.11723
6792.93545,0.12052
6791.00673,0.12140
6789.07802,0.12129
6787.14930,0.12032
6785.22059,0.12045
6783.29187,0.12213
6781.36316,0.12137
6779.43444,0.11761
6777.50573,0.11546
6775.57701,0.11635
6773.64830,0.11846
6771.71958,0.12027
6769.79087,0.11999
6767.86215,0.11810
6765.93344,0.11511
6764.00472,0.11149
6762.07600,0.11148
6760.14729,0.11433
6758.21857,0.11614
6756.28986,0.11820
6754.36114,0.12097
6752.43243,0.12295
6750.50371,0.12326
6748.57500,0.12154
6746.64628,0.12013
6744.71757,0.11964
6742.78885,0.11916
6740.86014,0.11918
6738.93142,0.11839
6737.00271,0.11817
6735.07399,0.12151
6733.14527,0.12373
6731.21656,0.12092
6729.28784,0.11752
6727.35913,0.11709
6725.43041,0.11762
6723.50170,0.11718
6721.57298,0.11808
6719.64427,0.12290
6717.71555,0.12744
6715.78684,0.12664
6713.85812,0.12361
6711.92941,0.12314
6710.00069,0.12385
6708.07197,0.12286
6706.14326,0.12163
6704.21454,0.12153
6702.28583,0.12092
6700.35711,0.12067
6698.42840,0.12154
6696.49968,0.12182
6694.57097,0.12146
6692.64225,0.12146
6690.71354,0.12188
6688.78482,0.12254
6686.85611,0.12333
6684.92739,0.12392
6682.99868,0.12427
6681.06996,0.12462
6679.14124,0.12456
6677.21253,0.12317
6675.28381,0.12085
6673.35510,0.12100
6671.42638,0.12383
6669.49767,0.12546
6667.56895,0.12601
6665.64024,0.12652
6663.71152,0.12552
6661.78281,0.12509
6659.85409,0.12808
6657.92538,0.13065
6655.99666,0.12884
6654.06795,0.12672
6652.13923,0.12785
6650.21051,0.12908
6648.28180,0.12864
6646.35308,0.12830
6644.42437,0.12801
6642.49565,0.12789
6640.56694,0.12847
6638.63822,0.12714
6636.70951,0.12373
6634.78079,0.12293
6632.85208,0.12638
6630.92336,0.13071
6628.99465,0.13146
6627.06593,0.12762
6625.13722,0.12443
6623.20850,0.12628
6621.27978,0.12930
6619.35107,0.12949
6617.42235,0.12785
6615.49364,0.12670
6613.56492,0.12768
6611.63621,0.12886
6609.70749,0.12769
6607.77878,0.12581
6605.85006,0.12548
6603.92135,0.12651
6601.99263,0.12723
6600.06392,0.12707
6598.13520,0.12635
6596.20648,0.12589
6594.27777,0.12698
6592.34905,0.12864
6590.42034,0.12952
6588.49162,0.13085
6586.56291,0.13209
6584.63419,0.13105
6582.70548,0.12921
6580.77676,0.12943
6578.84805,0.12992
6576.91933,0.12793
6574.99062,0.12665
6573.06190,0.12954
6571.13319,0.13288
6569.20447,0.13358
6567.27575,0.13324
6565.34704,0.13230
6563.41832,0.13091
6561.48961,0.12973
6559.56089,0.12876
6557.63218,0.12901
6555.70346,0.13051
6553.77475,0.13118
6551.84603,0.12914
6549.91732,0.12599
6547.98860,0.12528
6546.05989,0.12753
6544.13117,0.13105
6542.20246,0.13286
6540.27374,0.13026
6538.34502,0.12606
6536.41631,0.12431
6534.48759,0.12489
6532.55888,0.12643
6530.63016,0.12775
6528.70145,0.12806
6526.77273,0.12843
6524.84402,0.12986
6522.91530,0.13122
6520.98659,0.13185
6519.05787,0.13363
6517.12916,0.13549
6515.20044,0.13385
6513.27172,0.13085
6511.34301,0.13013
6509.41429,0.13015
6507.48558,0.12906
6505.55686,0.12622
6503.62815,0.12281
6501.69943,0.12266
6499.77072,0.12569
6497.84200,0.12785
6495.91329,0.12813
6493.98457,0.12764
6492.05586,0.12696
6490.12714,0.12759
6488.19843,0.13025
6486.26971,0.13204
6484.34099,0.13122
6482.41228,0.12965
6480.48356,0.12864
6478.55485,0.12777
6476.62613,0.12738
6474.69742,0.12795
6472.76870,0.12836
6470.83999,0.12837
6468.91127,0.13001
6466.98256,0.13302
6465.05384,0.13492
6463.12513,0.13374
6461.19641,0.12932
6459.26770,0.12581
6457.33898,0.12668
6455.41026,0.12898
6453.48155,0.12899
6451.55283,0.12746
6449.62412,0.12682
6447.69540,0.12750
6445.76669,0.12872
6443.83797,0.12938
6441.90926,0.12812
6439.98054,0.12687
6438.05183,0.12888
6436.12311,0.13166
6434.19440,0.13176
6432.26568,0.12976
6430.33697,0.12648
6428.40825,0.12327
6426.47953,0.12323
6424.55082,0.12653
6422.62210,0.12878
6420.69339,0.12856
6418.76467,0.12940
6416.83596,0.13027
6414.90724,0.12854
6412.97853,0.12733
6411.04981,0.12881
6409.12110,0.13073
6407.19238,0.13046
6405.26367,0.12803
6403.33495,0.12646
6401.40623,0.12660
6399.47752,0.12657
6397.54880,0.12661
6395.62009,0.12791
6393.69137,0.12941
6391.76266,0.12961
6389.83394,0.12814
6387.90523,0.12618
6385.97651,0.12588
6384.04780,0.12754
6382.11908,0.12956
6380.19037,0.13021
6378.26165,0.12895
6376.33294,0.12780
6374.40422,0.12789
6372.47550,0.12782
6370.54679,0.12715
6368.61807,0.12669
6366.68936,0.12724
6364.76064,0.12872
6362.83193,0.12860
6360.90321,0.12594
6358.97450,0.12458
6357.04578,0.12624
6355.11707,0.12843
6353.18835,0.12970
6351.25964,0.12882
6349.33092,0.12574
6347.40221,0.12407
6345.47349,0.12603
6343.54477,0.12906
6341.61606,0.12993
6339.68734,0.12863
6337.75863,0.12699
6335.82991,0.12621
6333.90120,0.12682
6331.97248,0.12740
6330.04377,0.12716
6328.11505,0.12758
6326.18634,0.12737
6324.25762,0.12486
6322.32891,0.12270
6320.40019,0.12210
6318.47147,0.12192
6316.54276,0.12272
6314.61404,0.12350
6312.68533,0.12231
6310.75661,0.12132
6308.82790,0.12200
6306.89918,0.12233
6304.97047,0.12232
6303.04175,0.12336
6301.11304,0.12438
6299.18432,0.12378
6297.25561,0.12236
6295.32689,0.12256
6293.39818,0.12423
6291.46946,0.12542
6289.54074,0.12593
6287.61203,0.12488
6285.68331,0.12261
6283.75460,0.12188
6281.82588,0.12163
6279.89717,0.12024
6277.96845,0.11907
6276.03974,0.11865
6274.11102,0.11862
6272.18231,0.11869
6270.25359,0.11902
6268.32488,0.12019
6266.39616,0.12169
6264.46745,0.12205
6262.53873,0.12083
6260.61001,0.11963
6258.68130,0.12017
6256.75258,0.12117
6254.82387,0.11943
6252.89515,0.11566
6250.96644,0.11391
6249.03772,0.11495
6247.10901,0.11545
6245.18029,0.11337
6243.25158,0.11121
6241.32286,0.11158
6239.39415,0.11365
6237.46543,0.11520
6235.53672,0.11439
6233.60800,0.11165
6231.67928,0.10906
6229.75057,0.10742
6227.82185,0.10680
6225.89314,0.10747
6223.96442,0.10854
6222.03571,0.10878
6220.10699,0.10816
6218.17828,0.10728
6216.24956,0.10675
6214.32085,0.10694
6212.39213,0.10741
6210.46342,0.10759
6208.53470,0.10786
6206.60598,0.10875
6204.67727,0.10855
6202.74855,0.10535
6200.81984,0.10066
6198.89112,0.09775
6196.96241,0.09753
6195.03369,0.09797
6193.10498,0.09685
6191.17626,0.09474
6189.24755,0.09425
6187.31883,0.09586
6185.39012,0.09756
6183.46140,0.09709
6181.53269,0.09376
6179.60397,0.09000
6177.67525,0.08801
6175.74654,0.08705
6173.81782,0.08551
6171.88911,0.08472
6169.96039,0.08711
6168.03168,0.09005
6166.10296,0.09016
6164.17425,0.08926
6162.24553,0.08849
6160.31682,0.08691
6158.38810,0.08575
6156.45939,0.08586
6154.53067,0.08633
6152.60196,0.08688
6150.67324,0.08608
6148.74452,0.08312
6146.81581,0.07987
6144.88709,0.07736
6142.95838,0.07567
6141.02966,0.07486
6139.10095,0.07434
6137.17223,0.07460
6135.24352,0.07530
6133.31480,0.07523
6131.38609,0.07620
6129.45737,0.07768
6127.52866,0.07603
6125.59994,0.07327
6123.67122,0.07290
6121.74251,0.07375
6119.81379,0.07374
6117.88508,0.07223
6115.95636,0.06975
6114.02765,0.06757
6112.09893,0.06729
6110.17022,0.06889
6108.24150,0.06937
6106.31279,0.06677
6104.38407,0.06403
6102.45536,0.06488
6100.52664,0.06727
6098.59793,0.06745
6096.66921,0.06572
6094.74049,0.06409
6092.81178,0.06327
6090.88306,0.06345
6088.95435,0.06361
6087.02563,0.06245
6085.09692,0.06083
6083.16820,0.05946
6081.23949,0.05817
6079.31077,0.05807
6077.38206,0.05900
6075.45334,0.05903
6073.52463,0.05819
6071.59591,0.05774
6069.66720,0.05830
6067.73848,0.06012
6065.80976,0.06105
6063.88105,0.05942
6061.95233,0.05666
6060.02362,0.05426
6058.09490,0.05390
6056.16619,0.05582
6054.23747,0.05767
6052.30876,0.05820
6050.38004,0.05751
6048.45133,0.05653
6046.52261,0.05596
6044.59390,0.05579
6042.66518,0.05650
6040.73647,0.05813
6038.80775,0.05923
6036.87903,0.05838
6034.95032,0.05692
6033.02160,0.05777
6031.09289,0.06033
6029.16417,0.06124
6027.23546,0.06022
6025.30674,0.06002
6023.37803,0.06049
6021.44931,0.05969
6019.52060,0.05858
6017.59188,0.05884
6015.66317,0.05926
6013.73445,0.05826
6011.80573,0.05710
6009.87702,0.05744
6007.94830,0.05847
6006.01959,0.05872
6004.09087,0.05809
6002.16216,0.05756
6000.23344,0.05746
5998.30473,0.05619
5996.37601,0.05346
5994.44730,0.05295
5992.51858,0.05612
5990.58987,0.05920
5988.66115,0.05979
5986.73244,0.05888
5984.80372,0.05733
5982.87500,0.05545
5980.94629,0.05486
5979.01757,0.05682
5977.08886,0.05927
5975.16014,0.05958
5973.23143,0.05795
5971.30271,0.05613
5969.37400,0.05470
5967.44528,0.05319
5965.51657,0.05294
5963.58785,0.05504
5961.65914,0.05724
5959.73042,0.05767
5957.80171,0.05743
5955.87299,0.05825
5953.94427,0.06050
5952.01556,0.06210
5950.08684,0.06064
5948.15813,0.05700
5946.22941,0.05436
5944.30070,0.05388
5942.37198,0.05448
5940.44327,0.05563
5938.51455,0.05691
5936.58584,0.05758
5934.65712,0.05769
5932.72841,0.05719
5930.79969,0.05594
5928.87097,0.05538
5926.94226,0.05649
5925.01354,0.05770
5923.08483,0.05804
5921.15611,0.05847
5919.22740,0.05887
5917.29868,0.05850
5915.36997,0.05800
5913.44125,0.05778
5911.51254,0.05699
5909.58382,0.05585
5907.65511,0.05565
5905.72639,0.05646
5903.79768,0.05703
5901.86896,0.05712
5899.94024,0.05738
5898.01153,0.05717
5896.08281,0.05628
5894.15410,0.05548
5892.22538,0.05506
5890.29667,0.05516
5888.36795,0.05577
5886.43924,0.05735
5884.51052,0.05917
5882.58181,0.05901
5880.65309,0.05728
5878.72438,0.05652
5876.79566,0.05766
5874.86695,0.05918
5872.93823,0.05910
5871.00951,0.05733
5869.08080,0.05600
5867.15208,0.05693
5865.22337,0.05938
5863.29465,0.06175
5861.36594,0.06300
5859.43722,0.06236
5857.50851,0.06104
5855.57979,0.06117
5853.65108,0.06231
5851.72236,0.06281
5849.79365,0.06306
5847.86493,0.06369
5845.93622,0.06397
5844.00750,0.06404
5842.07878,0.06438
5840.15007,0.06388
5838.22135,0.06270
5836.29264,0.06285
5834.36392,0.06401
5832.43521,0.06425
5830.50649,0.06407
5828.57778,0.06524
5826.64906,0.06689
5824.72035,0.06640
5822.79163,0.06368
5820.86292,0.06117
5818.93420,0.06005
5817.00548,0.05992
5815.07677,0.06068
5813.14805,0.06187
5811.21934,0.06280
5809.29062,0.06363
5807.36191,0.06378
5805.43319,0.06332
5803.50448,0.06381
5801.57576,0.06517
5799.64705,0.06626
5797.71833,0.06676
5795.78962,0.06665
5793.86090,0.06627
5791.93219,0.06560
5790.00347,0.06459
5788.07475,0.06415
5786.14604,0.06428
5784.21732,0.06368
5782.28861,0.06187
5780.35989,0.06044
5778.43118,0.06125
5776.50246,0.06244
5774.57375,0.06166
5772.64503,0.06047
5770.71632,0.06041
5768.78760,0.06076
5766.85889,0.06098
5764.93017,0.06163
5763.00146,0.06309
5761.07274,0.06421
5759.14402,0.06358
5757.21531,0.06162
5755.28659,0.06050
5753.35788,0.06128
5751.42916,0.06271
5749.50045,0.06389
5747.57173,0.06503
5745.64302,0.06587
5743.71430,0.06629
5741.78559,0.06680
5739.85687,0.06730
5737.92816,0.06777
5735.99944,0.06823
5734.07072,0.06775
5732.14201,0.06710
5730.21329,0.06809
5728.28458,0.06973
5726.35586,0.07036
5724.42715,0.07075
5722.49843,0.07159
5720.56972,0.07226
5718.64100,0.07291
5716.71229,0.07410
5714.78357,0.07522
5712.85486,0.07546
5710.92614,0.07498
5708.99743,0.07430
5707.06871,0.07444
5705.13999,0.07615
5703.21128,0.07856
5701.28256,0.08054
5699.35385,0.08134
5697.42513,0.08043
5695.49642,0.07891
5693.56770,0.07846
5691.63899,0.07869
5689.71027,0.07809
5687.78156,0.07668
5685.85284,0.07581
5683.92413,0.07589
5681.99541,0.07609
5680.06670,0.07581
5678.13798,0.07571
5676.20926,0.07621
5674.28055,0.07615
5672.35183,0.07487
5670.42312,0.07309
5668.49440,0.07096
5666.56569,0.06901
5664.63697,0.06858
5662.70826,0.06947
5660.77954,0.07051
5658.85083,0.07148
5656.92211,0.07216
5654.99340,0.07275
5653.06468,0.07406
5651.13597,0.07520
5649.20725,0.07451
5647.27853,0.07294
5645.34982,0.07233
5643.42110,0.07291
5641.49239,0.07396
5639.56367,0.07482
5637.63496,0.07518
5635.70624,0.07580
5633.77753,0.07737
5631.84881,0.07889
5629.92010,0.07963
5627.99138,0.08060
5626.06267,0.08202
5624.13395,0.08286
5622.20523,0.08346
5620.27652,0.08477
5618.34780,0.08617
5616.41909,0.08691
5614.49037,0.08758
5612.56166,0.08905
5610.63294,0.09034
5608.70423,0.09009
5606.77551,0.08958
5604.84680,0.08957
5602.91808,0.08875
5600.98937,0.08752
5599.06065,0.08681
5597.13194,0.08641
5595.20322,0.08661
5593.27450,0.08752
5591.34579,0.08859
5589.41707,0.08965
5587.48836,0.09017
5585.55964,0.08981
5583.63093,0.08947
5581.70221,0.08970
5579.77350,0.08944
5577.84478,0.08822
5575.91607,0.08752
5573.98735,0.08808
5572.05864,0.08839
5570.12992,0.08798
5568.20121,0.08745
5566.27249,0.08635
5564.34377,0.08549
5562.41506,0.08632
5560.48634,0.08725
5558.55763,0.08642
5556.62891,0.08507
5554.70020,0.08519
5552.77148,0.08633
5550.84277,0.08706
5548.91405,0.08721
5546.98534,0.08692
5545.05662,0.08641
5543.12791,0.08619
5541.19919,0.08628
5539.27047,0.08634
5537.34176,0.08646
5535.41304,0.08688
5533.48433,0.08703
5531.55561,0.08649
5529.62690,0.08615
5527.69818,0.08680
5525.76947,0.08738
5523.84075,0.08663
5521.91204,0.08572
5519.98332,0.08627
5518.05461,0.08717
5516.12589,0.08653
5514.19718,0.08530
5512.26846,0.08530
5510.33974,0.08602
5508.41103,0.08610
5506.48231,0.08568
5504.55360,0.08595
5502.62488,0.08665
5500.69617,0.08682
5498.76745,0.08665
5496.83874,0.08653
5494.91002,0.08655
5492.98131,0.08714
5491.05259,0.08782
5489.12388,0.08702
5487.19516,0.08489
5485.26645,0.08327
5483.33773,0.08276
5481.40901,0.08239
5479.48030,0.08194
5477.55158,0.08221
5475.62287,0.08333
5473.69415,0.08410
5471.76544,0.08408
5469.83672,0.08395
5467.90801,0.08392
5465.97929,0.08354
5464.05058,0.08306
5462.12186,0.08325
5460.19315,0.08405
5458.26443,0.08469
5456.33572,0.08485
5454.40700,0.08500
5452.47828,0.08555
5450.54957,0.08634
5448.62085,0.08730
5446.69214,0.08847
5444.76342,0.08851
5442.83471,0.08685
5440.90599,0.08604
5438.97728,0.08705
5437.04856,0.08757
5435.11985,0.08664
5433.19113,0.08540
5431.26242,0.08547
5429.33370,0.08713
5427.40498,0.08862
5425.47627,0.08874
5423.54755,0.08847
5421.61884,0.08844
5419.69012,0.08833
5417.76141,0.08773
5415.83269,0.08684
5413.90398,0.08626
5411.97526,0.08651
5410.04655,0.08671
5408.11783,0.08627
5406.18912,0.08638
5404.26040,0.08712
5402.33169,0.08697
5400.40297,0.08616
5398.47425,0.08620
5396.54554,0.08707
5394.61682,0.08746
5392.68811,0.08705
5390.75939,0.08683
5388.83068,0.08677
5386.90196,0.08676
5384.97325,0.08722
5383.04453,0.08794
5381.11582,0.08876
5379.18710,0.08959
5377.25839,0.08999
5375.32967,0.09016
5373.40096,0.09047
5371.47224,0.09053
5369.54352,0.09001
5367.61481,0.08930
5365.68609,0.08901
5363.75738,0.08897
5361.82866,0.08929
5359.89995,0.08993
5357.97123,0.09007
5356.04252,0.08978
5354.11380,0.08936
5352.18509,0.08873
5350.25637,0.08797
5348.32766,0.08660
5346.39894,0.08517
5344.47022,0.08589
5342.54151,0.08787
5340.61279,0.08791
5338.68408,0.08640
5336.75536,0.08570
5334.82665,0.08605
5332.89793,0.08631
5330.96922,0.08632
5329.04050,0.08640
5327.11179,0.08683
5325.18307,0.08716
5323.25436,0.08726
5321.32564,0.08750
5319.39693,0.08761
5317.46821,0.08729
5315.53949,0.08635
5313.61078,0.08495
5311.68206,0.08417
5309.75335,0.08452
5307.82463,0.08508
5305.89592,0.08521
5303.96720,0.08516
5302.03849,0.08498
5300.10977,0.08456
5298.18106,0.08394
5296.25234,0.08301
5294.32363,0.08160
5292.39491,0.08008
5290.46620,0.07882
5288.53748,0.07805
5286.60876,0.07792
5284.68005,0.07795
5282.75133,0.07735
5280.82262,0.07615
5278.89390,0.07463
5276.96519,0.07252
5275.03647,0.07009
5273.10776,0.06846
5271.17904,0.06783
5269.25033,0.06781
5267.32161,0.06794
5265.39290,0.06786
5263.46418,0.06799
5261.53547,0.06833
5259.60675,0.06808
5257.67803,0.06796
5255.74932,0.06884
5253.82060,0.07026
5251.89189,0.07144
5249.96317,0.07231
5248.03446,0.07292
5246.10574,0.07384
5244.17703,0.07558
5242.24831,0.07747
5240.31960,0.07855
5238.39088,0.07920
5236.46217,0.08052
5234.53345,0.08242
5232.60473,0.08349
5230.67602,0.08356
5228.74730,0.08416
5226.81859,0.08572
5224.88987,0.08750
5222.96116,0.08902
5221.03244,0.09006
5219.10373,0.09033
5217.17501,0.09027
5215.24630,0.09085
5213.31758,0.09220
5211.38887,0.09348
5209.46015,0.09387
5207.53144,0.09332
5205.60272,0.09242
5203.67400,0.09178
5201.74529,0.09162
5199.81657,0.09197
5197.88786,0.09230
5195.95914,0.09213
5194.03043,0.09202
5192.10171,0.09205
5190.17300,0.09184
5188.24428,0.09174
5186.31557,0.09242
5184.38685,0.09335
5182.45814,0.09342
5180.52942,0.09299
5178.60071,0.09309
5176.67199,0.09365
5174.74327,0.09410
5172.81456,0.09378
5170.88584,0.09247
5168.95713,0.09160
5167.02841,0.09174
5165.09970,0.09158
5163.17098,0.09123
5161.24227,0.09149
5159.31355,0.09204
5157.38484,0.09282
5155.45612,0.09372
5153.52741,0.09423
5151.59869,0.09479
5149.66997,0.09556
5147.74126,0.09532
5145.81254,0.09428
5143.88383,0.09444
5141.95511,0.09577
5140.02640,0.09673
5138.09768,0.09720
5136.16897,0.09748
5134.24025,0.09764
5132.31154,0.09790
5130.38282,0.09819
5128.45411,0.09832
5126.52539,0.09844
5124.59668,0.09861
5122.66796,0.09861
5120.73924,0.09824
5118.81053,0.09815
5116.88181,0.09864
5114.95310,0.09866
5113.02438,0.09848
5111.09567,0.09912
5109.16695,0.09976
5107.23824,0.09949
5105.30952,0.09898
5103.38081,0.09903
5101.45209,0.09932
5099.52338,0.09931
5097.59466,0.09909
5095.66595,0.09863
5093.73723,0.09790
5091.80851,0.09760
5089.87980,0.09811
5087.95108,0.09847
5086.02237,0.09782
5084.09365,0.09681
5082.16494,0.09622
5080.23622,0.09592
5078.30751,0.09608
5076.37879,0.09673
5074.45008,0.09726
5072.52136,0.09761
5070.59265,0.09771
5068.66393,0.09725
5066.73522,0.09693
5064.80650,0.09700
5062.87778,0.09691
5060.94907,0.09662
5059.02035,0.09633
5057.09164,0.09628
5055.16292,0.09657
5053.23421,0.09687
5051.30549,0.09727
5049.37678,0.09804
5047.44806,0.09888
5045.51935,0.09952
5043.59063,0.09961
5041.66192,0.09902
5039.73320,0.09849
5037.80448,0.09854
5035.87577,0.09873
5033.94705,0.09867
5032.01834,0.09839
5030.08962,0.09785
5028.16091,0.09733
5026.23219,0.09724
5024.30348,0.09703
5022.37476,0.09639
5020.44605,0.09576
5018.51733,0.09559
5016.58862,0.09602
5014.65990,0.09634
5012.73119,0.09591
5010.80247,0.09511
5008.87375,0.09470
5006.94504,0.09496
5005.01632,0.09511
5003.08761,0.09468
5001.15889,0.09457
4999.23018,0.09479
4997.30146,0.09417
4995.37275,0.09299
4993.44403,0.09231
4991.51532,0.09223
4989.58660,0.09246
4987.65789,0.09269
4985.72917,0.09256
4983.80046,0.09177
4981.87174,0.09077
4979.94302,0.09057
4978.01431,0.09121
4976.08559,0.09208
4974.15688,0.09265
4972.22816,0.09253
4970.29945,0.09170
4968.37073,0.09064
4966.44202,0.09014
4964.51330,0.09019
4962.58459,0.09013
4960.65587,0.08995
4958.72716,0.09005
4956.79844,0.09055
4954.86972,0.09097
4952.94101,0.09115
4951.01229,0.09154
4949.08358,0.09178
4947.15486,0.09129
4945.22615,0.09034
4943.29743,0.08932
4941.36872,0.08885
4939.44000,0.08915
4937.51129,0.08943
4935.58257,0.08900
4933.65386,0.08814
4931.72514,0.08759
4929.79643,0.08768
4927.86771,0.08778
4925.93899,0.08723
4924.01028,0.08651
4922.08156,0.08623
4920.15285,0.08590
4918.22413,0.08503
4916.29542,0.08424
4914.36670,0.08390
4912.43799,0.08325
4910.50927,0.08208
4908.58056,0.08093
4906.65184,0.07970
4904.72313,0.07823
4902.79441,0.07725
4900.86570,0.07724
4898.93698,0.07763
4897.00826,0.07777
4895.07955,0.07766
4893.15083,0.07746
4891.22212,0.07720
4889.29340,0.07689
4887.36469,0.07649
4885.43597,0.07622
4883.50726,0.07627
4881.57854,0.07653
4879.64983,0.07663
4877.72111,0.07629
4875.79240,0.07586
4873.86368,0.07568
4871.93497,0.07538
4870.00625,0.07490
4868.07753,0.07473
4866.14882,0.07467
4864.22010,0.07406
4862.29139,0.07301
4860.36267,0.07223
4858.43396,0.07182
4856.50524,0.07159
4854.57653,0.07148
4852.64781,0.07150
4850.71910,0.07144
4848.79038,0.07103
4846.86167,0.07039
4844.93295,0.06981
4843.00423,0.06965
4841.07552,0.07008
4839.14680,0.07093
4837.21809,0.07151
4835.28937,0.07134
4833.36066,0.07093
4831.43194,0.07095
4829.50323,0.07156
4827.57451,0.07239
4825.64580,0.07281
4823.71708,0.07271
4821.78837,0.07258
4819.85965,0.07267
4817.93094,0.07297
4816.00222,0.07349
4814.07350,0.07406
4812.14479,0.07421
4810.21607,0.07362
4808.28736,0.07288
4806.35864,0.07298
4804.42993,0.07367
4802.50121,0.07396
4800.57250,0.07370
4798.64378,0.07346
4796.71507,0.07349
4794.78635,0.07345
4792.85764,0.07294
4790.92892,0.07222
4789.00021,0.07215
4787.07149,0.07278
4785.14277,0.07270
4783.21406,0.07137
4781.28534,0.07011
4779.35663,0.07001
4777.42791,0.07043
4775.49920,0.07022
4773.57048,0.06947
4771.64177,0.06880
4769.71305,0.06823
4767.78434,0.06779
4765.85562,0.06774
4763.92691,0.06793
4761.99819,0.06774
4760.06948,0.06696
4758.14076,0.06624
4756.21204,0.06621
4754.28333,0.06635
4752.35461,0.06585
4750.42590,0.06502
4748.49718,0.06463
4746.56847,0.06463
4744.63975,0.06450
4742.71104,0.06398
4740.78232,0.06316
4738.85361,0.06242
4736.92489,0.06223
4734.99618,0.06229
4733.06746,0.06189
4731.13874,0.06134
4729.21003,0.06156
4727.28131,0.06241
4725.35260,0.06291
4723.42388,0.06260
4721.49517,0.06198
4719.56645,0.06142
4717.63774,0.06101
4715.70902,0.06089
4713.78031,0.06084
4711.85159,0.06085
4709.92288,0.06137
4707.99416,0.06198
4706.06545,0.06183
4704.13673,0.06111
4702.20801,0.06075
4700.27930,0.06107
4698.35058,0.06155
4696.42187,0.06173
4694.49315,0.06160
4692.56444,0.06136
4690.63572,0.06130
4688.70701,0.06148
4686.77829,0.06140
4684.84958,0.06097
4682.92086,0.06095
4680.99215,0.06140
4679.06343,0.06160
4677.13472,0.06155
4675.20600,0.06151
4673.27728,0.06156
4671.34857,0.06190
4669.41985,0.06234
4667.49114,0.06235
4665.56242,0.06197
4663.63371,0.06159
4661.70499,0.06114
4659.77628,0.06085
4657.84756,0.06133
4655.91885,0.06202
4653.99013,0.06233
4652.06142,0.06259
4650.13270,0.06262
4648.20398,0.06234
4646.27527,0.06224
4644.34655,0.06208
4642.41784,0.06148
4640.48912,0.06070
4638.56041,0.06002
4636.63169,0.06003
4634.70298,0.06093
4632.77426,0.06181
4630.84555,0.06215
4628.91683,0.06217
4626.98812,0.06206
4625.05940,0.06193
4623.13069,0.06188
4621.20197,0.06205
4619.27325,0.06222
4617.34454,0.06184
4615.41582,0.06094
4613.48711,0.06016
4611.55839,0.06025
4609.62968,0.06092
4607.70096,0.06116
4605.77225,0.06111
4603.84353,0.06126
4601.91482,0.06140
4599.98610,0.06143
4598.05739,0.06134
4596.12867,0.06109
4594.19996,0.06093
4592.27124,0.06139
4590.34252,0.06230
4588.41381,0.06285
4586.48509,0.06270
4584.55638,0.06209
4582.62766,0.06170
4580.69895,0.06169
4578.77023,0.06141
4576.84152,0.06098
4574.91280,0.06105
4572.98409,0.06149
4571.05537,0.06175
4569.12666,0.06199
4567.19794,0.06239
4565.26923,0.06258
4563.34051,0.06237
4561.41179,0.06209
4559.48308,0.06199
4557.55436,0.06201
4555.62565,0.06213
4553.69693,0.06234
4551.76822,0.06234
4549.83950,0.06203
4547.91079,0.06194
4545.98207,0.06210
4544.05336,0.06204
4542.12464,0.06202
4540.19593,0.06247
4538.26721,0.06324
4536.33849,0.06383
4534.40978,0.06380
4532.48106,0.06312
4530.55235,0.06222
4528.62363,0.06174
4526.69492,0.06196
4524.76620,0.06244
4522.83749,0.06253
4520.90877,0.06238
4518.98006,0.06231
4517.05134,0.06212
4515.12263,0.06191
4513.19391,0.06187
4511.26520,0.06189
4509.33648,0.06203
4507.40776,0.06218
4505.47905,0.06205
4503.55033,0.06181
4501.62162,0.06188
4499.69290,0.06226
4497.76419,0.06244
4495.83547,0.06237
4493.90676,0.06233
4491.97804,0.06218
4490.04933,0.06181
4488.12061,0.06166
4486.19190,0.06180
4484.26318,0.06199
4482.33447,0.06230
4480.40575,0.06265
4478.47703,0.06281
4476.54832,0.06282
4474.61960,0.06292
4472.69089,0.06303
4470.76217,0.06284
4468.83346,0.06249
4466.90474,0.06255
4464.97603,0.06281
4463.04731,0.06272
4461.11860,0.06268
4459.18988,0.06285
4457.26117,0.06272
4455.33245,0.06233
4453.40373,0.06215
4451.47502,0.06235
4449.54630,0.06260
4447.61759,0.06254
4445.68887,0.06234
4443.76016,0.06234
4441.83144,0.06243
4439.90273,0.06232
4437.97401,0.06213
4436.04530,0.06209
4434.11658,0.06201
4432.18787,0.06178
4430.25915,0.06170
4428.33044,0.06163
4426.40172,0.06132
4424.47300,0.06123
4422.54429,0.06153
4420.61557,0.06193
4418.68686,0.06228
4416.75814,0.06227
4414.82943,0.06185
4412.90071,0.06150
4410.97200,0.06144
4409.04328,0.06165
4407.11457,0.06216
4405.18585,0.06264
4403.25714,0.06274
4401.32842,0.06259
4399.39971,0.06221
4397.47099,0.06162
4395.54227,0.06120
4393.61356,0.06128
4391.68484,0.06175
4389.75613,0.06229
4387.82741,0.06256
4385.89870,0.06236
4383.96998,0.06184
4382.04127,0.06156
4380.11255,0.06181
4378.18384,0.06221
4376.25512,0.06232
4374.32641,0.06200
4372.39769,0.06145
4370.46898,0.06128
4368.54026,0.06182
4366.61154,0.06255
4364.68283,0.06277
4362.75411,0.06249
4360.82540,0.06215
4358.89668,0.06199
4356.96797,0.06196
4355.03925,0.06216
4353.11054,0.06257
4351.18182,0.06279
4349.25311,0.06260
4347.32439,0.06219
4345.39568,0.06181
4343.46696,0.06173
4341.53824,0.06191
4339.60953,0.06213
4337.68081,0.06250
4335.75210,0.06288
4333.82338,0.06286
4331.89467,0.06263
4329.96595,0.06255
4328.03724,0.06257
4326.10852,0.06265
4324.17981,0.06284
4322.25109,0.06293
4320.32238,0.06272
4318.39366,0.06235
4316.46495,0.06223
4314.53623,0.06237
4312.60751,0.06253
4310.67880,0.06275
4308.75008,0.06304
4306.82137,0.06314
4304.89265,0.06273
4302.96394,0.06198
4301.03522,0.06166
4299.10651,0.06181
4297.17779,0.06181
4295.24908,0.06178
4293.32036,0.06203
4291.39165,0.06223
4289.46293,0.06216
4287.53422,0.06205
4285.60550,0.06210
4283.67678,0.06229
4281.74807,0.06247
4279.81935,0.06251
4277.89064,0.06235
4275.96192,0.06206
4274.03321,0.06168
4272.10449,0.06144
4270.17578,0.06160
4268.24706,0.06191
4266.31835,0.06202
4264.38963,0.06209
4262.46092,0.06223
4260.53220,0.06240
4258.60348,0.06256
4256.67477,0.06262
4254.74605,0.06267
4252.81734,0.06288
4250.88862,0.06291
4248.95991,0.06256
4247.03119,0.06235
4245.10248,0.06249
4243.17376,0.06256
4241.24505,0.06256
4239.31633,0.06261
4237.38762,0.06236
4235.45890,0.06181
4233.53019,0.06157
4231.60147,0.06191
4229.67275,0.06226
4227.74404,0.06224
4225.81532,0.06244
4223.88661,0.06299
4221.95789,0.06318
4220.02918,0.06288
4218.10046,0.06258
4216.17175,0.06245
4214.24303,0.06240
4212.31432,0.06236
4210.38560,0.06236
4208.45689,0.06251
4206.52817,0.06285
4204.59946,0.06321
4202.67074,0.06337
4200.74202,0.06326
4198.81331,0.06306
4196.88459,0.06296
4194.95588,0.06289
4193.02716,0.06276
4191.09845,0.06271
4189.16973,0.06273
4187.24102,0.06273
4185.31230,0.06261
4183.38359,0.06257
4181.45487,0.06269
4179.52616,0.06278
4177.59744,0.06299
4175.66873,0.06336
4173.74001,0.06348
4171.81129,0.06311
4169.88258,0.06244
4167.95386,0.06183
4166.02515,0.06171
4164.09643,0.06214
4162.16772,0.06264
4160.23900,0.06270
4158.31029,0.06244
4156.38157,0.06263
4154.45286,0.06317
4152.52414,0.06331
4150.59543,0.06320
4148.66671,0.06309
4146.73799,0.06275
4144.80928,0.06249
4142.88056,0.06267
4140.95185,0.06296
4139.02313,0.06304
4137.09442,0.06309
4135.16570,0.06306
4133.23699,0.06281
4131.30827,0.06250
4129.37956,0.06230
4127.45084,0.06224
4125.52213,0.06237
4123.59341,0.06266
4121.66470,0.06298
4119.73598,0.06317
4117.80726,0.06308
4115.87855,0.06276
4113.94983,0.06261
4112.02112,0.06279
4110.09240,0.06281
4108.16369,0.06258
4106.23497,0.06270
4104.30626,0.06319
4102.37754,0.06332
4100.44883,0.06303
4098.52011,0.06292
4096.59140,0.06308
4094.66268,0.06305
4092.73397,0.06278
4090.80525,0.06271
4088.87653,0.06293
4086.94782,0.06305
4085.01910,0.06286
4083.09039,0.06251
4081.16167,0.06237
4079.23296,0.06251
4077.30424,0.06261
4075.37553,0.06240
4073.44681,0.06223
4071.51810,0.06256
4069.58938,0.06309
4067.66067,0.06339
4065.73195,0.06332
4063.80323,0.06297
4061.87452,0.06279
4059.94580,0.06319
4058.01709,0.06388
4056.08837,0.06410
4054.15966,0.06372
4052.23094,0.06321
4050.30223,0.06291
4048.37351,0.06308
4046.44480,0.06339
4044.51608,0.06318
4042.58737,0.06274
4040.65865,0.06273
4038.72994,0.06311
4036.80122,0.06352
4034.87250,0.06364
4032.94379,0.06329
4031.01507,0.06280
4029.08636,0.06272
4027.15764,0.06283
4025.22893,0.06290
4023.30021,0.06303
4021.37150,0.06312
4019.44278,0.06309
4017.51407,0.06324
4015.58535,0.06356
4013.65664,0.06366
4011.72792,0.06337
4009.79921,0.06298
4007.87049,0.06299
4005.94177,0.06332
4004.01306,0.06357
4002.08434,0.06361
4000.15563,0.06340
3998.22691,0.06303
3996.29820,0.06277
3994.36948,0.06280
3992.44077,0.06303
3990.51205,0.06319
3988.58334,0.06316
3986.65462,0.06294
3984.72591,0.06266
3982.79719,0.06254
3980.86848,0.06262
3978.93976,0.06287
3977.01104,0.06307
3975.08233,0.06295
3973.15361,0.06274
3971.22490,0.06279
3969.29618,0.06275
3967.36747,0.06242
3965.43875,0.06225
3963.51004,0.06255
3961.58132,0.06301
3959.65261,0.06318
3957.72389,0.06320
3955.79518,0.06328
3953.86646,0.06326
3951.93774,0.06306
3950.00903,0.06299
3948.08031,0.06310
3946.15160,0.06309
3944.22288,0.06297
3942.29417,0.06298
3940.36545,0.06302
3938.43674,0.06296
3936.50802,0.06296
3934.57931,0.06318
3932.65059,0.06358
3930.72188,0.06389
3928.79316,0.06380
3926.86445,0.06351
3924.93573,0.06334
3923.00701,0.06324
3921.07830,0.06305
3919.14958,0.06269
3917.22087,0.06252
3915.29215,0.06292
3913.36344,0.06334
3911.43472,0.06345
3909.50601,0.06349
3907.57729,0.06363
3905.64858,0.06374
3903.71986,0.06350
3901.79115,0.06290
3899.86243,0.06236
3897.93372,0.06230
3896.00500,0.06282
3894.07628,0.06341
3892.14757,0.06352
3890.21885,0.06319
3888.29014,0.06301
3886.36142,0.06316
3884.43271,0.06356
3882.50399,0.06371
3880.57528,0.06362
3878.64656,0.06366
3876.71785,0.06344
3874.78913,0.06267
3872.86042,0.06199
3870.93170,0.06206
3869.00298,0.06265
3867.07427,0.06321
3865.14555,0.06313
3863.21684,0.06253
3861.28812,0.06255
3859.35941,0.06320
3857.43069,0.06395
3855.50198,0.06447
3853.57326,0.06420
3851.64455,0.06355
3849.71583,0.06363
3847.78712,0.06379
3845.85840,0.06355
3843.92969,0.06325
3842.00097,0.06368
3840.07225,0.06474
3838.14354,0.06530
3836.21482,0.06463
3834.28611,0.06360
3832.35739,0.06287
3830.42868,0.06287
3828.49996,0.06330
3826.57125,0.06321
3824.64253,0.06270
3822.71382,0.06224
3820.78510,0.06196
3818.85639,0.06233
3816.92767,0.06286
3814.99896,0.06312
3813.07024,0.06327
3811.14152,0.06339
3809.21281,0.06343
3807.28409,0.06342
3805.35538,0.06359
3803.42666,0.06354
3801.49795,0.06306
3799.56923,0.06296
3797.64052,0.06320
3795.71180,0.06340
3793.78309,0.06354
3791.85437,0.06362
3789.92566,0.06368
3787.99694,0.06369
3786.06823,0.06356
3784.13951,0.06335
3782.21079,0.06314
3780.28208,0.06295
3778.35336,0.06301
3776.42465,0.06331
3774.49593,0.06342
3772.56722,0.06318
3770.63850,0.06270
3768.70979,0.06260
3766.78107,0.06311
3764.85236,0.06366
3762.92364,0.06394
3760.99493,0.06397
3759.06621,0.06394
3757.13749,0.06394
3755.20878,0.06373
3753.28006,0.06329
3751.35135,0.06274
3749.42263,0.06228
3747.49392,0.06183
3745.56520,0.06122
3743.63649,0.06116
3741.70777,0.06200
3739.77906,0.06276
3737.85034,0.06314
3735.92163,0.06329
3733.99291,0.06315
3732.06420,0.06281
3730.13548,0.06298
3728.20676,0.06359
3726.27805,0.06420
3724.34933,0.06446
3722.42062,0.06431
3720.49190,0.06382
3718.56319,0.06311
3716.63447,0.06263
3714.70576,0.06265
3712.77704,0.06282
3710.84833,0.06264
3708.91961,0.06247
3706.99090,0.06257
3705.06218,0.06281
3703.13347,0.06302
3701.20475,0.06296
3699.27603,0.06284
3697.34732,0.06305
3695.41860,0.06354
3693.48989,0.06390
3691.56117,0.06357
3689.63246,0.06230
3687.70374,0.06209
3685.77503,0.06293
3683.84631,0.06343
3681.91760,0.06383
3679.98888,0.06440
3678.06017,0.06429
3676.13145,0.06287
3674.20273,0.06237
3672.27402,0.06289
3670.34530,0.06280
3668.41659,0.06251
3666.48787,0.06266
3664.55916,0.06303
3662.63044,0.06327
3660.70173,0.06311
3658.77301,0.06256
3656.84430,0.06219
3654.91558,0.06261
3652.98687,0.06318
3651.05815,0.06298
3649.12944,0.06157
3647.20072,0.06129
3645.27200,0.06204
3643.34329,0.06250
3641.41457,0.06275
3639.48586,0.06297
3637.55714,0.06315
3635.62843,0.06303
3633.69971,0.06259
3631.77100,0.06203
3629.84228,0.06125
3627.91357,0.06110
3625.98485,0.06202
3624.05614,0.06269
3622.12742,0.06282
3620.19871,0.06273
3618.26999,0.06296
3616.34127,0.06302
3614.41256,0.06238
3612.48384,0.06179
3610.55513,0.06201
3608.62641,0.06283
3606.69770,0.06363
3604.76898,0.06373
3602.84027,0.06308
3600.91155,0.06219
3598.98284,0.06191
3597.05412,0.06219
3595.12541,0.06246
3593.19669,0.06262
3591.26798,0.06265
3589.33926,0.06228
3587.41054,0.06156
3585.48183,0.06142
3583.55311,0.06163
3581.62440,0.06167
3579.69568,0.06173
3577.76697,0.06175
3575.83825,0.06160
3573.90954,0.06152
3571.98082,0.06161
3570.05211,0.06189
3568.12339,0.06223
3566.19468,0.06215
3564.26596,0.06189
3562.33724,0.06202
3560.40853,0.06216
3558.47981,0.06211
3556.55110,0.06239
3554.62238,0.06298
3552.69367,0.06302
3550.76495,0.06247
3548.83624,0.06202
3546.90752,0.06162
3544.97881,0.06131
3543.05009,0.06142
3541.12138,0.06169
3539.19266,0.06195
3537.26395,0.06221
3535.33523,0.06228
3533.40651,0.06229
3531.47780,0.06250
3529.54908,0.06265
3527.62037,0.06238
3525.69165,0.06201
3523.76294,0.06189
3521.83422,0.06213
3519.90551,0.06270
3517.97679,0.06313
3516.04808,0.06312
3514.11936,0.06303
3512.19065,0.06299
3510.26193,0.06279
3508.33322,0.06255
3506.40450,0.06257
3504.47578,0.06273
3502.54707,0.06257
3500.61835,0.06207
3498.68964,0.06181
3496.76092,0.06205
3494.83221,0.06257
3492.90349,0.06301
3490.97478,0.06328
3489.04606,0.06329
3487.11735,0.06285
3485.18863,0.06228
3483.25992,0.06208
3481.33120,0.06202
3479.40248,0.06180
3477.47377,0.06177
3475.54505,0.06202
3473.61634,0.06212
3471.68762,0.06187
3469.75891,0.06158
3467.83019,0.06172
3465.90148,0.06216
3463.97276,0.06249
3462.04405,0.06262
3460.11533,0.06240
3458.18662,0.06202
3456.25790,0.06192
3454.32919,0.06201
3452.40047,0.06220
3450.47175,0.06241
3448.54304,0.06241
3446.61432,0.06247
3444.68561,0.06262
3442.75689,0.06230
3440.82818,0.06183
3438.89946,0.06192
3436.97075,0.06232
3435.04203,0.06259
3433.11332,0.06278
3431.18460,0.06289
3429.25589,0.06279
3427.32717,0.06263
3425.39846,0.06245
3423.46974,0.06239
3421.54102,0.06248
3419.61231,0.06260
3417.68359,0.06256
3415.75488,0.06227
3413.82616,0.06213
3411.89745,0.06233
3409.96873,0.06240
3408.04002,0.06214
3406.11130,0.06184
3404.18259,0.06182
3402.25387,0.06206
3400.32516,0.06224
3398.39644,0.06212
3396.46773,0.06183
3394.53901,0.06163
3392.61029,0.06162
3390.68158,0.06167
3388.75286,0.06183
3386.82415,0.06224
3384.89543,0.06264
3382.96672,0.06263
3381.03800,0.06227
3379.10929,0.06211
3377.18057,0.06227
3375.25186,0.06229
3373.32314,0.06191
3371.39443,0.06158
3369.46571,0.06180
3367.53699,0.06230
3365.60828,0.06247
3363.67956,0.06242
3361.75085,0.06248
3359.82213,0.06238
3357.89342,0.06198
3355.96470,0.06156
3354.03599,0.06130
3352.10727,0.06133
3350.17856,0.06165
3348.24984,0.06193
3346.32113,0.06207
3344.39241,0.06224
3342.46370,0.06233
3340.53498,0.06214
3338.60626,0.06194
3336.67755,0.06185
3334.74883,0.06162
3332.82012,0.06143
3330.89140,0.06153
3328.96269,0.06175
3327.03397,0.06186
3325.10526,0.06178
3323.17654,0.06143
3321.24783,0.06107
3319.31911,0.06112
3317.39040,0.06151
3315.46168,0.06173
3313.53297,0.06161
3311.60425,0.06157
3309.67553,0.06190
3307.74682,0.06224
3305.81810,0.06229
3303.88939,0.06219
3301.96067,0.06213
3300.03196,0.06219
3298.10324,0.06232
3296.17453,0.06247
3294.24581,0.06247
3292.31710,0.06218
3290.38838,0.06185
3288.45967,0.06192
3286.53095,0.06222
3284.60223,0.06226
3282.67352,0.06211
3280.74480,0.06220
3278.81609,0.06245
3276.88737,0.06240
3274.95866,0.06200
3273.02994,0.06154
3271.10123,0.06126
3269.17251,0.06116
3267.24380,0.06133
3265.31508,0.06180
3263.38637,0.06211
3261.45765,0.06203
3259.52894,0.06192
3257.60022,0.06196
3255.67150,0.06190
3253.74279,0.06165
3251.81407,0.06161
3249.88536,0.06194
3247.95664,0.06207
3246.02793,0.06190
3244.09921,0.06190
3242.17050,0.06216
3240.24178,0.06243
3238.31307,0.06249
3236.38435,0.06235
3234.45564,0.06226
3232.52692,0.06243
3230.59821,0.06269
3228.66949,0.06278
3226.74077,0.06268
3224.81206,0.06262
3222.88334,0.06274
3220.95463,0.06279
3219.02591,0.06253
3217.09720,0.06212
3215.16848,0.06204
3213.23977,0.06232
3211.31105,0.06244
3209.38234,0.06227
3207.45362,0.06214
3205.52491,0.06217
3203.59619,0.06233
3201.66748,0.06260
3199.73876,0.06282
3197.81004,0.06290
3195.88133,0.06261
3193.95261,0.06200
3192.02390,0.06185
3190.09518,0.06227
3188.16647,0.06245
3186.23775,0.06226
3184.30904,0.06223
3182.38032,0.06240
3180.45161,0.06229
3178.52289,0.06181
3176.59418,0.06153
3174.66546,0.06155
3172.73674,0.06153
3170.80803,0.06158
3168.87931,0.06180
3166.95060,0.06191
3165.02188,0.06181
3163.09317,0.06178
3161.16445,0.06209
3159.23574,0.06260
3157.30702,0.06278
3155.37831,0.06253
3153.44959,0.06229
3151.52088,0.06217
3149.59216,0.06219
3147.66345,0.06234
3145.73473,0.06228
3143.80601,0.06203
3141.87730,0.06195
3139.94858,0.06198
3138.01987,0.06185
3136.09115,0.06165
3134.16244,0.06147
3132.23372,0.06135
3130.30501,0.06145
3128.37629,0.06177
3126.44758,0.06205
3124.51886,0.06205
3122.59015,0.06197
3120.66143,0.06214
3118.73272,0.06234
3116.80400,0.06230
3114.87528,0.06228
3112.94657,0.06235
3111.01785,0.06224
3109.08914,0.06181
3107.16042,0.06136
3105.23171,0.06139
3103.30299,0.06177
3101.37428,0.06188
3099.44556,0.06176
3097.51685,0.06186
3095.58813,0.06200
3093.65942,0.06188
3091.73070,0.06175
3089.80198,0.06183
3087.87327,0.06207
3085.94455,0.06228
3084.01584,0.06222
3082.08712,0.06210
3080.15841,0.06223
3078.22969,0.06236
3076.30098,0.06218
3074.37226,0.06179
3072.44355,0.06153
3070.51483,0.06153
3068.58612,0.06156
3066.65740,0.06156
3064.72869,0.06162
3062.79997,0.06166
3060.87125,0.06166
3058.94254,0.06172
3057.01382,0.06178
3055.08511,0.06179
3053.15639,0.06180
3051.22768,0.06178
3049.29896,0.06172
3047.37025,0.06174
3045.44153,0.06170
3043.51282,0.06162
3041.58410,0.06184
3039.65539,0.06231
3037.72667,0.06266
3035.79796,0.06267
3033.86924,0.06237
3031.94052,0.06204
3030.01181,0.06198
3028.08309,0.06216
3026.15438,0.06229
3024.22566,0.06214
3022.29695,0.06192
3020.36823,0.06203
3018.43952,0.06244
3016.51080,0.06257
3014.58209,0.06227
3012.65337,0.06185
3010.72466,0.06152
3008.79594,0.06118
3006.86723,0.06091
3004.93851,0.06083
3003.00979,0.06082
3001.08108,0.06085
2999.15236,0.06098
2997.22365,0.06107
2995.29493,0.06103
2993.36622,0.06090
2991.43750,0.06078
2989.50879,0.06081
2987.58007,0.06080
2985.65136,0.06046
2983.72264,0.05995
2981.79393,0.05967
2979.86521,0.05983
2977.93649,0.06035
2976.00778,0.06095
2974.07906,0.06124
2972.15035,0.06136
2970.22163,0.06181
2968.29292,0.06248
2966.36420,0.06313
2964.43549,0.06373
2962.50677,0.06415
2960.57806,0.06430
2958.64934,0.06416
2956.72063,0.06381
2954.79191,0.06363
2952.86320,0.06367
2950.93448,0.06361
2949.00576,0.06363
2947.07705,0.06384
2945.14833,0.06386
2943.21962,0.06357
2941.29090,0.06322
2939.36219,0.06317
2937.43347,0.06358
2935.50476,0.06411
2933.57604,0.06433
2931.64733,0.06438
2929.71861,0.06461
2927.78990,0.06485
2925.86118,0.06480
2923.93247,0.06469
2922.00375,0.06479
2920.07503,0.06492
2918.14632,0.06474
2916.21760,0.06429
2914.28889,0.06402
2912.36017,0.06415
2910.43146,0.06441
2908.50274,0.06445
2906.57403,0.06423
2904.64531,0.06392
2902.71660,0.06361
2900.78788,0.06348
2898.85917,0.06376
2896.93045,0.06415
2895.00173,0.06412
2893.07302,0.06370
2891.14430,0.06341
2889.21559,0.06355
2887.28687,0.06384
2885.35816,0.06388
2883.42944,0.06367
2881.50073,0.06341
2879.57201,0.06316
2877.64330,0.06294
2875.71458,0.06289
2873.78587,0.06300
2871.85715,0.06326
2869.92844,0.06360
2867.99972,0.06396
2866.07100,0.06445
2864.14229,0.06490
2862.21357,0.06487
2860.28486,0.06443
2858.35614,0.06397
2856.42743,0.06367
2854.49871,0.06360
2852.57000,0.06365
2850.64128,0.06363
2848.71257,0.06360
2846.78385,0.06355
2844.85514,0.06347
2842.92642,0.06354
2840.99771,0.06372
2839.06899,0.06376
2837.14027,0.06371
2835.21156,0.06364
2833.28284,0.06353
2831.35413,0.06347
2829.42541,0.06356
2827.49670,0.06366
2825.56798,0.06350
2823.63927,0.06324
2821.71055,0.06320
2819.78184,0.06338
2817.85312,0.06351
2815.92441,0.06350
2813.99569,0.06354
2812.06698,0.06364
2810.13826,0.06359
2808.20954,0.06334
2806.28083,0.06310
2804.35211,0.06322
2802.42340,0.06348
2800.49468,0.06348
2798.56597,0.06338
2796.63725,0.06338
2794.70854,0.06336
2792.77982,0.06331
2790.85111,0.06328
2788.92239,0.06319
2786.99368,0.06311
2785.06496,0.06324
2783.13624,0.06353
2781.20753,0.06364
2779.27881,0.06344
2777.35010,0.06322
2775.42138,0.06320
2773.49267,0.06319
2771.56395,0.06312
2769.63524,0.06307
2767.70652,0.06299
2765.77781,0.06294
2763.84909,0.06296
2761.92038,0.06301
2759.99166,0.06305
2758.06295,0.06304
2756.13423,0.06319
2754.20551,0.06351
2752.27680,0.06364
2750.34808,0.06353
2748.41937,0.06344
2746.49065,0.06342
2744.56194,0.06341
2742.63322,0.06335
2740.70451,0.06331
2738.77579,0.06330
2736.84708,0.06328
2734.91836,0.06335
2732.98965,0.06359
2731.06093,0.06380
2729.13222,0.06378
2727.20350,0.06357
2725.27478,0.06331
2723.34607,0.06308
2721.41735,0.06294
2719.48864,0.06306
2717.55992,0.06336
2715.63121,0.06345
2713.70249,0.06323
2711.77378,0.06299
2709.84506,0.06295
2707.91635,0.06303
2705.98763,0.06312
2704.05892,0.06326
2702.13020,0.06349
2700.20149,0.06365
2698.27277,0.06360
2696.34405,0.06345
2694.41534,0.06323
2692.48662,0.06304
2690.55791,0.06298
2688.62919,0.06296
2686.70048,0.06287
2684.77176,0.06280
2682.84305,0.06290
2680.91433,0.06313
2678.98562,0.06337
2677.05690,0.06350
2675.12819,0.06353
2673.19947,0.06344
2671.27075,0.06330
2669.34204,0.06320
2667.41332,0.06320
2665.48461,0.06325
2663.55589,0.06333
2661.62718,0.06336
2659.69846,0.06323
2657.76975,0.06306
2655.84103,0.06309
2653.91232,0.06322
2651.98360,0.06316
2650.05489,0.06302
2648.12617,0.06311
2646.19746,0.06321
2644.26874,0.06309
2642.34002,0.06305
2640.41131,0.06328
2638.48259,0.06342
2636.55388,0.06322
2634.62516,0.06298
2632.69645,0.06302
2630.76773,0.06323
2628.83902,0.06336
2626.91030,0.06330
2624.98159,0.06312
2623.05287,0.06290
2621.12416,0.06275
2619.19544,0.06284
2617.26673,0.06305
2615.33801,0.06311
2613.40929,0.06307
2611.48058,0.06309
2609.55186,0.06310
2607.62315,0.06304
2605.69443,0.06289
2603.76572,0.06269
2601.83700,0.06254
2599.90829,0.06239
2597.97957,0.06230
2596.05086,0.06248
2594.12214,0.06281
2592.19343,0.06292
2590.26471,0.06280
2588.33599,0.06277
2586.40728,0.06302
2584.47856,0.06334
2582.54985,0.06335
2580.62113,0.06303
2578.69242,0.06281
2576.76370,0.06291
2574.83499,0.06307
2572.90627,0.06312
2570.97756,0.06301
2569.04884,0.06278
2567.12013,0.06261
2565.19141,0.06257
2563.26270,0.06268
2561.33398,0.06296
2559.40526,0.06316
2557.47655,0.06310
2555.54783,0.06290
2553.61912,0.06281
2551.69040,0.06286
2549.76169,0.06283
2547.83297,0.06271
2545.90426,0.06270
2543.97554,0.06279
2542.04683,0.06281
2540.11811,0.06271
2538.18940,0.06260
2536.26068,0.06261
2534.33197,0.06267
2532.40325,0.06261
2530.47453,0.06255
2528.54582,0.06271
2526.61710,0.06294
2524.68839,0.06309
2522.75967,0.06307
2520.83096,0.06290
2518.90224,0.06281
2516.97353,0.06282
2515.04481,0.06272
2513.11610,0.06262
2511.18738,0.06268
2509.25867,0.06274
2507.32995,0.06267
2505.40124,0.06268
2503.47252,0.06284
2501.54380,0.06299
2499.61509,0.06303
2497.68637,0.06289
2495.75766,0.06262
2493.82894,0.06258
2491.90023,0.06282
2489.97151,0.06301
2488.04280,0.06296
2486.11408,0.06276
2484.18537,0.06270
2482.25665,0.06278
2480.32794,0.06286
2478.39922,0.06287
2476.47050,0.06272
2474.54179,0.06248
2472.61307,0.06238
2470.68436,0.06246
2468.75564,0.06257
2466.82693,0.06265
2464.89821,0.06267
2462.96950,0.06260
2461.04078,0.06264
2459.11207,0.06277
2457.18335,0.06278
2455.25464,0.06268
2453.32592,0.06262
2451.39721,0.06274
2449.46849,0.06292
2447.53977,0.06293
2445.61106,0.06283
2443.68234,0.06273
2441.75363,0.06265
2439.82491,0.06269
2437.89620,0.06278
2435.96748,0.06273
2434.03877,0.06260
2432.11005,0.06251
2430.18134,0.06243
2428.25262,0.06238
2426.32391,0.06240
2424.39519,0.06257
2422.46648,0.06282
2420.53776,0.06282
2418.60904,0.06255
2416.68033,0.06246
2414.75161,0.06264
2412.82290,0.06282
2410.89418,0.06294
2408.96547,0.06294
2407.03675,0.06287
2405.10804,0.06296
2403.17932,0.06317
2401.25061,0.06316
2399.32189,0.06293
2397.39318,0.06274
2395.46446,0.06273
2393.53574,0.06282
2391.60703,0.06285
2389.67831,0.06282
2387.74960,0.06283
2385.82088,0.06291
2383.89217,0.06302
2381.96345,0.06307
2380.03474,0.06308
2378.10602,0.06326
2376.17731,0.06358
2374.24859,0.06378
2372.31988,0.06393
2370.39116,0.06432
2368.46245,0.06471
2366.53373,0.06432
2364.60501,0.06298
2362.67630,0.06162
2360.74758,0.06170
2358.81887,0.06278
2356.89015,0.06294
2354.96144,0.06251
2353.03272,0.06238
2351.10401,0.06237
2349.17529,0.06249
2347.24658,0.06284
2345.31786,0.06285
2343.38915,0.06166
2341.46043,0.06057
2339.53172,0.06139
2337.60300,0.06341
2335.67428,0.06504
2333.74557,0.06525
2331.81685,0.06439
2329.88814,0.06377
2327.95942,0.06364
2326.03071,0.06340
2324.10199,0.06294
2322.17328,0.06274
2320.24456,0.06297
2318.31585,0.06303
2316.38713,0.06268
2314.45842,0.06236
2312.52970,0.06234
2310.60099,0.06252
2308.67227,0.06258
2306.74355,0.06243
2304.81484,0.06233
2302.88612,0.06248
2300.95741,0.06264
2299.02869,0.06260
2297.09998,0.06241
2295.17126,0.06218
2293.24255,0.06209
2291.31383,0.06211
2289.38512,0.06208
2287.45640,0.06199
2285.52769,0.06194
2283.59897,0.06198
2281.67025,0.06218
2279.74154,0.06244
2277.81282,0.06258
2275.88411,0.06263
2273.95539,0.06261
2272.02668,0.06247
2270.09796,0.06232
2268.16925,0.06220
2266.24053,0.06210
2264.31182,0.06219
2262.38310,0.06235
2260.45439,0.06237
2258.52567,0.06236
2256.59696,0.06241
2254.66824,0.06247
2252.73952,0.06246
2250.81081,0.06234
2248.88209,0.06222
2246.95338,0.06219
2245.02466,0.06223
2243.09595,0.06234
2241.16723,0.06240
2239.23852,0.06228
2237.30980,0.06218
2235.38109,0.06220
2233.45237,0.06222
2231.52366,0.06225
2229.59494,0.06229
2227.66623,0.06228
2225.73751,0.06235
2223.80879,0.06254
2221.88008,0.06263
2219.95136,0.06256
2218.02265,0.06244
2216.09393,0.06236
2214.16522,0.06234
2212.23650,0.06235
2210.30779,0.06235
2208.37907,0.06241
2206.45036,0.06246
2204.52164,0.06239
2202.59293,0.06227
2200.66421,0.06217
2198.73549,0.06214
2196.80678,0.06223
2194.87806,0.06233
2192.94935,0.06235
2191.02063,0.06233
2189.09192,0.06230
2187.16320,0.06224
2185.23449,0.06220
2183.30577,0.06224
2181.37706,0.06229
2179.44834,0.06229
2177.51963,0.06230
2175.59091,0.06236
2173.66220,0.06240
2171.73348,0.06233
2169.80476,0.06221
2167.87605,0.06210
2165.94733,0.06201
2164.01862,0.06200
2162.08990,0.06207
2160.16119,0.06206
2158.23247,0.06203
2156.30376,0.06208
2154.37504,0.06215
2152.44633,0.06217
2150.51761,0.06211
2148.58890,0.06214
2146.66018,0.06226
2144.73147,0.06215
2142.80275,0.06183
2140.87403,0.06164
2138.94532,0.06165
2137.01660,0.06170
2135.08789,0.06171
2133.15917,0.06174
2131.23046,0.06183
2129.30174,0.06196
2127.37303,0.06203
2125.44431,0.06204
2123.51560,0.06198
2121.58688,0.06182
2119.65817,0.06168
2117.72945,0.06163
2115.80074,0.06165
2113.87202,0.06171
2111.94330,0.06174
2110.01459,0.06171
2108.08587,0.06162
2106.15716,0.06149
2104.22844,0.06140
2102.29973,0.06146
2100.37101,0.06159
2098.44230,0.06172
2096.51358,0.06179
2094.58487,0.06175
2092.65615,0.06165
2090.72744,0.06157
2088.79872,0.06142
2086.87000,0.06129
2084.94129,0.06139
2083.01257,0.06157
2081.08386,0.06150
2079.15514,0.06132
2077.22643,0.06133
2075.29771,0.06148
2073.36900,0.06157
2071.44028,0.06154
2069.51157,0.06139
2067.58285,0.06116
2065.65414,0.06102
2063.72542,0.06113
2061.79671,0.06140
2059.86799,0.06154
2057.93927,0.06140
2056.01056,0.06127
2054.08184,0.06128
2052.15313,0.06132
2050.22441,0.06127
2048.29570,0.06119
2046.36698,0.06113
2044.43827,0.06109
2042.50955,0.06110
2040.58084,0.06109
2038.65212,0.06104
2036.72341,0.06108
2034.79469,0.06117
2032.86598,0.06116
2030.93726,0.06106
2029.00854,0.06106
2027.07983,0.06112
2025.15111,0.06100
2023.22240,0.06083
2021.29368,0.06086
2019.36497,0.06097
2017.43625,0.06104
2015.50754,0.06109
2013.57882,0.06102
2011.65011,0.06085
2009.72139,0.06078
2007.79268,0.06086
2005.86396,0.06095
2003.93524,0.06092
2002.00653,0.06077
2000.07781,0.06063
1998.14910,0.06068
1996.22038,0.06084
1994.29167,0.06088
1992.36295,0.06082
1990.43424,0.06087
1988.50552,0.06088
1986.57681,0.06069
1984.64809,0.06059
1982.71938,0.06066
1980.79066,0.06059
1978.86195,0.06047
1976.93323,0.06051
1975.00451,0.06057
1973.07580,0.06050
1971.14708,0.06036
1969.21837,0.06040
1967.28965,0.06060
1965.36094,0.06065
1963.43222,0.06053
1961.50351,0.06044
1959.57479,0.06041
1957.64608,0.06036
1955.71736,0.06026
1953.78865,0.06012
1951.85993,0.05996
1949.93122,0.05995
1948.00250,0.06005
1946.07378,0.05993
1944.14507,0.05965
1942.21635,0.05964
1940.28764,0.05994
1938.35892,0.06014
1936.43021,0.06003
1934.50149,0.05979
1932.57278,0.05963
1930.64406,0.05960
1928.71535,0.05968
1926.78663,0.05985
1924.85792,0.05990
1922.92920,0.05976
1921.00049,0.05960
1919.07177,0.05946
1917.14305,0.05919
1915.21434,0.05895
1913.28562,0.05897
1911.35691,0.05916
1909.42819,0.05917
1907.49948,0.05889
1905.57076,0.05875
1903.64205,0.05888
1901.71333,0.05900
1899.78462,0.05903
1897.85590,0.05902
1895.92719,0.05896
1893.99847,0.05895
1892.06975,0.05899
1890.14104,0.05891
1888.21232,0.05876
1886.28361,0.05877
1884.35489,0.05874
1882.42618,0.05855
1880.49746,0.05835
1878.56875,0.05826
1876.64003,0.05819
1874.71132,0.05803
1872.78260,0.05797
1870.85389,0.05809
1868.92517,0.05809
1866.99646,0.05778
1865.06774,0.05752
1863.13902,0.05741
1861.21031,0.05738
1859.28159,0.05736
1857.35288,0.05728
1855.42416,0.05711
1853.49545,0.05688
1851.56673,0.05665
1849.63802,0.05655
1847.70930,0.05658
1845.78059,0.05653
1843.85187,0.05634
1841.92316,0.05613
1839.99444,0.05584
1838.06573,0.05549
1836.13701,0.05530
1834.20829,0.05532
1832.27958,0.05535
1830.35086,0.05516
1828.42215,0.05483
1826.49343,0.05454
1824.56472,0.05415
1822.63600,0.05369
1820.70729,0.05325
1818.77857,0.05276
1816.84986,0.05228
1814.92114,0.05176
1812.99243,0.05111
1811.06371,0.05040
1809.13499,0.04979
1807.20628,0.04906
1805.27756,0.04814
1803.34885,0.04723
1801.42013,0.04616
1799.49142,0.04494
1797.56270,0.04414
1795.63399,0.04365
1793.70527,0.04302
1791.77656,0.04236
1789.84784,0.04283
1787.91913,0.04447
1785.99041,0.04697
1784.06170,0.05032
1782.13298,0.05456
1780.20426,0.05995
1778.27555,0.06542
1776.34683,0.07006
1774.41812,0.07459
1772.48940,0.08026
1770.56069,0.08544
1768.63197,0.08797
1766.70326,0.08892
1764.77454,0.08884
1762.84583,0.08752
1760.91711,0.08496
1758.98840,0.08252
1757.05968,0.08037
1755.13097,0.07841
1753.20225,0.07706
1751.27353,0.07585
1749.34482,0.07426
1747.41610,0.07278
1745.48739,0.07175
1743.55867,0.07094
1741.62996,0.07024
1739.70124,0.06966
1737.77253,0.06944
1735.84381,0.06944
1733.91510,0.06900
1731.98638,0.06835
1730.05767,0.06806
1728.12895,0.06764
1726.20024,0.06713
1724.27152,0.06678
1722.34280,0.06672
1720.41409,0.06681
1718.48537,0.06678
1716.55666,0.06606
1714.62794,0.06521
1712.69923,0.06496
1710.77051,0.06503
1708.84180,0.06521
1706.91308,0.06528
1704.98437,0.06508
1703.05565,0.06487
1701.12694,0.06432
1699.19822,0.06275
1697.26950,0.06166
1695.34079,0.06207
1693.41207,0.06280
1691.48336,0.06314
1689.55464,0.06305
1687.62593,0.06284
1685.69721,0.06278
1683.76850,0.06254
1681.83978,0.06202
1679.91107,0.06174
1677.98235,0.06167
1676.05364,0.06169
1674.12492,0.06166
1672.19621,0.06162
1670.26749,0.06152
1668.33877,0.06102
1666.41006,0.06057
1664.48134,0.06048
1662.55263,0.06073
1660.62391,0.06104
1658.69520,0.06117
1656.76648,0.06118
1654.83777,0.06104
1652.90905,0.06077
1650.98034,0.06107
1649.05162,0.06150
1647.12291,0.06137
1645.19419,0.06080
1643.26548,0.06063
1641.33676,0.06056
1639.40804,0.06050
1637.47933,0.06056
1635.55061,0.06035
1633.62190,0.05994
1631.69318,0.05991
1629.76447,0.06008
1627.83575,0.06016
1625.90704,0.06001
1623.97832,0.05962
1622.04961,0.05928
1620.12089,0.05940
1618.19218,0.05954
1616.26346,0.05913
1614.33474,0.05889
1612.40603,0.05902
1610.47731,0.05891
1608.54860,0.05847
1606.61988,0.05821
1604.69117,0.05836
1602.76245,0.05876
1600.83374,0.05913
1598.90502,0.05926
1596.97631,0.05924
1595.04759,0.05931
1593.11888,0.05944
1591.19016,0.05946
1589.26145,0.05944
1587.33273,0.05946
1585.40401,0.05942
1583.47530,0.05926
1581.54658,0.05914
1579.61787,0.05919
1577.68915,0.05907
1575.76044,0.05836
1573.83172,0.05792
1571.90301,0.05787
1569.97429,0.05763
1568.04558,0.05733
1566.11686,0.05727
1564.18815,0.05722
1562.25943,0.05709
1560.33072,0.05657
1558.40200,0.05508
1556.47328,0.05491
1554.54457,0.05518
1552.61585,0.05513
1550.68714,0.05498
1548.75842,0.05483
1546.82971,0.05471
1544.90099,0.05453
1542.97228,0.05391
1541.04356,0.05230
1539.11485,0.05155
1537.18613,0.05222
1535.25742,0.05267
1533.32870,0.05239
1531.39999,0.05178
1529.47127,0.05143
1527.54255,0.05099
1525.61384,0.05029
1523.68512,0.04937
1521.75641,0.04771
1519.82769,0.04618
1517.89898,0.04500
1515.97026,0.04336
1514.04155,0.04251
1512.11283,0.04306
1510.18412,0.04471
1508.25540,0.04989
1506.32669,0.06361
1504.39797,0.07051
1502.46925,0.07249
1500.54054,0.07363
1498.61182,0.07391
1496.68311,0.07282
1494.75439,0.07146
1492.82568,0.07061
1490.89696,0.06957
1488.96825,0.06782
1487.03953,0.06636
1485.11082,0.06554
1483.18210,0.06479
1481.25339,0.06397
1479.32467,0.06336
1477.39596,0.06303
1475.46724,0.06267
1473.53852,0.06182
1471.60981,0.06086
1469.68109,0.06067
1467.75238,0.06086
1465.82366,0.06112
1463.89495,0.06127
1461.96623,0.06141
1460.03752,0.06159
1458.10880,0.06136
1456.18009,0.06020
1454.25137,0.05966
1452.32266,0.05972
1450.39394,0.05986
1448.46523,0.05976
1446.53651,0.05935
1444.60779,0.05894
1442.67908,0.05879
1440.75036,0.05884
1438.82165,0.05890
1436.89293,0.05861
1434.96422,0.05805
1433.03550,0.05768
1431.10679,0.05730
1429.17807,0.05678
1427.24936,0.05639
1425.32064,0.05607
1423.39193,0.05560
1421.46321,0.05502
1419.53449,0.05427
1417.60578,0.05349
1415.67706,0.05333
1413.74835,0.05366
1411.81963,0.05439
1409.89092,0.05535
1407.96220,0.05613
1406.03349,0.05646
1404.10477,0.05640
1402.17606,0.05628
1400.24734,0.05620
1398.31863,0.05597
1396.38991,0.05546
1394.46120,0.05459
1392.53248,0.05383
1390.60376,0.05360
1388.67505,0.05380
1386.74633,0.05422
1384.81762,0.05445
1382.88890,0.05436
1380.96019,0.05394
1379.03147,0.05334
1377.10276,0.05288
1375.17404,0.05254
1373.24533,0.05195
1371.31661,0.05115
1369.38790,0.05052
1367.45918,0.05049
1365.53047,0.05121
1363.60175,0.05227
1361.67303,0.05299
1359.74432,0.05301
1357.81560,0.05262
1355.88689,0.05197
1353.95817,0.05119
1352.02946,0.05050
1350.10074,0.04997
1348.17203,0.04943
1346.24331,0.04886
1344.31460,0.04864
1342.38588,0.04873
1340.45717,0.04847
1338.52845,0.04754
1336.59974,0.04670
1334.67102,0.04618
1332.74230,0.04571
1330.81359,0.04526
1328.88487,0.04487
1326.95616,0.04442
1325.02744,0.04390
1323.09873,0.04334
1321.17001,0.04260
1319.24130,0.04157
1317.31258,0.04051
1315.38387,0.03976
1313.45515,0.03932
1311.52644,0.03906
1309.59772,0.03892
1307.66900,0.03868
1305.74029,0.03796
1303.81157,0.03686
1301.88286,0.03589
1299.95414,0.03532
1298.02543,0.03503
1296.09671,0.03488
1294.16800,0.03480
1292.23928,0.03476
1290.31057,0.03468
1288.38185,0.03440
1286.45314,0.03388
1284.52442,0.03316
1282.59571,0.03214
1280.66699,0.03079
1278.73827,0.02937
1276.80956,0.02784
1274.88084,0.02595
1272.95213,0.02388
1271.02341,0.02211
1269.09470,0.02082
1267.16598,0.02007
1265.23727,0.02034
1263.30855,0.02267
1261.37984,0.02798
1259.45112,0.03632
1257.52241,0.04671
1255.59369,0.05794
1253.66498,0.06894
1251.73626,0.07889
1249.80754,0.08731
1247.87883,0.09403
1245.95011,0.09923
1244.02140,0.10347
1242.09268,0.10734
1240.16397,0.11126
1238.23525,0.11545
1236.30654,0.11991
1234.37782,0.12433
1232.44911,0.12841
1230.52039,0.13215
1228.59168,0.13534
1226.66296,0.13748
1224.73424,0.13834
1222.80553,0.13774
1220.87681,0.13528
1218.94810,0.13069
1217.01938,0.12408
1215.09067,0.11580
1213.16195,0.10608
1211.23324,0.09533
1209.30452,0.08483
1207.37581,0.07658
1205.44709,0.07327
1203.51838,0.07746
1201.58966,0.08965
1199.66095,0.10732
1197.73223,0.12654
1195.80351,0.14382
1193.87480,0.15677
1191.94608,0.16409
1190.01737,0.16535
1188.08865,0.16083
1186.15994,0.15169
1184.23122,0.14019
1182.30251,0.12892
1180.37379,0.11942
1178.44508,0.11146
1176.51636,0.10389
1174.58765,0.09594
1172.65893,0.08886
1170.73022,0.08647
1168.80150,0.09333
1166.87278,0.11030
1164.94407,0.13153
1163.01535,0.14808
1161.08664,0.15489
1159.15792,0.15290
1157.22921,0.14622
1155.30049,0.13866
1153.37178,0.13201
1151.44306,0.12653
1149.51435,0.12189
1147.58563,0.11787
1145.65692,0.11454
1143.72820,0.11182
1141.79949,0.10931
1139.87077,0.10684
1137.94205,0.10461
1136.01334,0.10275
1134.08462,0.10109
1132.15591,0.09952
1130.22719,0.09814
1128.29848,0.09687
1126.36976,0.09554
1124.44105,0.09418
1122.51233,0.09295
1120.58362,0.09183
1118.65490,0.09065
1116.72619,0.08934
1114.79747,0.08815
1112.86875,0.08773
1110.94004,0.08827
1109.01132,0.08895
1107.08261,0.08890
1105.15389,0.08836
1103.22518,0.08809
1101.29646,0.08809
1099.36775,0.08785
1097.43903,0.08719
1095.51032,0.08614
1093.58160,0.08473
1091.65289,0.08278
1089.72417,0.08035
1087.79546,0.07815
1085.86674,0.07753
1083.93802,0.08015
1082.00931,0.08612
1080.08059,0.09261
1078.15188,0.09605
1076.22316,0.09563
1074.29445,0.09322
1072.36573,0.09089
1070.43702,0.08941
1068.50830,0.08832
1066.57959,0.08697
1064.65087,0.08563
1062.72216,0.08474
1060.79344,0.08409
1058.86473,0.08348
1056.93601,0.08304
1055.00729,0.08259
1053.07858,0.08187
1051.14986,0.08106
1049.22115,0.08045
1047.29243,0.07997
1045.36372,0.07949
1043.43500,0.07905
1041.50629,0.07844
1039.57757,0.07751
1037.64886,0.07651
1035.72014,0.07559
1033.79143,0.07466
1031.86271,0.07330
1029.93399,0.07146
1028.00528,0.06956
1026.07656,0.06758
1024.14785,0.06538
1022.21913,0.06332
1020.29042,0.06300
1018.36170,0.06801
1016.43299,0.07989
1014.50427,0.09254
1012.57556,0.09792
1010.64684,0.09640
1008.71813,0.09383
1006.78941,0.09300
1004.86070,0.09296
1002.93198,0.09252
1001.00326,0.09152
999.07455,0.09028
997.14583,0.08898
995.21712,0.08791
993.28840,0.08718
991.35969,0.08654
989.43097,0.08587
987.50226,0.08524
985.57354,0.08464
983.64483,0.08403
981.71611,0.08332
979.78740,0.08254
977.85868,0.08181
975.92997,0.08126
974.00125,0.08107
972.07253,0.08118
970.14382,0.08119
968.21510,0.08081
966.28639,0.08024
964.35767,0.07979
962.42896,0.07942
960.50024,0.07903
958.57153,0.07874
956.64281,0.07854
954.71410,0.07832
952.78538,0.07806
950.85667,0.07778
948.92795,0.07759
946.99924,0.07750
945.07052,0.07739
943.14180,0.07741
941.21309,0.07763
939.28437,0.07763
937.35566,0.07735
935.42694,0.07712
933.49823,0.07694
931.56951,0.07662
929.64080,0.07614
927.71208,0.07566
925.78337,0.07528
923.85465,0.07501
921.92594,0.07484
919.99722,0.07487
918.06850,0.07504
916.13979,0.07486
914.21107,0.07429
912.28236,0.07386
910.35364,0.07376
908.42493,0.07346
906.49621,0.07270
904.56750,0.07208
902.63878,0.07178
900.71007,0.07112
898.78135,0.06990
896.85264,0.06867
894.92392,0.06814
892.99521,0.06869
891.06649,0.07012
889.13777,0.07191
887.20906,0.07347
885.28034,0.07455
883.35163,0.07532
881.42291,0.07573
879.49420,0.07571
877.56548,0.07552
875.63677,0.07503
873.70805,0.07389
871.77934,0.07263
869.85062,0.07180
867.92191,0.07104
865.99319,0.07000
864.06448,0.06910
862.13576,0.06861
860.20704,0.06805
858.27833,0.06704
856.34961,0.06601
854.42090,0.06545
852.49218,0.06511
850.56347,0.06474
848.63475,0.06471
846.70604,0.06506
844.77732,0.06549
842.84861,0.06599
840.91989,0.06649
838.99118,0.06719
837.06246,0.06888
835.13375,0.07177
833.20503,0.07524
831.27631,0.07881
829.34760,0.08193
827.41888,0.08366
825.49017,0.08403
823.56145,0.08364
821.63274,0.08283
819.70402,0.08220
817.77531,0.08242
815.84659,0.08328
813.91788,0.08409
811.98916,0.08449
810.06045,0.08458
808.13173,0.08448
806.20301,0.08400
804.27430,0.08318
802.34558,0.08233
800.41687,0.08143
798.48815,0.08044
796.55944,0.07946
794.63072,0.07855
792.70201,0.07788
790.77329,0.07739
788.84458,0.07679
786.91586,0.07615
784.98715,0.07563
783.05843,0.07503
781.12972,0.07447
779.20100,0.07415
777.27228,0.07392
775.34357,0.07384
773.41485,0.07414
771.48614,0.07517
769.55742,0.07703
767.62871,0.07874
765.69999,0.07950
763.77128,0.07985
761.84256,0.08031
759.91385,0.08057
757.98513,0.08062
756.05642,0.08086
754.12770,0.08116
752.19899,0.08103
750.27027,0.08048
748.34155,0.08005
746.41284,0.07992
744.48412,0.07977
742.55541,0.07939
740.62669,0.07855
738.69798,0.07734
736.76926,0.07665
734.84055,0.07691
732.91183,0.07722
730.98312,0.07702
729.05440,0.07688
727.12569,0.07703
725.19697,0.07699
723.26825,0.07660
721.33954,0.07623
719.41082,0.07600
717.48211,0.07556
715.55339,0.07498
713.62468,0.07479
711.69596,0.07521
709.76725,0.07597
707.83853,0.07656
705.90982,0.07671
703.98110,0.07671
702.05239,0.07699
700.12367,0.07740
698.19496,0.07763
696.26624,0.07758
694.33752,0.07742
692.40881,0.07757
690.48009,0.07794
688.55138,0.07790
686.62266,0.07758
684.69395,0.07740
682.76523,0.07688
680.83652,0.07597
678.90780,0.07535
676.97909,0.07524
675.05037,0.07546
673.12166,0.07564
671.19294,0.07544
669.26423,0.07484
667.33551,0.07486
665.40679,0.07537
663.47808,0.07535
661.54936,0.07509
659.62065,0.07522
657.69193,0.07521
655.76322,0.07445
653.83450,0.07364
651.90579,0.07337
649.97707,0.07335
648.04836,0.07325
646.11964,0.07307
644.19093,0.07305
642.26221,0.07325
640.33350,0.07333
638.40478,0.07332
636.47606,0.07358
634.54735,0.07391
632.61863,0.07383
630.68992,0.07343
628.76120,0.07284
626.83249,0.07219
624.90377,0.07156
622.97506,0.07076
621.04634,0.07008
619.11763,0.06975
617.18891,0.06981
615.26020,0.07016
613.33148,0.06998
611.40276,0.06932
609.47405,0.06956
607.54533,0.07030
605.61662,0.06963
603.68790,0.06799
601.75919,0.06763
599.83047,0.06857
