7496.91655,0.02362
7494.98784,0.02174
7493.05912,0.01841
7491.13041,0.01833
7489.20169,0.01773
7487.27297,0.01672
7485.34426,0.01681
7483.41554,0.01508
7481.48683,0.00658
7479.55811,0.00778
7477.62940,0.02100
7475.70068,0.02855
7473.77197,0.02246
7471.84325,0.01616
7469.91454,0.01791
7467.98582,0.01945
7466.05711,0.01786
7464.12839,0.01922
7462.19968,0.02031
7460.27096,0.01884
7458.34224,0.02096
7456.41353,0.02570
7454.48481,0.02801
7452.55610,0.02902
7450.62738,0.02513
7448.69867,0.01899
7446.76995,0.01705
7444.84124,0.01752
7442.91252,0.01709
7440.98381,0.02057
7439.05509,0.02689
7437.12638,0.03169
7435.19766,0.03415
7433.26895,0.03484
7431.34023,0.03306
7429.41151,0.03147
7427.48280,0.03117
7425.55408,0.02924
7423.62537,0.02385
7421.69665,0.02053
7419.76794,0.01966
7417.83922,0.02309
7415.91051,0.03144
7413.98179,0.03743
7412.05308,0.03734
7410.12436,0.03554
7408.19565,0.03410
7406.26693,0.03184
7404.33821,0.02720
7402.40950,0.02637
7400.48078,0.02971
7398.55207,0.02722
7396.62335,0.02296
7394.69464,0.02454
7392.76592,0.02486
7390.83721,0.02530
7388.90849,0.02517
7386.97978,0.02485
7385.05106,0.02417
7383.12235,0.02275
7381.19363,0.02415
7379.26492,0.02874
7377.33620,0.02936
7375.40748,0.02607
7373.47877,0.02480
7371.55005,0.02585
7369.62134,0.02509
7367.69262,0.02216
7365.76391,0.02251
7363.83519,0.02823
7361.90648,0.02881
7359.97776,0.02081
7358.04905,0.01655
7356.12033,0.02201
7354.19162,0.02727
7352.26290,0.02516
7350.33419,0.02090
7348.40547,0.02008
7346.47675,0.02312
7344.54804,0.02780
7342.61932,0.03159
7340.69061,0.03143
7338.76189,0.02733
7336.83318,0.02539
7334.90446,0.02729
7332.97575,0.03090
7331.04703,0.03296
7329.11832,0.02846
7327.18960,0.01988
7325.26089,0.02043
7323.33217,0.02705
7321.40346,0.02958
7319.47474,0.02942
7317.54602,0.02652
7315.61731,0.01951
7313.68859,0.01764
7311.75988,0.02395
7309.83116,0.02911
7307.90245,0.02723
7305.97373,0.02168
7304.04502,0.01882
7302.11630,0.01989
7300.18759,0.02269
7298.25887,0.02852
7296.33016,0.03425
7294.40144,0.03523
7292.47272,0.02994
7290.54401,0.02291
7288.61529,0.02156
7286.68658,0.02958
7284.75786,0.03543
7282.82915,0.03168
7280.90043,0.02524
7278.97172,0.02458
7277.04300,0.02635
7275.11429,0.02865
7273.18557,0.03054
7271.25686,0.02907
7269.32814,0.02450
7267.39943,0.02436
7265.47071,0.02653
7263.54199,0.02452
7261.61328,0.02186
7259.68456,0.02137
7257.75585,0.01912
7255.82713,0.01821
7253.89842,0.01966
7251.96970,0.01892
7250.04099,0.01967
7248.11227,0.02596
7246.18356,0.03244
7244.25484,0.03622
7242.32613,0.03314
7240.39741,0.02259
7238.46870,0.01595
7236.53998,0.01671
7234.61126,0.01709
7232.68255,0.01461
7230.75383,0.01242
7228.82512,0.01720
7226.89640,0.02213
7224.96769,0.02078
7223.03897,0.01657
7221.11026,0.01472
7219.18154,0.01305
7217.25283,0.01840
7215.32411,0.02644
7213.39540,0.03060
7211.46668,0.02928
7209.53796,0.02825
7207.60925,0.02561
7205.68053,0.01801
7203.75182,0.01476
7201.82310,0.01748
7199.89439,0.01675
7197.96567,0.01411
7196.03696,0.01143
7194.10824,0.01101
7192.17953,0.01574
7190.25081,0.02077
7188.32210,0.02190
7186.39338,0.02216
7184.46467,0.02231
7182.53595,0.02396
7180.60723,0.02755
7178.67852,0.03028
7176.74980,0.03184
7174.82109,0.03108
7172.89237,0.02770
7170.96366,0.02500
7169.03494,0.02333
7167.10623,0.02461
7165.17751,0.02629
7163.24880,0.02474
7161.32008,0.02378
7159.39137,0.02718
7157.46265,0.02846
7155.53394,0.02627
7153.60522,0.02499
7151.67650,0.02558
7149.74779,0.02545
7147.81907,0.02477
7145.89036,0.02358
7143.96164,0.02358
7142.03293,0.02801
7140.10421,0.03108
7138.17550,0.02782
7136.24678,0.02465
7134.31807,0.02399
7132.38935,0.02427
7130.46064,0.02389
7128.53192,0.02208
7126.60321,0.02181
7124.67449,0.02651
7122.74577,0.03321
7120.81706,0.03605
7118.88834,0.03277
7116.95963,0.02743
7115.03091,0.02458
7113.10220,0.02367
7111.17348,0.02479
7109.24477,0.02822
7107.31605,0.03151
7105.38734,0.03328
7103.45862,0.03237
7101.52991,0.03040
7099.60119,0.02921
7097.67247,0.02966
7095.74376,0.03209
7093.81504,0.03498
7091.88633,0.03277
7089.95761,0.02475
7088.02890,0.01824
7086.10018,0.01753
7084.17147,0.01855
7082.24275,0.01873
7080.31404,0.01923
7078.38532,0.02300
7076.45661,0.02854
7074.52789,0.02952
7072.59918,0.02518
7070.67046,0.02073
7068.74174,0.01825
7066.81303,0.01935
7064.88431,0.02462
7062.95560,0.02986
7061.02688,0.03190
7059.09817,0.03202
7057.16945,0.03173
7055.24074,0.03103
7053.31202,0.02939
7051.38331,0.02821
7049.45459,0.02812
7047.52588,0.02747
7045.59716,0.02494
7043.66845,0.02220
7041.73973,0.02227
7039.81101,0.02582
7037.88230,0.02870
7035.95358,0.02756
7034.02487,0.02497
7032.09615,0.02527
7030.16744,0.02682
7028.23872,0.02726
7026.31001,0.02724
7024.38129,0.02859
7022.45258,0.02888
7020.52386,0.02766
7018.59515,0.02792
7016.66643,0.02970
7014.73771,0.03133
7012.80900,0.03154
7010.88028,0.02875
7008.95157,0.02471
7007.02285,0.02206
7005.09414,0.02282
7003.16542,0.02522
7001.23671,0.02708
6999.30799,0.02814
6997.37928,0.03011
6995.45056,0.03132
6993.52185,0.03016
6991.59313,0.02738
6989.66442,0.02511
6987.73570,0.02289
6985.80698,0.02060
6983.87827,0.02149
6981.94955,0.02491
6980.02084,0.02597
6978.09212,0.02491
6976.16341,0.02497
6974.23469,0.02634
6972.30598,0.02698
6970.37726,0.02627
6968.44855,0.02510
6966.51983,0.02409
6964.59112,0.02161
6962.66240,0.02077
6960.73369,0.02258
6958.80497,0.02429
6956.87625,0.02497
6954.94754,0.02567
6953.01882,0.02531
6951.09011,0.02409
6949.16139,0.02207
6947.23268,0.02134
6945.30396,0.02557
6943.37525,0.03101
6941.44653,0.03085
6939.51782,0.02737
6937.58910,0.02521
6935.66039,0.02407
6933.73167,0.02302
6931.80296,0.02445
6929.87424,0.02862
6927.94552,0.03058
6926.01681,0.02844
6924.08809,0.02680
6922.15938,0.02871
6920.23066,0.03164
6918.30195,0.03288
6916.37323,0.03294
6914.44452,0.03230
6912.51580,0.02905
6910.58709,0.02312
6908.65837,0.02145
6906.72966,0.02593
6904.80094,0.02727
6902.87222,0.02286
6900.94351,0.02018
6899.01479,0.02166
6897.08608,0.02465
6895.15736,0.02660
6893.22865,0.02655
6891.29993,0.02532
6889.37122,0.02477
6887.44250,0.02504
6885.51379,0.02442
6883.58507,0.02372
6881.65636,0.02600
6879.72764,0.02745
6877.79893,0.02580
6875.87021,0.02591
6873.94149,0.02931
6872.01278,0.03008
6870.08406,0.02689
6868.15535,0.02470
6866.22663,0.02353
6864.29792,0.02095
6862.36920,0.02139
6860.44049,0.02589
6858.51177,0.02867
6856.58306,0.02825
6854.65434,0.02734
6852.72563,0.02563
6850.79691,0.02242
6848.86820,0.02070
6846.93948,0.02153
6845.01076,0.02265
6843.08205,0.02434
6841.15333,0.02510
6839.22462,0.02433
6837.29590,0.02385
6835.36719,0.02557
6833.43847,0.02523
6831.50976,0.02063
6829.58104,0.01798
6827.65233,0.02047
6825.72361,0.02187
6823.79490,0.02264
6821.86618,0.02540
6819.93746,0.02709
6818.00875,0.02612
6816.08003,0.02453
6814.15132,0.02538
6812.22260,0.02831
6810.29389,0.02809
6808.36517,0.02530
6806.43646,0.02469
6804.50774,0.02606
6802.57903,0.02683
6800.65031,0.02649
6798.72160,0.02457
6796.79288,0.02298
6794.86417,0.02384
6792.93545,0.02643
6791.00673,0.02896
6789.07802,0.02959
6787.14930,0.02646
6785.22059,0.02283
6783.29187,0.02317
6781.36316,0.02647
6779.43444,0.02802
6777.50573,0.02632
6775.57701,0.02413
6773.64830,0.02368
6771.71958,0.02428
6769.79087,0.02575
6767.86215,0.02785
6765.93344,0.03006
6764.00472,0.03042
6762.07600,0.02793
6760.14729,0.02530
6758.21857,0.02488
6756.28986,0.02416
6754.36114,0.02210
6752.43243,0.02174
6750.50371,0.02419
6748.57500,0.02592
6746.64628,0.02600
6744.71757,0.02546
6742.78885,0.02526
6740.86014,0.02679
6738.93142,0.02903
6737.00271,0.02929
6735.07399,0.02830
6733.14527,0.02623
6731.21656,0.02251
6729.28784,0.01904
6727.35913,0.01842
6725.43041,0.01987
6723.50170,0.02323
6721.57298,0.02760
6719.64427,0.02970
6717.71555,0.02934
6715.78684,0.02892
6713.85812,0.02742
6711.92941,0.02403
6710.00069,0.02178
6708.07197,0.02259
6706.14326,0.02427
6704.21454,0.02359
6702.28583,0.02137
6700.35711,0.02156
6698.42840,0.02393
6696.49968,0.02337
6694.57097,0.01831
6692.64225,0.01469
6690.71354,0.01613
6688.78482,0.01949
6686.85611,0.02168
6684.92739,0.02280
6682.99868,0.02388
6681.06996,0.02508
6679.14124,0.02548
6677.21253,0.02433
6675.28381,0.02297
6673.35510,0.02297
6671.42638,0.02315
6669.49767,0.02338
6667.56895,0.02363
6665.64024,0.02300
6663.71152,0.02230
6661.78281,0.02301
6659.85409,0.02452
6657.92538,0.02561
6655.99666,0.02542
6654.06795,0.02524
6652.13923,0.02576
6650.21051,0.02627
6648.28180,0.02562
6646.35308,0.02356
6644.42437,0.02233
6642.49565,0.02298
6640.56694,0.02289
6638.63822,0.02087
6636.70951,0.01905
6634.78079,0.02038
6632.85208,0.02385
6630.92336,0.02677
6628.99465,0.02872
6627.06593,0.03048
6625.13722,0.03114
6623.20850,0.02983
6621.27978,0.02809
6619.35107,0.02713
6617.42235,0.02638
6615.49364,0.02512
6613.56492,0.02293
6611.63621,0.02171
6609.70749,0.02256
6607.77878,0.02392
6605.85006,0.02368
6603.92135,0.02127
6601.99263,0.01887
6600.06392,0.02029
6598.13520,0.02360
6596.20648,0.02434
6594.27777,0.02448
6592.34905,0.02667
6590.42034,0.02723
6588.49162,0.02649
6586.56291,0.02844
6584.63419,0.03151
6582.70548,0.03242
6580.77676,0.03136
6578.84805,0.02897
6576.91933,0.02605
6574.99062,0.02508
6573.06190,0.02677
6571.13319,0.02787
6569.20447,0.02762
6567.27575,0.02644
6565.34704,0.02486
6563.41832,0.02428
6561.48961,0.02466
6559.56089,0.02431
6557.63218,0.02322
6555.70346,0.02295
6553.77475,0.02363
6551.84603,0.02418
6549.91732,0.02473
6547.98860,0.02499
6546.05989,0.02449
6544.13117,0.02363
6542.20246,0.02261
6540.27374,0.02180
6538.34502,0.02197
6536.41631,0.02302
6534.48759,0.02292
6532.55888,0.02114
6530.63016,0.02191
6528.70145,0.02518
6526.77273,0.02616
6524.84402,0.02558
6522.91530,0.02580
6520.98659,0.02617
6519.05787,0.02639
6517.12916,0.02521
6515.20044,0.02254
6513.27172,0.02161
6511.34301,0.02317
6509.41429,0.02528
6507.48558,0.02720
6505.55686,0.02759
6503.62815,0.02644
6501.69943,0.02554
6499.77072,0.02516
6497.84200,0.02516
6495.91329,0.02590
6493.98457,0.02720
6492.05586,0.02790
6490.12714,0.02632
6488.19843,0.02488
6486.26971,0.02514
6484.34099,0.02480
6482.41228,0.02261
6480.48356,0.02080
6478.55485,0.02124
6476.62613,0.02236
6474.69742,0.02212
6472.76870,0.02160
6470.83999,0.02190
6468.91127,0.02328
6466.98256,0.02561
6465.05384,0.02761
6463.12513,0.02712
6461.19641,0.02314
6459.26770,0.01908
6457.33898,0.01913
6455.41026,0.02123
6453.48155,0.02226
6451.55283,0.02320
6449.62412,0.02521
6447.69540,0.02678
6445.76669,0.02680
6443.83797,0.02654
6441.90926,0.02695
6439.98054,0.02709
6438.05183,0.02575
6436.12311,0.02333
6434.19440,0.02226
6432.26568,0.02254
6430.33697,0.02237
6428.40825,0.02273
6426.47953,0.02407
6424.55082,0.02430
6422.62210,0.02408
6420.69339,0.02443
6418.76467,0.02409
6416.83596,0.02350
6414.90724,0.02387
6412.97853,0.02409
6411.04981,0.02497
6409.12110,0.02670
6407.19238,0.02559
6405.26367,0.02114
6403.33495,0.01877
6401.40623,0.02059
6399.47752,0.02409
6397.54880,0.02609
6395.62009,0.02460
6393.69137,0.02220
6391.76266,0.02239
6389.83394,0.02357
6387.90523,0.02505
6385.97651,0.02769
6384.04780,0.02917
6382.11908,0.02767
6380.19037,0.02602
6378.26165,0.02563
6376.33294,0.02446
6374.40422,0.02239
6372.47550,0.02095
6370.54679,0.02066
6368.61807,0.02134
6366.68936,0.02145
6364.76064,0.02029
6362.83193,0.02004
6360.90321,0.02217
6358.97450,0.02513
6357.04578,0.02706
6355.11707,0.02784
6353.18835,0.02786
6351.25964,0.02656
6349.33092,0.02384
6347.40221,0.02107
6345.47349,0.02033
6343.54477,0.02072
6341.61606,0.02016
6339.68734,0.01936
6337.75863,0.02041
6335.82991,0.02283
6333.90120,0.02402
6331.97248,0.02300
6330.04377,0.02275
6328.11505,0.02430
6326.18634,0.02527
6324.25762,0.02490
6322.32891,0.02361
6320.40019,0.02186
6318.47147,0.02130
6316.54276,0.02228
6314.61404,0.02358
6312.68533,0.02482
6310.75661,0.02502
6308.82790,0.02343
6306.89918,0.02348
6304.97047,0.02524
6303.04175,0.02433
6301.11304,0.02173
6299.18432,0.02102
6297.25561,0.02146
6295.32689,0.02167
6293.39818,0.02153
6291.46946,0.02209
6289.54074,0.02271
6287.61203,0.02246
6285.68331,0.02246
6283.75460,0.02289
6281.82588,0.02278
6279.89717,0.02313
6277.96845,0.02315
6276.03974,0.02130
6274.11102,0.01993
6272.18231,0.02087
6270.25359,0.02236
6268.32488,0.02356
6266.39616,0.02405
6264.46745,0.02295
6262.53873,0.02147
6260.61001,0.02129
6258.68130,0.02245
6256.75258,0.02459
6254.82387,0.02576
6252.89515,0.02420
6250.96644,0.02159
6249.03772,0.02138
6247.10901,0.02336
6245.18029,0.02512
6243.25158,0.02600
6241.32286,0.02605
6239.39415,0.02625
6237.46543,0.02807
6235.53672,0.02933
6233.60800,0.02796
6231.67928,0.02539
6229.75057,0.02301
6227.82185,0.02083
6225.89314,0.01979
6223.96442,0.02024
6222.03571,0.02120
6220.10699,0.02228
6218.17828,0.02328
6216.24956,0.02372
6214.32085,0.02388
6212.39213,0.02395
6210.46342,0.02455
6208.53470,0.02462
6206.60598,0.02297
6204.67727,0.02192
6202.74855,0.02267
6200.81984,0.02276
6198.89112,0.02188
6196.96241,0.02169
6195.03369,0.02203
6193.10498,0.02164
6191.17626,0.02040
6189.24755,0.01940
6187.31883,0.02093
6185.39012,0.02441
6183.46140,0.02623
6181.53269,0.02543
6179.60397,0.02425
6177.67525,0.02384
6175.74654,0.02402
6173.81782,0.02413
6171.88911,0.02442
6169.96039,0.02550
6168.03168,0.02647
6166.10296,0.02522
6164.17425,0.02297
6162.24553,0.02212
6160.31682,0.02182
6158.38810,0.02089
6156.45939,0.02015
6154.53067,0.02033
6152.60196,0.02113
6150.67324,0.02164
6148.74452,0.02248
6146.81581,0.02417
6144.88709,0.02468
6142.95838,0.02359
6141.02966,0.02334
6139.10095,0.02427
6137.17223,0.02437
6135.24352,0.02345
6133.31480,0.02353
6131.38609,0.02368
6129.45737,0.02211
6127.52866,0.02061
6125.59994,0.02043
6123.67122,0.02065
6121.74251,0.02154
6119.81379,0.02361
6117.88508,0.02547
6115.95636,0.02489
6114.02765,0.02330
6112.09893,0.02327
6110.17022,0.02371
6108.24150,0.02335
6106.31279,0.02291
6104.38407,0.02244
6102.45536,0.02255
6100.52664,0.02419
6098.59793,0.02700
6096.66921,0.02942
6094.74049,0.02949
6092.81178,0.02733
6090.88306,0.02546
6088.95435,0.02467
6087.02563,0.02400
6085.09692,0.02362
6083.16820,0.02370
6081.23949,0.02384
6079.31077,0.02410
6077.38206,0.02435
6075.45334,0.02473
6073.52463,0.02461
6071.59591,0.02354
6069.66720,0.02283
6067.73848,0.02336
6065.80976,0.02383
6063.88105,0.02335
6061.95233,0.02376
6060.02362,0.02513
6058.09490,0.02468
6056.16619,0.02334
6054.23747,0.02270
6052.30876,0.02218
6050.38004,0.02229
6048.45133,0.02322
6046.52261,0.02405
6044.59390,0.02458
6042.66518,0.02401
6040.73647,0.02249
6038.80775,0.02106
6036.87903,0.02019
6034.95032,0.01963
6033.02160,0.02011
6031.09289,0.02191
6029.16417,0.02320
6027.23546,0.02258
6025.30674,0.02194
6023.37803,0.02177
6021.44931,0.02111
6019.52060,0.02175
6017.59188,0.02476
6015.66317,0.02671
6013.73445,0.02519
6011.80573,0.02244
6009.87702,0.02116
6007.94830,0.02153
6006.01959,0.02309
6004.09087,0.02494
6002.16216,0.02567
6000.23344,0.02450
5998.30473,0.02298
5996.37601,0.02242
5994.44730,0.02268
5992.51858,0.02448
5990.58987,0.02750
5988.66115,0.02912
5986.73244,0.02784
5984.80372,0.02455
5982.87500,0.02196
5980.94629,0.02194
5979.01757,0.02402
5977.08886,0.02572
5975.16014,0.02599
5973.23143,0.02631
5971.30271,0.02693
5969.37400,0.02720
5967.44528,0.02699
5965.51657,0.02548
5963.58785,0.02313
5961.65914,0.02217
5959.73042,0.02288
5957.80171,0.02326
5955.87299,0.02275
5953.94427,0.02268
5952.01556,0.02349
5950.08684,0.02409
5948.15813,0.02424
5946.22941,0.02429
5944.30070,0.02371
5942.37198,0.02260
5940.44327,0.02241
5938.51455,0.02309
5936.58584,0.02314
5934.65712,0.02233
5932.72841,0.02165
5930.79969,0.02215
5928.87097,0.02395
5926.94226,0.02526
5925.01354,0.02529
5923.08483,0.02510
5921.15611,0.02466
5919.22740,0.02351
5917.29868,0.02207
5915.36997,0.02116
5913.44125,0.02220
5911.51254,0.02474
5909.58382,0.02600
5907.65511,0.02524
5905.72639,0.02392
5903.79768,0.02227
5901.86896,0.02113
5899.94024,0.02114
5898.01153,0.02094
5896.08281,0.02050
5894.15410,0.02094
5892.22538,0.02131
5890.29667,0.02088
5888.36795,0.02058
5886.43924,0.02099
5884.51052,0.02187
5882.58181,0.02288
5880.65309,0.02342
5878.72438,0.02359
5876.79566,0.02421
5874.86695,0.02504
5872.93823,0.02455
5871.00951,0.02311
5869.08080,0.02226
5867.15208,0.02200
5865.22337,0.02152
5863.29465,0.02131
5861.36594,0.02202
5859.43722,0.02293
5857.50851,0.02340
5855.57979,0.02362
5853.65108,0.02356
5851.72236,0.02291
5849.79365,0.02205
5847.86493,0.02209
5845.93622,0.02242
5844.00750,0.02223
5842.07878,0.02227
5840.15007,0.02214
5838.22135,0.02147
5836.29264,0.02158
5834.36392,0.02248
5832.43521,0.02330
5830.50649,0.02398
5828.57778,0.02393
5826.64906,0.02345
5824.72035,0.02377
5822.79163,0.02407
5820.86292,0.02334
5818.93420,0.02293
5817.00548,0.02396
5815.07677,0.02455
5813.14805,0.02287
5811.21934,0.02114
5809.29062,0.02212
5807.36191,0.02417
5805.43319,0.02454
5803.50448,0.02362
5801.57576,0.02285
5799.64705,0.02230
5797.71833,0.02226
5795.78962,0.02328
5793.86090,0.02456
5791.93219,0.02437
5790.00347,0.02346
5788.07475,0.02372
5786.14604,0.02474
5784.21732,0.02491
5782.28861,0.02455
5780.35989,0.02441
5778.43118,0.02422
5776.50246,0.02413
5774.57375,0.02393
5772.64503,0.02389
5770.71632,0.02497
5768.78760,0.02550
5766.85889,0.02409
5764.93017,0.02263
5763.00146,0.02260
5761.07274,0.02367
5759.14402,0.02503
5757.21531,0.02508
5755.28659,0.02298
5753.35788,0.02087
5751.42916,0.02054
5749.50045,0.02109
5747.57173,0.02185
5745.64302,0.02239
5743.71430,0.02206
5741.78559,0.02171
5739.85687,0.02200
5737.92816,0.02228
5735.99944,0.02231
5734.07072,0.02269
5732.14201,0.02335
5730.21329,0.02315
5728.28458,0.02258
5726.35586,0.02317
5724.42715,0.02453
5722.49843,0.02506
5720.56972,0.02438
5718.64100,0.02366
5716.71229,0.02432
5714.78357,0.02603
5712.85486,0.02653
5710.92614,0.02499
5708.99743,0.02317
5707.06871,0.02239
5705.13999,0.02260
5703.21128,0.02296
5701.28256,0.02267
5699.35385,0.02235
5697.42513,0.02278
5695.49642,0.02292
5693.56770,0.02244
5691.63899,0.02283
5689.71027,0.02341
5687.78156,0.02303
5685.85284,0.02280
5683.92413,0.02257
5681.99541,0.02209
5680.06670,0.02193
5678.13798,0.02170
5676.20926,0.02221
5674.28055,0.02385
5672.35183,0.02433
5670.42312,0.02309
5668.49440,0.02225
5666.56569,0.02228
5664.63697,0.02232
5662.70826,0.02230
5660.77954,0.02276
5658.85083,0.02417
5656.92211,0.02522
5654.99340,0.02434
5653.06468,0.02261
5651.13597,0.02231
5649.20725,0.02335
5647.27853,0.02363
5645.34982,0.02335
5643.42110,0.02414
5641.49239,0.02512
5639.56367,0.02485
5637.63496,0.02378
5635.70624,0.02341
5633.77753,0.02406
5631.84881,0.02485
5629.92010,0.02502
5627.99138,0.02415
5626.06267,0.02296
5624.13395,0.02256
5622.20523,0.02275
5620.27652,0.02344
5618.34780,0.02516
5616.41909,0.02691
5614.49037,0.02703
5612.56166,0.02612
5610.63294,0.02518
5608.70423,0.02405
5606.77551,0.02358
5604.84680,0.02424
5602.91808,0.02432
5600.98937,0.02363
5599.06065,0.02356
5597.13194,0.02397
5595.20322,0.02364
5593.27450,0.02243
5591.34579,0.02112
5589.41707,0.02065
5587.48836,0.02140
5585.55964,0.02236
5583.63093,0.02264
5581.70221,0.02253
5579.77350,0.02240
5577.84478,0.02294
5575.91607,0.02385
5573.98735,0.02425
5572.05864,0.02453
5570.12992,0.02483
5568.20121,0.02505
5566.27249,0.02521
5564.34377,0.02488
5562.41506,0.02452
5560.48634,0.02451
5558.55763,0.02427
5556.62891,0.02372
5554.70020,0.02399
5552.77148,0.02508
5550.84277,0.02507
5548.91405,0.02372
5546.98534,0.02267
5545.05662,0.02207
5543.12791,0.02172
5541.19919,0.02232
5539.27047,0.02371
5537.34176,0.02466
5535.41304,0.02427
5533.48433,0.02314
5531.55561,0.02238
5529.62690,0.02210
5527.69818,0.02227
5525.76947,0.02250
5523.84075,0.02218
5521.91204,0.02216
5519.98332,0.02333
5518.05461,0.02439
5516.12589,0.02435
5514.19718,0.02423
5512.26846,0.02434
5510.33974,0.02426
5508.41103,0.02460
5506.48231,0.02553
5504.55360,0.02628
5502.62488,0.02626
5500.69617,0.02515
5498.76745,0.02353
5496.83874,0.02286
5494.91002,0.02316
5492.98131,0.02378
5491.05259,0.02480
5489.12388,0.02550
5487.19516,0.02458
5485.26645,0.02286
5483.33773,0.02226
5481.40901,0.02254
5479.48030,0.02249
5477.55158,0.02291
5475.62287,0.02445
5473.69415,0.02565
5471.76544,0.02524
5469.83672,0.02353
5467.90801,0.02207
5465.97929,0.02248
5464.05058,0.02382
5462.12186,0.02437
5460.19315,0.02395
5458.26443,0.02325
5456.33572,0.02247
5454.40700,0.02184
5452.47828,0.02150
5450.54957,0.02146
5448.62085,0.02191
5446.69214,0.02299
5444.76342,0.02350
5442.83471,0.02220
5440.90599,0.02056
5438.97728,0.02105
5437.04856,0.02324
5435.11985,0.02502
5433.19113,0.02463
5431.26242,0.02302
5429.33370,0.02269
5427.40498,0.02374
5425.47627,0.02364
5423.54755,0.02281
5421.61884,0.02302
5419.69012,0.02403
5417.76141,0.02503
5415.83269,0.02573
5413.90398,0.02558
5411.97526,0.02467
5410.04655,0.02376
5408.11783,0.02325
5406.18912,0.02337
5404.26040,0.02367
5402.33169,0.02360
5400.40297,0.02326
5398.47425,0.02246
5396.54554,0.02157
5394.61682,0.02208
5392.68811,0.02384
5390.75939,0.02435
5388.83068,0.02345
5386.90196,0.02288
5384.97325,0.02306
5383.04453,0.02274
5381.11582,0.02166
5379.18710,0.02058
5377.25839,0.02052
5375.32967,0.02209
5373.40096,0.02391
5371.47224,0.02470
5369.54352,0.02453
5367.61481,0.02364
5365.68609,0.02255
5363.75738,0.02231
5361.82866,0.02337
5359.89995,0.02436
5357.97123,0.02478
5356.04252,0.02491
5354.11380,0.02435
5352.18509,0.02370
5350.25637,0.02361
5348.32766,0.02359
5346.39894,0.02433
5344.47022,0.02554
5342.54151,0.02510
5340.61279,0.02351
5338.68408,0.02250
5336.75536,0.02295
5334.82665,0.02400
5332.89793,0.02430
5330.96922,0.02418
5329.04050,0.02440
5327.11179,0.02460
5325.18307,0.02442
5323.25436,0.02401
5321.32564,0.02357
5319.39693,0.02378
5317.46821,0.02407
5315.53949,0.02347
5313.61078,0.02307
5311.68206,0.02370
5309.75335,0.02375
5307.82463,0.02291
5305.89592,0.02274
5303.96720,0.02362
5302.03849,0.02483
5300.10977,0.02495
5298.18106,0.02360
5296.25234,0.02262
5294.32363,0.02250
5292.39491,0.02277
5290.46620,0.02355
5288.53748,0.02449
5286.60876,0.02470
5284.68005,0.02435
5282.75133,0.02410
5280.82262,0.02370
5278.89390,0.02290
5276.96519,0.02258
5275.03647,0.02280
5273.10776,0.02300
5271.17904,0.02329
5269.25033,0.02340
5267.32161,0.02279
5265.39290,0.02245
5263.46418,0.02331
5261.53547,0.02420
5259.60675,0.02421
5257.67803,0.02403
5255.74932,0.02402
5253.82060,0.02401
5251.89189,0.02437
5249.96317,0.02519
5248.03446,0.02557
5246.10574,0.02513
5244.17703,0.02448
5242.24831,0.02406
5240.31960,0.02382
5238.39088,0.02335
5236.46217,0.02276
5234.53345,0.02259
5232.60473,0.02266
5230.67602,0.02329
5228.74730,0.02415
5226.81859,0.02442
5224.88987,0.02471
5222.96116,0.02505
5221.03244,0.02462
5219.10373,0.02374
5217.17501,0.02276
5215.24630,0.02223
5213.31758,0.02235
5211.38887,0.02243
5209.46015,0.02195
5207.53144,0.02145
5205.60272,0.02231
5203.67400,0.02395
5201.74529,0.02424
5199.81657,0.02338
5197.88786,0.02305
5195.95914,0.02324
5194.03043,0.02273
5192.10171,0.02213
5190.17300,0.02255
5188.24428,0.02362
5186.31557,0.02388
5184.38685,0.02313
5182.45814,0.02327
5180.52942,0.02445
5178.60071,0.02466
5176.67199,0.02378
5174.74327,0.02350
5172.81456,0.02389
5170.88584,0.02395
5168.95713,0.02338
5167.02841,0.02246
5165.09970,0.02177
5163.17098,0.02199
5161.24227,0.02316
5159.31355,0.02419
5157.38484,0.02426
5155.45612,0.02357
5153.52741,0.02241
5151.59869,0.02152
5149.66997,0.02186
5147.74126,0.02293
5145.81254,0.02370
5143.88383,0.02380
5141.95511,0.02393
5140.02640,0.02489
5138.09768,0.02567
5136.16897,0.02489
5134.24025,0.02320
5132.31154,0.02226
5130.38282,0.02267
5128.45411,0.02387
5126.52539,0.02507
5124.59668,0.02540
5122.66796,0.02476
5120.73924,0.02408
5118.81053,0.02396
5116.88181,0.02389
5114.95310,0.02361
5113.02438,0.02320
5111.09567,0.02280
5109.16695,0.02250
5107.23824,0.02241
5105.30952,0.02275
5103.38081,0.02341
5101.45209,0.02391
5099.52338,0.02403
5097.59466,0.02414
5095.66595,0.02454
5093.73723,0.02459
5091.80851,0.02423
5089.87980,0.02452
5087.95108,0.02519
5086.02237,0.02504
5084.09365,0.02438
5082.16494,0.02387
5080.23622,0.02337
5078.30751,0.02300
5076.37879,0.02304
5074.45008,0.02315
5072.52136,0.02309
5070.59265,0.02326
5068.66393,0.02358
5066.73522,0.02359
5064.80650,0.02336
5062.87778,0.02279
5060.94907,0.02220
5059.02035,0.02227
5057.09164,0.02253
5055.16292,0.02259
5053.23421,0.02299
5051.30549,0.02397
5049.37678,0.02498
5047.44806,0.02477
5045.51935,0.02354
5043.59063,0.02299
5041.66192,0.02337
5039.73320,0.02395
5037.80448,0.02474
5035.87577,0.02525
5033.94705,0.02500
5032.01834,0.02470
5030.08962,0.02464
5028.16091,0.02409
5026.23219,0.02321
5024.30348,0.02283
5022.37476,0.02271
5020.44605,0.02231
5018.51733,0.02226
5016.58862,0.02299
5014.65990,0.02366
5012.73119,0.02370
5010.80247,0.02355
5008.87375,0.02343
5006.94504,0.02316
5005.01632,0.02288
5003.08761,0.02296
5001.15889,0.02356
4999.23018,0.02429
4997.30146,0.02444
4995.37275,0.02412
4993.44403,0.02414
4991.51532,0.02459
4989.58660,0.02486
4987.65789,0.02440
4985.72917,0.02317
4983.80046,0.02222
4981.87174,0.02226
4979.94302,0.02280
4978.01431,0.02364
4976.08559,0.02454
4974.15688,0.02455
4972.22816,0.02382
4970.29945,0.02363
4968.37073,0.02405
4966.44202,0.02414
4964.51330,0.02389
4962.58459,0.02359
4960.65587,0.02368
4958.72716,0.02466
4956.79844,0.02549
4954.86972,0.02505
4952.94101,0.02427
4951.01229,0.02411
4949.08358,0.02411
4947.15486,0.02396
4945.22615,0.02414
4943.29743,0.02478
4941.36872,0.02539
4939.44000,0.02534
4937.51129,0.02474
4935.58257,0.02444
4933.65386,0.02462
4931.72514,0.02468
4929.79643,0.02440
4927.86771,0.02413
4925.93899,0.02388
4924.01028,0.02353
4922.08156,0.02352
4920.15285,0.02391
4918.22413,0.02394
4916.29542,0.02331
4914.36670,0.02282
4912.43799,0.02263
4910.50927,0.02232
4908.58056,0.02232
4906.65184,0.02284
4904.72313,0.02340
4902.79441,0.02381
4900.86570,0.02381
4898.93698,0.02353
4897.00826,0.02341
4895.07955,0.02325
4893.15083,0.02280
4891.22212,0.02230
4889.29340,0.02234
4887.36469,0.02320
4885.43597,0.02408
4883.50726,0.02438
4881.57854,0.02447
4879.64983,0.02446
4877.72111,0.02429
4875.79240,0.02394
4873.86368,0.02352
4871.93497,0.02333
4870.00625,0.02333
4868.07753,0.02365
4866.14882,0.02445
4864.22010,0.02504
4862.29139,0.02508
4860.36267,0.02512
4858.43396,0.02524
4856.50524,0.02509
4854.57653,0.02433
4852.64781,0.02323
4850.71910,0.02285
4848.79038,0.02349
4846.86167,0.02414
4844.93295,0.02433
4843.00423,0.02429
4841.07552,0.02402
4839.14680,0.02371
4837.21809,0.02348
4835.28937,0.02309
4833.36066,0.02267
4831.43194,0.02261
4829.50323,0.02316
4827.57451,0.02398
4825.64580,0.02440
4823.71708,0.02437
4821.78837,0.02428
4819.85965,0.02405
4817.93094,0.02331
4816.00222,0.02246
4814.07350,0.02216
4812.14479,0.02237
4810.21607,0.02272
4808.28736,0.02308
4806.35864,0.02357
4804.42993,0.02402
4802.50121,0.02413
4800.57250,0.02387
4798.64378,0.02354
4796.71507,0.02365
4794.78635,0.02404
4792.85764,0.02419
4790.92892,0.02391
4789.00021,0.02347
4787.07149,0.02336
4785.14277,0.02330
4783.21406,0.02298
4781.28534,0.02296
4779.35663,0.02310
4777.42791,0.02290
4775.49920,0.02285
4773.57048,0.02327
4771.64177,0.02392
4769.71305,0.02441
4767.78434,0.02440
4765.85562,0.02400
4763.92691,0.02346
4761.99819,0.02301
4760.06948,0.02291
4758.14076,0.02316
4756.21204,0.02357
4754.28333,0.02379
4752.35461,0.02369
4750.42590,0.02349
4748.49718,0.02355
4746.56847,0.02372
4744.63975,0.02342
4742.71104,0.02301
4740.78232,0.02308
4738.85361,0.02360
4736.92489,0.02424
4734.99618,0.02425
4733.06746,0.02374
4731.13874,0.02347
4729.21003,0.02330
4727.28131,0.02311
4725.35260,0.02350
4723.42388,0.02453
4721.49517,0.02515
4719.56645,0.02471
4717.63774,0.02419
4715.70902,0.02432
4713.78031,0.02429
4711.85159,0.02364
4709.92288,0.02317
4707.99416,0.02327
4706.06545,0.02342
4704.13673,0.02326
4702.20801,0.02324
4700.27930,0.02347
4698.35058,0.02357
4696.42187,0.02371
4694.49315,0.02408
4692.56444,0.02444
4690.63572,0.02455
4688.70701,0.02420
4686.77829,0.02374
4684.84958,0.02393
4682.92086,0.02478
4680.99215,0.02525
4679.06343,0.02506
4677.13472,0.02477
4675.20600,0.02464
4673.27728,0.02474
4671.34857,0.02484
4669.41985,0.02461
4667.49114,0.02426
4665.56242,0.02405
4663.63371,0.02402
4661.70499,0.02390
4659.77628,0.02384
4657.84756,0.02413
4655.91885,0.02414
4653.99013,0.02353
4652.06142,0.02288
4650.13270,0.02267
4648.20398,0.02307
4646.27527,0.02347
4644.34655,0.02329
4642.41784,0.02328
4640.48912,0.02401
4638.56041,0.02481
4636.63169,0.02496
4634.70298,0.02464
4632.77426,0.02446
4630.84555,0.02423
4628.91683,0.02356
4626.98812,0.02309
4625.05940,0.02330
4623.13069,0.02350
4621.20197,0.02343
4619.27325,0.02352
4617.34454,0.02362
4615.41582,0.02369
4613.48711,0.02397
4611.55839,0.02405
4609.62968,0.02404
4607.70096,0.02461
4605.77225,0.02520
4603.84353,0.02479
4601.91482,0.02386
4599.98610,0.02354
4598.05739,0.02387
4596.12867,0.02422
4594.19996,0.02411
4592.27124,0.02375
4590.34252,0.02351
4588.41381,0.02325
4586.48509,0.02339
4584.55638,0.02422
4582.62766,0.02459
4580.69895,0.02407
4578.77023,0.02374
4576.84152,0.02417
4574.91280,0.02472
4572.98409,0.02484
4571.05537,0.02463
4569.12666,0.02424
4567.19794,0.02381
4565.26923,0.02361
4563.34051,0.02368
4561.41179,0.02383
4559.48308,0.02372
4557.55436,0.02334
4555.62565,0.02314
4553.69693,0.02329
4551.76822,0.02360
4549.83950,0.02405
4547.91079,0.02460
4545.98207,0.02488
4544.05336,0.02452
4542.12464,0.02378
4540.19593,0.02311
4538.26721,0.02292
4536.33849,0.02330
4534.40978,0.02364
4532.48106,0.02360
4530.55235,0.02344
4528.62363,0.02319
4526.69492,0.02324
4524.76620,0.02379
4522.83749,0.02396
4520.90877,0.02363
4518.98006,0.02369
4517.05134,0.02404
4515.12263,0.02404
4513.19391,0.02379
4511.26520,0.02369
4509.33648,0.02380
4507.40776,0.02374
4505.47905,0.02350
4503.55033,0.02368
4501.62162,0.02424
4499.69290,0.02456
4497.76419,0.02463
4495.83547,0.02459
4493.90676,0.02428
4491.97804,0.02388
4490.04933,0.02377
4488.12061,0.02406
4486.19190,0.02446
4484.26318,0.02442
4482.33447,0.02401
4480.40575,0.02372
4478.47703,0.02348
4476.54832,0.02330
4474.61960,0.02364
4472.69089,0.02416
4470.76217,0.02428
4468.83346,0.02432
4466.90474,0.02433
4464.97603,0.02390
4463.04731,0.02327
4461.11860,0.02299
4459.18988,0.02290
4457.26117,0.02287
4455.33245,0.02320
4453.40373,0.02358
4451.47502,0.02358
4449.54630,0.02345
4447.61759,0.02340
4445.68887,0.02346
4443.76016,0.02354
4441.83144,0.02340
4439.90273,0.02331
4437.97401,0.02361
4436.04530,0.02398
4434.11658,0.02416
4432.18787,0.02413
4430.25915,0.02377
4428.33044,0.02371
4426.40172,0.02426
4424.47300,0.02442
4422.54429,0.02383
4420.61557,0.02331
4418.68686,0.02337
4416.75814,0.02371
4414.82943,0.02387
4412.90071,0.02384
4410.97200,0.02382
4409.04328,0.02382
4407.11457,0.02364
4405.18585,0.02337
4403.25714,0.02331
4401.32842,0.02337
4399.39971,0.02333
4397.47099,0.02336
4395.54227,0.02347
4393.61356,0.02343
4391.68484,0.02330
4389.75613,0.02319
4387.82741,0.02305
4385.89870,0.02313
4383.96998,0.02368
4382.04127,0.02424
4380.11255,0.02425
4378.18384,0.02399
4376.25512,0.02370
4374.32641,0.02348
4372.39769,0.02365
4370.46898,0.02419
4368.54026,0.02444
4366.61154,0.02404
4364.68283,0.02362
4362.75411,0.02362
4360.82540,0.02376
4358.89668,0.02376
4356.96797,0.02350
4355.03925,0.02343
4353.11054,0.02369
4351.18182,0.02369
4349.25311,0.02353
4347.32439,0.02353
4345.39568,0.02337
4343.46696,0.02325
4341.53824,0.02358
4339.60953,0.02397
4337.68081,0.02413
4335.75210,0.02427
4333.82338,0.02418
4331.89467,0.02374
4329.96595,0.02354
4328.03724,0.02381
4326.10852,0.02391
4324.17981,0.02364
4322.25109,0.02362
4320.32238,0.02385
4318.39366,0.02378
4316.46495,0.02351
4314.53623,0.02337
4312.60751,0.02314
4310.67880,0.02293
4308.75008,0.02320
4306.82137,0.02360
4304.89265,0.02359
4302.96394,0.02345
4301.03522,0.02354
4299.10651,0.02366
4297.17779,0.02372
4295.24908,0.02384
4293.32036,0.02388
4291.39165,0.02374
4289.46293,0.02354
4287.53422,0.02333
4285.60550,0.02329
4283.67678,0.02347
4281.74807,0.02375
4279.81935,0.02405
4277.89064,0.02412
4275.96192,0.02392
4274.03321,0.02381
4272.10449,0.02397
4270.17578,0.02439
4268.24706,0.02476
4266.31835,0.02465
4264.38963,0.02431
4262.46092,0.02420
4260.53220,0.02410
4258.60348,0.02381
4256.67477,0.02372
4254.74605,0.02412
4252.81734,0.02456
4250.88862,0.02447
4248.95991,0.02405
4247.03119,0.02397
4245.10248,0.02422
4243.17376,0.02445
4241.24505,0.02481
4239.31633,0.02534
4237.38762,0.02568
4235.45890,0.02567
4233.53019,0.02536
4231.60147,0.02474
4229.67275,0.02408
4227.74404,0.02362
4225.81532,0.02339
4223.88661,0.02347
4221.95789,0.02368
4220.02918,0.02374
4218.10046,0.02367
4216.17175,0.02357
4214.24303,0.02363
4212.31432,0.02380
4210.38560,0.02372
4208.45689,0.02360
4206.52817,0.02394
4204.59946,0.02425
4202.67074,0.02403
4200.74202,0.02375
4198.81331,0.02385
4196.88459,0.02414
4194.95588,0.02434
4193.02716,0.02442
4191.09845,0.02440
4189.16973,0.02429
4187.24102,0.02423
4185.31230,0.02435
4183.38359,0.02448
4181.45487,0.02448
4179.52616,0.02432
4177.59744,0.02409
4175.66873,0.02412
4173.74001,0.02428
4171.81129,0.02425
4169.88258,0.02412
4167.95386,0.02405
4166.02515,0.02414
4164.09643,0.02422
4162.16772,0.02402
4160.23900,0.02388
4158.31029,0.02406
4156.38157,0.02421
4154.45286,0.02410
4152.52414,0.02401
4150.59543,0.02407
4148.66671,0.02406
4146.73799,0.02402
4144.80928,0.02409
4142.88056,0.02401
4140.95185,0.02386
4139.02313,0.02400
4137.09442,0.02437
4135.16570,0.02455
4133.23699,0.02454
4131.30827,0.02475
4129.37956,0.02498
4127.45084,0.02492
4125.52213,0.02456
4123.59341,0.02405
4121.66470,0.02365
4119.73598,0.02366
4117.80726,0.02404
4115.87855,0.02422
4113.94983,0.02400
4112.02112,0.02378
4110.09240,0.02373
4108.16369,0.02359
4106.23497,0.02335
4104.30626,0.02332
4102.37754,0.02322
4100.44883,0.02301
4098.52011,0.02332
4096.59140,0.02404
4094.66268,0.02428
4092.73397,0.02397
4090.80525,0.02380
4088.87653,0.02399
4086.94782,0.02416
4085.01910,0.02407
4083.09039,0.02383
4081.16167,0.02361
4079.23296,0.02339
4077.30424,0.02334
4075.37553,0.02367
4073.44681,0.02421
4071.51810,0.02450
4069.58938,0.02424
4067.66067,0.02380
4065.73195,0.02380
4063.80323,0.02408
4061.87452,0.02420
4059.94580,0.02423
4058.01709,0.02417
4056.08837,0.02416
4054.15966,0.02457
4052.23094,0.02496
4050.30223,0.02467
4048.37351,0.02416
4046.44480,0.02405
4044.51608,0.02422
4042.58737,0.02459
4040.65865,0.02490
4038.72994,0.02482
4036.80122,0.02457
4034.87250,0.02444
4032.94379,0.02451
4031.01507,0.02474
4029.08636,0.02477
4027.15764,0.02455
4025.22893,0.02451
4023.30021,0.02457
4021.37150,0.02442
4019.44278,0.02421
4017.51407,0.02425
4015.58535,0.02450
4013.65664,0.02471
4011.72792,0.02483
4009.79921,0.02479
4007.87049,0.02441
4005.94177,0.02404
4004.01306,0.02418
4002.08434,0.02448
4000.15563,0.02447
3998.22691,0.02438
3996.29820,0.02452
3994.36948,0.02464
3992.44077,0.02445
3990.51205,0.02413
3988.58334,0.02395
3986.65462,0.02410
3984.72591,0.02440
3982.79719,0.02442
3980.86848,0.02418
3978.93976,0.02385
3977.01104,0.02346
3975.08233,0.02325
3973.15361,0.02336
3971.22490,0.02358
3969.29618,0.02382
3967.36747,0.02414
3965.43875,0.02436
3963.51004,0.02415
3961.58132,0.02358
3959.65261,0.02344
3957.72389,0.02399
3955.79518,0.02448
3953.86646,0.02449
3951.93774,0.02428
3950.00903,0.02433
3948.08031,0.02479
3946.15160,0.02521
3944.22288,0.02520
3942.29417,0.02498
3940.36545,0.02499
3938.43674,0.02504
3936.50802,0.02489
3934.57931,0.02472
3932.65059,0.02459
3930.72188,0.02435
3928.79316,0.02405
3926.86445,0.02365
3924.93573,0.02318
3923.00701,0.02314
3921.07830,0.02343
3919.14958,0.02362
3917.22087,0.02376
3915.29215,0.02402
3913.36344,0.02430
3911.43472,0.02447
3909.50601,0.02444
3907.57729,0.02420
3905.64858,0.02376
3903.71986,0.02341
3901.79115,0.02364
3899.86243,0.02418
3897.93372,0.02433
3896.00500,0.02421
3894.07628,0.02419
3892.14757,0.02393
3890.21885,0.02343
3888.29014,0.02349
3886.36142,0.02386
3884.43271,0.02417
3882.50399,0.02442
3880.57528,0.02440
3878.64656,0.02448
3876.71785,0.02472
3874.78913,0.02462
3872.86042,0.02454
3870.93170,0.02471
3869.00298,0.02454
3867.07427,0.02433
3865.14555,0.02422
3863.21684,0.02418
3861.28812,0.02447
3859.35941,0.02480
3857.43069,0.02489
3855.50198,0.02457
3853.57326,0.02358
3851.64455,0.02349
3849.71583,0.02422
3847.78712,0.02467
3845.85840,0.02480
3843.92969,0.02454
3842.00097,0.02429
3840.07225,0.02446
3838.14354,0.02455
3836.21482,0.02463
3834.28611,0.02466
3832.35739,0.02437
3830.42868,0.02430
3828.49996,0.02468
3826.57125,0.02520
3824.64253,0.02571
3822.71382,0.02589
3820.78510,0.02504
3818.85639,0.02381
3816.92767,0.02298
3814.99896,0.02272
3813.07024,0.02317
3811.14152,0.02374
3809.21281,0.02415
3807.28409,0.02429
3805.35538,0.02433
3803.42666,0.02405
3801.49795,0.02324
3799.56923,0.02324
3797.64052,0.02389
3795.71180,0.02423
3793.78309,0.02425
3791.85437,0.02420
3789.92566,0.02411
3787.99694,0.02397
3786.06823,0.02381
3784.13951,0.02384
3782.21079,0.02402
3780.28208,0.02409
3778.35336,0.02439
3776.42465,0.02490
3774.49593,0.02518
3772.56722,0.02530
3770.63850,0.02531
3768.70979,0.02520
3766.78107,0.02496
3764.85236,0.02457
3762.92364,0.02450
3760.99493,0.02477
3759.06621,0.02502
3757.13749,0.02512
3755.20878,0.02517
3753.28006,0.02509
3751.35135,0.02461
3749.42263,0.02466
3747.49392,0.02519
3745.56520,0.02481
3743.63649,0.02432
3741.70777,0.02504
3739.77906,0.02578
3737.85034,0.02569
3735.92163,0.02491
3733.99291,0.02486
3732.06420,0.02517
3730.13548,0.02495
3728.20676,0.02439
3726.27805,0.02386
3724.34933,0.02381
3722.42062,0.02383
3720.49190,0.02372
3718.56319,0.02388
3716.63447,0.02420
3714.70576,0.02455
3712.77704,0.02489
3710.84833,0.02518
3708.91961,0.02523
3706.99090,0.02510
3705.06218,0.02501
3703.13347,0.02480
3701.20475,0.02434
3699.27603,0.02410
3697.34732,0.02408
3695.41860,0.02402
3693.48989,0.02394
3691.56117,0.02373
3689.63246,0.02343
3687.70374,0.02350
3685.77503,0.02368
3683.84631,0.02397
3681.91760,0.02427
3679.98888,0.02405
3678.06017,0.02319
3676.13145,0.02256
3674.20273,0.02354
3672.27402,0.02433
3670.34530,0.02380
3668.41659,0.02314
3666.48787,0.02313
3664.55916,0.02316
3662.63044,0.02303
3660.70173,0.02279
3658.77301,0.02259
3656.84430,0.02254
3654.91558,0.02286
3652.98687,0.02336
3651.05815,0.02350
3649.12944,0.02294
3647.20072,0.02254
3645.27200,0.02290
3643.34329,0.02350
3641.41457,0.02375
3639.48586,0.02354
3637.55714,0.02339
3635.62843,0.02329
3633.69971,0.02308
3631.77100,0.02296
3629.84228,0.02246
3627.91357,0.02163
3625.98485,0.02196
3624.05614,0.02255
3622.12742,0.02297
3620.19871,0.02323
3618.26999,0.02312
3616.34127,0.02298
3614.41256,0.02271
3612.48384,0.02230
3610.55513,0.02235
3608.62641,0.02261
3606.69770,0.02292
3604.76898,0.02333
3602.84027,0.02367
3600.91155,0.02367
3598.98284,0.02308
3597.05412,0.02227
3595.12541,0.02175
3593.19669,0.02162
3591.26798,0.02176
3589.33926,0.02188
3587.41054,0.02186
3585.48183,0.02214
3583.55311,0.02263
3581.62440,0.02280
3579.69568,0.02262
3577.76697,0.02260
3575.83825,0.02278
3573.90954,0.02264
3571.98082,0.02236
3570.05211,0.02239
3568.12339,0.02261
3566.19468,0.02268
3564.26596,0.02287
3562.33724,0.02321
3560.40853,0.02321
3558.47981,0.02272
3556.55110,0.02223
3554.62238,0.02221
3552.69367,0.02259
3550.76495,0.02295
3548.83624,0.02297
3546.90752,0.02260
3544.97881,0.02201
3543.05009,0.02162
3541.12138,0.02140
3539.19266,0.02136
3537.26395,0.02169
3535.33523,0.02222
3533.40651,0.02250
3531.47780,0.02247
3529.54908,0.02243
3527.62037,0.02255
3525.69165,0.02257
3523.76294,0.02244
3521.83422,0.02227
3519.90551,0.02196
3517.97679,0.02160
3516.04808,0.02152
3514.11936,0.02188
3512.19065,0.02216
3510.26193,0.02202
3508.33322,0.02192
3506.40450,0.02206
3504.47578,0.02213
3502.54707,0.02202
3500.61835,0.02200
3498.68964,0.02224
3496.76092,0.02242
3494.83221,0.02245
3492.90349,0.02274
3490.97478,0.02308
3489.04606,0.02289
3487.11735,0.02232
3485.18863,0.02183
3483.25992,0.02162
3481.33120,0.02148
3479.40248,0.02122
3477.47377,0.02108
3475.54505,0.02125
3473.61634,0.02151
3471.68762,0.02150
3469.75891,0.02132
3467.83019,0.02140
3465.90148,0.02187
3463.97276,0.02233
3462.04405,0.02226
3460.11533,0.02169
3458.18662,0.02136
3456.25790,0.02169
3454.32919,0.02224
3452.40047,0.02238
3450.47175,0.02212
3448.54304,0.02175
3446.61432,0.02162
3444.68561,0.02186
3442.75689,0.02210
3440.82818,0.02214
3438.89946,0.02211
3436.97075,0.02213
3435.04203,0.02222
3433.11332,0.02222
3431.18460,0.02191
3429.25589,0.02157
3427.32717,0.02165
3425.39846,0.02202
3423.46974,0.02216
3421.54102,0.02203
3419.61231,0.02197
3417.68359,0.02182
3415.75488,0.02138
3413.82616,0.02087
3411.89745,0.02054
3409.96873,0.02079
3408.04002,0.02147
3406.11130,0.02176
3404.18259,0.02163
3402.25387,0.02159
3400.32516,0.02167
3398.39644,0.02161
3396.46773,0.02152
3394.53901,0.02167
3392.61029,0.02191
3390.68158,0.02202
3388.75286,0.02206
3386.82415,0.02203
3384.89543,0.02206
3382.96672,0.02230
3381.03800,0.02261
3379.10929,0.02258
3377.18057,0.02214
3375.25186,0.02186
3373.32314,0.02202
3371.39443,0.02230
3369.46571,0.02248
3367.53699,0.02256
3365.60828,0.02247
3363.67956,0.02219
3361.75085,0.02184
3359.82213,0.02169
3357.89342,0.02165
3355.96470,0.02135
3354.03599,0.02104
3352.10727,0.02114
3350.17856,0.02156
3348.24984,0.02186
3346.32113,0.02179
3344.39241,0.02162
3342.46370,0.02175
3340.53498,0.02212
3338.60626,0.02228
3336.67755,0.02203
3334.74883,0.02163
3332.82012,0.02142
3330.89140,0.02139
3328.96269,0.02129
3327.03397,0.02112
3325.10526,0.02117
3323.17654,0.02144
3321.24783,0.02158
3319.31911,0.02151
3317.39040,0.02146
3315.46168,0.02160
3313.53297,0.02188
3311.60425,0.02190
3309.67553,0.02163
3307.74682,0.02148
3305.81810,0.02147
3303.88939,0.02149
3301.96067,0.02183
3300.03196,0.02239
3298.10324,0.02249
3296.17453,0.02194
3294.24581,0.02150
3292.31710,0.02152
3290.38838,0.02159
3288.45967,0.02179
3286.53095,0.02224
3284.60223,0.02232
3282.67352,0.02194
3280.74480,0.02181
3278.81609,0.02220
3276.88737,0.02256
3274.95866,0.02245
3273.02994,0.02214
3271.10123,0.02206
3269.17251,0.02212
3267.24380,0.02209
3265.31508,0.02206
3263.38637,0.02213
3261.45765,0.02214
3259.52894,0.02216
3257.60022,0.02224
3255.67150,0.02211
3253.74279,0.02178
3251.81407,0.02171
3249.88536,0.02195
3247.95664,0.02202
3246.02793,0.02177
3244.09921,0.02164
3242.17050,0.02186
3240.24178,0.02223
3238.31307,0.02254
3236.38435,0.02262
3234.45564,0.02240
3232.52692,0.02205
3230.59821,0.02186
3228.66949,0.02189
3226.74077,0.02207
3224.81206,0.02215
3222.88334,0.02193
3220.95463,0.02172
3219.02591,0.02173
3217.09720,0.02189
3215.16848,0.02223
3213.23977,0.02253
3211.31105,0.02258
3209.38234,0.02273
3207.45362,0.02298
3205.52491,0.02292
3203.59619,0.02253
3201.66748,0.02229
3199.73876,0.02237
3197.81004,0.02254
3195.88133,0.02248
3193.95261,0.02211
3192.02390,0.02180
3190.09518,0.02192
3188.16647,0.02233
3186.23775,0.02261
3184.30904,0.02259
3182.38032,0.02260
3180.45161,0.02299
3178.52289,0.02323
3176.59418,0.02271
3174.66546,0.02219
3172.73674,0.02256
3170.80803,0.02315
3168.87931,0.02300
3166.95060,0.02246
3165.02188,0.02230
3163.09317,0.02255
3161.16445,0.02274
3159.23574,0.02268
3157.30702,0.02264
3155.37831,0.02279
3153.44959,0.02297
3151.52088,0.02296
3149.59216,0.02276
3147.66345,0.02265
3145.73473,0.02283
3143.80601,0.02311
3141.87730,0.02314
3139.94858,0.02283
3138.01987,0.02241
3136.09115,0.02225
3134.16244,0.02249
3132.23372,0.02295
3130.30501,0.02317
3128.37629,0.02302
3126.44758,0.02277
3124.51886,0.02257
3122.59015,0.02247
3120.66143,0.02240
3118.73272,0.02222
3116.80400,0.02225
3114.87528,0.02262
3112.94657,0.02274
3111.01785,0.02253
3109.08914,0.02251
3107.16042,0.02282
3105.23171,0.02305
3103.30299,0.02281
3101.37428,0.02247
3099.44556,0.02258
3097.51685,0.02285
3095.58813,0.02281
3093.65942,0.02262
3091.73070,0.02243
3089.80198,0.02237
3087.87327,0.02256
3085.94455,0.02265
3084.01584,0.02247
3082.08712,0.02242
3080.15841,0.02257
3078.22969,0.02255
3076.30098,0.02228
3074.37226,0.02207
3072.44355,0.02213
3070.51483,0.02240
3068.58612,0.02262
3066.65740,0.02258
3064.72869,0.02244
3062.79997,0.02246
3060.87125,0.02253
3058.94254,0.02257
3057.01382,0.02255
3055.08511,0.02246
3053.15639,0.02250
3051.22768,0.02272
3049.29896,0.02285
3047.37025,0.02275
3045.44153,0.02254
3043.51282,0.02226
3041.58410,0.02202
3039.65539,0.02206
3037.72667,0.02224
3035.79796,0.02226
3033.86924,0.02226
3031.94052,0.02250
3030.01181,0.02275
3028.08309,0.02282
3026.15438,0.02281
3024.22566,0.02273
3022.29695,0.02254
3020.36823,0.02239
3018.43952,0.02239
3016.51080,0.02230
3014.58209,0.02198
3012.65337,0.02179
3010.72466,0.02192
3008.79594,0.02200
3006.86723,0.02188
3004.93851,0.02173
3003.00979,0.02169
3001.08108,0.02185
2999.15236,0.02202
2997.22365,0.02194
2995.29493,0.02181
2993.36622,0.02178
2991.43750,0.02170
2989.50879,0.02174
2987.58007,0.02194
2985.65136,0.02211
2983.72264,0.02211
2981.79393,0.02186
2979.86521,0.02159
2977.93649,0.02147
2976.00778,0.02152
2974.07906,0.02186
2972.15035,0.02221
2970.22163,0.02221
2968.29292,0.02203
2966.36420,0.02181
2964.43549,0.02158
2962.50677,0.02155
2960.57806,0.02165
2958.64934,0.02153
2956.72063,0.02124
2954.79191,0.02114
2952.86320,0.02124
2950.93448,0.02134
2949.00576,0.02147
2947.07705,0.02162
2945.14833,0.02166
2943.21962,0.02166
2941.29090,0.02180
2939.36219,0.02204
2937.43347,0.02205
2935.50476,0.02174
2933.57604,0.02159
2931.64733,0.02167
2929.71861,0.02167
2927.78990,0.02161
2925.86118,0.02161
2923.93247,0.02172
2922.00375,0.02181
2920.07503,0.02176
2918.14632,0.02169
2916.21760,0.02168
2914.28889,0.02179
2912.36017,0.02204
2910.43146,0.02212
2908.50274,0.02192
2906.57403,0.02173
2904.64531,0.02175
2902.71660,0.02188
2900.78788,0.02197
2898.85917,0.02199
2896.93045,0.02215
2895.00173,0.02248
2893.07302,0.02267
2891.14430,0.02263
2889.21559,0.02252
2887.28687,0.02233
2885.35816,0.02204
2883.42944,0.02185
2881.50073,0.02201
2879.57201,0.02226
2877.64330,0.02228
2875.71458,0.02226
2873.78587,0.02244
2871.85715,0.02261
2869.92844,0.02258
2867.99972,0.02246
2866.07100,0.02240
2864.14229,0.02244
2862.21357,0.02261
2860.28486,0.02275
2858.35614,0.02267
2856.42743,0.02246
2854.49871,0.02246
2852.57000,0.02268
2850.64128,0.02281
2848.71257,0.02269
2846.78385,0.02249
2844.85514,0.02242
2842.92642,0.02260
2840.99771,0.02292
2839.06899,0.02316
2837.14027,0.02316
2835.21156,0.02294
2833.28284,0.02275
2831.35413,0.02284
2829.42541,0.02298
2827.49670,0.02306
2825.56798,0.02331
2823.63927,0.02353
2821.71055,0.02351
2819.78184,0.02335
2817.85312,0.02307
2815.92441,0.02293
2813.99569,0.02309
2812.06698,0.02329
2810.13826,0.02331
2808.20954,0.02327
2806.28083,0.02330
2804.35211,0.02326
2802.42340,0.02301
2800.49468,0.02283
2798.56597,0.02298
2796.63725,0.02321
2794.70854,0.02323
2792.77982,0.02312
2790.85111,0.02308
2788.92239,0.02320
2786.99368,0.02330
2785.06496,0.02320
2783.13624,0.02301
2781.20753,0.02284
2779.27881,0.02273
2777.35010,0.02273
2775.42138,0.02273
2773.49267,0.02271
2771.56395,0.02279
2769.63524,0.02305
2767.70652,0.02330
2765.77781,0.02331
2763.84909,0.02318
2761.92038,0.02311
2759.99166,0.02307
2758.06295,0.02292
2756.13423,0.02280
2754.20551,0.02287
2752.27680,0.02298
2750.34808,0.02302
2748.41937,0.02313
2746.49065,0.02332
2744.56194,0.02348
2742.63322,0.02353
2740.70451,0.02347
2738.77579,0.02352
2736.84708,0.02369
2734.91836,0.02361
2732.98965,0.02332
2731.06093,0.02310
2729.13222,0.02293
2727.20350,0.02278
2725.27478,0.02280
2723.34607,0.02297
2721.41735,0.02319
2719.48864,0.02334
2717.55992,0.02328
2715.63121,0.02306
2713.70249,0.02287
2711.77378,0.02282
2709.84506,0.02292
2707.91635,0.02315
2705.98763,0.02330
2704.05892,0.02330
2702.13020,0.02336
2700.20149,0.02355
2698.27277,0.02362
2696.34405,0.02356
2694.41534,0.02350
2692.48662,0.02335
2690.55791,0.02306
2688.62919,0.02286
2686.70048,0.02291
2684.77176,0.02304
2682.84305,0.02309
2680.91433,0.02312
2678.98562,0.02319
2677.05690,0.02329
2675.12819,0.02343
2673.19947,0.02350
2671.27075,0.02341
2669.34204,0.02327
2667.41332,0.02318
2665.48461,0.02316
2663.55589,0.02316
2661.62718,0.02309
2659.69846,0.02298
2657.76975,0.02303
2655.84103,0.02326
2653.91232,0.02343
2651.98360,0.02338
2650.05489,0.02326
2648.12617,0.02325
2646.19746,0.02325
2644.26874,0.02319
2642.34002,0.02323
2640.41131,0.02330
2638.48259,0.02323
2636.55388,0.02317
2634.62516,0.02324
2632.69645,0.02333
2630.76773,0.02337
2628.83902,0.02330
2626.91030,0.02310
2624.98159,0.02298
2623.05287,0.02310
2621.12416,0.02320
2619.19544,0.02313
2617.26673,0.02310
2615.33801,0.02320
2613.40929,0.02320
2611.48058,0.02307
2609.55186,0.02297
2607.62315,0.02289
2605.69443,0.02268
2603.76572,0.02254
2601.83700,0.02269
2599.90829,0.02272
2597.97957,0.02247
2596.05086,0.02244
2594.12214,0.02277
2592.19343,0.02314
2590.26471,0.02333
2588.33599,0.02333
2586.40728,0.02329
2584.47856,0.02329
2582.54985,0.02322
2580.62113,0.02306
2578.69242,0.02296
2576.76370,0.02311
2574.83499,0.02322
2572.90627,0.02320
2570.97756,0.02325
2569.04884,0.02324
2567.12013,0.02301
2565.19141,0.02288
2563.26270,0.02298
2561.33398,0.02306
2559.40526,0.02301
2557.47655,0.02302
2555.54783,0.02312
2553.61912,0.02317
2551.69040,0.02321
2549.76169,0.02331
2547.83297,0.02333
2545.90426,0.02319
2543.97554,0.02315
2542.04683,0.02344
2540.11811,0.02376
2538.18940,0.02376
2536.26068,0.02353
2534.33197,0.02332
2532.40325,0.02327
2530.47453,0.02336
2528.54582,0.02350
2526.61710,0.02358
2524.68839,0.02344
2522.75967,0.02320
2520.83096,0.02301
2518.90224,0.02286
2516.97353,0.02288
2515.04481,0.02314
2513.11610,0.02340
2511.18738,0.02335
2509.25867,0.02310
2507.32995,0.02307
2505.40124,0.02324
2503.47252,0.02332
2501.54380,0.02318
2499.61509,0.02295
2497.68637,0.02286
2495.75766,0.02293
2493.82894,0.02304
2491.90023,0.02306
2489.97151,0.02302
2488.04280,0.02312
2486.11408,0.02332
2484.18537,0.02341
2482.25665,0.02344
2480.32794,0.02349
2478.39922,0.02347
2476.47050,0.02342
2474.54179,0.02339
2472.61307,0.02336
2470.68436,0.02333
2468.75564,0.02320
2466.82693,0.02309
2464.89821,0.02311
2462.96950,0.02316
2461.04078,0.02319
2459.11207,0.02318
2457.18335,0.02325
2455.25464,0.02345
2453.32592,0.02351
2451.39721,0.02346
2449.46849,0.02343
2447.53977,0.02339
2445.61106,0.02343
2443.68234,0.02346
2441.75363,0.02335
2439.82491,0.02321
2437.89620,0.02310
2435.96748,0.02300
2434.03877,0.02300
2432.11005,0.02312
2430.18134,0.02323
2428.25262,0.02322
2426.32391,0.02314
2424.39519,0.02304
2422.46648,0.02307
2420.53776,0.02335
2418.60904,0.02366
2416.68033,0.02361
2414.75161,0.02334
2412.82290,0.02329
2410.89418,0.02336
2408.96547,0.02329
2407.03675,0.02321
2405.10804,0.02332
2403.17932,0.02350
2401.25061,0.02356
2399.32189,0.02345
2397.39318,0.02334
2395.46446,0.02329
2393.53574,0.02317
2391.60703,0.02307
2389.67831,0.02320
2387.74960,0.02346
2385.82088,0.02349
2383.89217,0.02319
2381.96345,0.02298
2380.03474,0.02311
2378.10602,0.02344
2376.17731,0.02387
2374.24859,0.02440
2372.31988,0.02496
2370.39116,0.02527
2368.46245,0.02500
2366.53373,0.02463
2364.60501,0.02525
2362.67630,0.02580
2360.74758,0.02515
2358.81887,0.02503
2356.89015,0.02536
2354.96144,0.02447
2353.03272,0.02347
2351.10401,0.02339
2349.17529,0.02380
2347.24658,0.02423
2345.31786,0.02467
2343.38915,0.02547
2341.46043,0.02647
2339.53172,0.02672
2337.60300,0.02572
2335.67428,0.02388
2333.74557,0.02258
2331.81685,0.02279
2329.88814,0.02375
2327.95942,0.02414
2326.03071,0.02383
2324.10199,0.02311
2322.17328,0.02255
2320.24456,0.02290
2318.31585,0.02357
2316.38713,0.02365
2314.45842,0.02354
2312.52970,0.02372
2310.60099,0.02395
2308.67227,0.02401
2306.74355,0.02389
2304.81484,0.02359
2302.88612,0.02337
2300.95741,0.02353
2299.02869,0.02373
2297.09998,0.02354
2295.17126,0.02307
2293.24255,0.02273
2291.31383,0.02269
2289.38512,0.02291
2287.45640,0.02311
2285.52769,0.02306
2283.59897,0.02296
2281.67025,0.02303
2279.74154,0.02319
2277.81282,0.02328
2275.88411,0.02328
2273.95539,0.02337
2272.02668,0.02357
2270.09796,0.02355
2268.16925,0.02327
2266.24053,0.02303
2264.31182,0.02306
2262.38310,0.02316
2260.45439,0.02311
2258.52567,0.02308
2256.59696,0.02321
2254.66824,0.02334
2252.73952,0.02337
2250.81081,0.02330
2248.88209,0.02320
2246.95338,0.02320
2245.02466,0.02329
2243.09595,0.02334
2241.16723,0.02329
2239.23852,0.02322
2237.30980,0.02323
2235.38109,0.02322
2233.45237,0.02315
2231.52366,0.02316
2229.59494,0.02321
2227.66623,0.02316
2225.73751,0.02314
2223.80879,0.02327
2221.88008,0.02341
2219.95136,0.02335
2218.02265,0.02313
2216.09393,0.02302
2214.16522,0.02313
2212.23650,0.02327
2210.30779,0.02325
2208.37907,0.02324
2206.45036,0.02337
2204.52164,0.02344
2202.59293,0.02326
2200.66421,0.02302
2198.73549,0.02283
2196.80678,0.02264
2194.87806,0.02266
2192.94935,0.02288
2191.02063,0.02298
2189.09192,0.02301
2187.16320,0.02318
2185.23449,0.02327
2183.30577,0.02297
2181.37706,0.02256
2179.44834,0.02246
2177.51963,0.02264
2175.59091,0.02278
2173.66220,0.02277
2171.73348,0.02278
2169.80476,0.02289
2167.87605,0.02303
2165.94733,0.02309
2164.01862,0.02295
2162.08990,0.02283
2160.16119,0.02292
2158.23247,0.02301
2156.30376,0.02297
2154.37504,0.02297
2152.44633,0.02311
2150.51761,0.02323
2148.58890,0.02314
2146.66018,0.02295
2144.73147,0.02282
2142.80275,0.02280
2140.87403,0.02288
2138.94532,0.02311
2137.01660,0.02335
2135.08789,0.02339
2133.15917,0.02323
2131.23046,0.02308
2129.30174,0.02306
2127.37303,0.02304
2125.44431,0.02285
2123.51560,0.02265
2121.58688,0.02273
2119.65817,0.02294
2117.72945,0.02304
2115.80074,0.02313
2113.87202,0.02326
2111.94330,0.02322
2110.01459,0.02299
2108.08587,0.02270
2106.15716,0.02258
2104.22844,0.02275
2102.29973,0.02295
2100.37101,0.02295
2098.44230,0.02290
2096.51358,0.02287
2094.58487,0.02277
2092.65615,0.02266
2090.72744,0.02262
2088.79872,0.02266
2086.87000,0.02280
2084.94129,0.02296
2083.01257,0.02301
2081.08386,0.02292
2079.15514,0.02291
2077.22643,0.02301
2075.29771,0.02297
2073.36900,0.02290
2071.44028,0.02299
2069.51157,0.02305
2067.58285,0.02296
2065.65414,0.02297
2063.72542,0.02308
2061.79671,0.02314
2059.86799,0.02313
2057.93927,0.02297
2056.01056,0.02274
2054.08184,0.02269
2052.15313,0.02272
2050.22441,0.02258
2048.29570,0.02234
2046.36698,0.02221
2044.43827,0.02230
2042.50955,0.02250
2040.58084,0.02262
2038.65212,0.02265
2036.72341,0.02263
2034.79469,0.02256
2032.86598,0.02242
2030.93726,0.02234
2029.00854,0.02260
2027.07983,0.02304
2025.15111,0.02326
2023.22240,0.02324
2021.29368,0.02320
2019.36497,0.02313
2017.43625,0.02300
2015.50754,0.02283
2013.57882,0.02264
2011.65011,0.02250
2009.72139,0.02255
2007.79268,0.02266
2005.86396,0.02274
2003.93524,0.02287
2002.00653,0.02292
2000.07781,0.02269
1998.14910,0.02241
1996.22038,0.02242
1994.29167,0.02260
1992.36295,0.02263
1990.43424,0.02258
1988.50552,0.02265
1986.57681,0.02278
1984.64809,0.02288
1982.71938,0.02298
1980.79066,0.02306
1978.86195,0.02305
1976.93323,0.02296
1975.00451,0.02283
1973.07580,0.02267
1971.14708,0.02268
1969.21837,0.02289
1967.28965,0.02290
1965.36094,0.02267
1963.43222,0.02261
1961.50351,0.02280
1959.57479,0.02302
1957.64608,0.02303
1955.71736,0.02278
1953.78865,0.02255
1951.85993,0.02258
1949.93122,0.02272
1948.00250,0.02270
1946.07378,0.02257
1944.14507,0.02257
1942.21635,0.02262
1940.28764,0.02257
1938.35892,0.02255
1936.43021,0.02264
1934.50149,0.02274
1932.57278,0.02275
1930.64406,0.02271
1928.71535,0.02269
1926.78663,0.02272
1924.85792,0.02286
1922.92920,0.02302
1921.00049,0.02299
1919.07177,0.02284
1917.14305,0.02278
1915.21434,0.02284
1913.28562,0.02284
1911.35691,0.02273
1909.42819,0.02267
1907.49948,0.02270
1905.57076,0.02268
1903.64205,0.02265
1901.71333,0.02261
1899.78462,0.02258
1897.85590,0.02261
1895.92719,0.02256
1893.99847,0.02233
1892.06975,0.02222
1890.14104,0.02238
1888.21232,0.02254
1886.28361,0.02246
1884.35489,0.02225
1882.42618,0.02219
1880.49746,0.02228
1878.56875,0.02230
1876.64003,0.02232
1874.71132,0.02251
1872.78260,0.02279
1870.85389,0.02300
1868.92517,0.02287
1866.99646,0.02238
1865.06774,0.02208
1863.13902,0.02209
1861.21031,0.02230
1859.28159,0.02244
1857.35288,0.02239
1855.42416,0.02229
1853.49545,0.02228
1851.56673,0.02244
1849.63802,0.02278
1847.70930,0.02314
1845.78059,0.02316
1843.85187,0.02267
1841.92316,0.02219
1839.99444,0.02200
1838.06573,0.02194
1836.13701,0.02198
1834.20829,0.02211
1832.27958,0.02235
1830.35086,0.02257
1828.42215,0.02247
1826.49343,0.02232
1824.56472,0.02222
1822.63600,0.02210
1820.70729,0.02204
1818.77857,0.02204
1816.84986,0.02209
1814.92114,0.02223
1812.99243,0.02241
1811.06371,0.02240
1809.13499,0.02215
1807.20628,0.02196
1805.27756,0.02195
1803.34885,0.02206
1801.42013,0.02208
1799.49142,0.02185
1797.56270,0.02154
1795.63399,0.02131
1793.70527,0.02116
1791.77656,0.02111
1789.84784,0.02122
1787.91913,0.02135
1785.99041,0.02134
1784.06170,0.02117
1782.13298,0.02112
1780.20426,0.02122
1778.27555,0.02120
1776.34683,0.02113
1774.41812,0.02115
1772.48940,0.02105
1770.56069,0.02066
1768.63197,0.02045
1766.70326,0.02055
1764.77454,0.02074
1762.84583,0.02076
1760.91711,0.02042
1758.98840,0.02002
1757.05968,0.01954
1755.13097,0.01919
1753.20225,0.01924
1751.27353,0.01934
1749.34482,0.01930
1747.41610,0.01944
1745.48739,0.01961
1743.55867,0.01964
1741.62996,0.01969
1739.70124,0.02011
1737.77253,0.02078
1735.84381,0.02119
1733.91510,0.02115
1731.98638,0.02114
1730.05767,0.02140
1728.12895,0.02163
1726.20024,0.02183
1724.27152,0.02207
1722.34280,0.02234
1720.41409,0.02239
1718.48537,0.02198
1716.55666,0.02174
1714.62794,0.02208
1712.69923,0.02217
1710.77051,0.02225
1708.84180,0.02241
1706.91308,0.02242
1704.98437,0.02226
1703.05565,0.02229
1701.12694,0.02227
1699.19822,0.02177
1697.26950,0.02140
1695.34079,0.02136
1693.41207,0.02135
1691.48336,0.02133
1689.55464,0.02124
1687.62593,0.02120
1685.69721,0.02131
1683.76850,0.02131
1681.83978,0.02114
1679.91107,0.02105
1677.98235,0.02093
1676.05364,0.02059
1674.12492,0.02035
1672.19621,0.02067
1670.26749,0.02081
1668.33877,0.02008
1666.41006,0.01970
1664.48134,0.01981
1662.55263,0.01990
1660.62391,0.02002
1658.69520,0.02033
1656.76648,0.02062
1654.83777,0.02057
1652.90905,0.01967
1650.98034,0.01954
1649.05162,0.02034
1647.12291,0.02108
1645.19419,0.02079
1643.26548,0.02048
1641.33676,0.02048
1639.40804,0.02048
1637.47933,0.02029
1635.55061,0.02006
1633.62190,0.02020
1631.69318,0.02047
1629.76447,0.02077
1627.83575,0.02097
1625.90704,0.02092
1623.97832,0.02086
1622.04961,0.02102
1620.12089,0.02124
1618.19218,0.02118
1616.26346,0.02073
1614.33474,0.02059
1612.40603,0.02075
1610.47731,0.02084
1608.54860,0.02083
1606.61988,0.02079
1604.69117,0.02072
1602.76245,0.02062
1600.83374,0.02062
1598.90502,0.02076
1596.97631,0.02091
1595.04759,0.02090
1593.11888,0.02068
1591.19016,0.02039
1589.26145,0.02023
1587.33273,0.02023
1585.40401,0.02020
1583.47530,0.02015
1581.54658,0.02011
1579.61787,0.02012
1577.68915,0.02031
1575.76044,0.02031
1573.83172,0.02004
1571.90301,0.01999
1569.97429,0.02016
1568.04558,0.02024
1566.11686,0.02012
1564.18815,0.02002
1562.25943,0.02008
1560.33072,0.02027
1558.40200,0.02019
1556.47328,0.01983
1554.54457,0.01978
1552.61585,0.01987
1550.68714,0.01990
1548.75842,0.01992
1546.82971,0.02017
1544.90099,0.02064
1542.97228,0.02118
1541.04356,0.02108
1539.11485,0.01993
1537.18613,0.01980
1535.25742,0.02028
1533.32870,0.02068
1531.39999,0.02074
1529.47127,0.02075
1527.54255,0.02062
1525.61384,0.02027
1523.68512,0.01998
1521.75641,0.02008
1519.82769,0.02069
1517.89898,0.02103
1515.97026,0.02097
1514.04155,0.02102
1512.11283,0.02130
1510.18412,0.02162
1508.25540,0.02145
1506.32669,0.02017
1504.39797,0.02009
1502.46925,0.02047
1500.54054,0.02062
1498.61182,0.02052
1496.68311,0.02025
1494.75439,0.02018
1492.82568,0.02053
1490.89696,0.02092
1488.96825,0.02060
1487.03953,0.02010
1485.11082,0.02023
1483.18210,0.02053
1481.25339,0.02065
1479.32467,0.02057
1477.39596,0.02047
1475.46724,0.02038
1473.53852,0.02015
1471.60981,0.01997
1469.68109,0.02004
1467.75238,0.02000
1465.82366,0.01977
1463.89495,0.01981
1461.96623,0.02024
1460.03752,0.02080
1458.10880,0.02119
1456.18009,0.02050
1454.25137,0.01999
1452.32266,0.02016
1450.39394,0.02043
1448.46523,0.02037
1446.53651,0.02013
1444.60779,0.02020
1442.67908,0.02040
1440.75036,0.02051
1438.82165,0.02070
1436.89293,0.02085
1434.96422,0.02061
1433.03550,0.02037
1431.10679,0.02025
1429.17807,0.02025
1427.24936,0.02036
1425.32064,0.02029
1423.39193,0.02003
1421.46321,0.01996
1419.53449,0.01997
1417.60578,0.01974
1415.67706,0.01961
1413.74835,0.01974
1411.81963,0.01995
1409.89092,0.02008
1407.96220,0.02014
1406.03349,0.02009
1404.10477,0.01986
1402.17606,0.01974
1400.24734,0.01964
1398.31863,0.01944
1396.38991,0.01943
1394.46120,0.01962
1392.53248,0.01970
1390.60376,0.01975
1388.67505,0.01984
1386.74633,0.01978
1384.81762,0.01970
1382.88890,0.01983
1380.96019,0.01997
1379.03147,0.01988
1377.10276,0.01958
1375.17404,0.01921
1373.24533,0.01914
1371.31661,0.01941
1369.38790,0.01952
1367.45918,0.01942
1365.53047,0.01942
1363.60175,0.01956
1361.67303,0.01965
1359.74432,0.01966
1357.81560,0.01972
1355.88689,0.01973
1353.95817,0.01948
1352.02946,0.01920
1350.10074,0.01926
1348.17203,0.01950
1346.24331,0.01954
1344.31460,0.01941
1342.38588,0.01936
1340.45717,0.01946
1338.52845,0.01942
1336.59974,0.01918
1334.67102,0.01903
1332.74230,0.01901
1330.81359,0.01894
1328.88487,0.01877
1326.95616,0.01863
1325.02744,0.01867
1323.09873,0.01884
1321.17001,0.01892
1319.24130,0.01879
1317.31258,0.01866
1315.38387,0.01868
1313.45515,0.01872
1311.52644,0.01863
1309.59772,0.01850
1307.66900,0.01851
1305.74029,0.01871
1303.81157,0.01883
1301.88286,0.01868
1299.95414,0.01851
1298.02543,0.01859
1296.09671,0.01890
1294.16800,0.01922
1292.23928,0.01939
1290.31057,0.01940
1288.38185,0.01941
1286.45314,0.01954
1284.52442,0.01975
1282.59571,0.01990
1280.66699,0.02005
1278.73827,0.02030
1276.80956,0.02046
1274.88084,0.02051
1272.95213,0.02069
1271.02341,0.02083
1269.09470,0.02066
1267.16598,0.02052
1265.23727,0.02070
1263.30855,0.02096
1261.37984,0.02104
1259.45112,0.02105
1257.52241,0.02116
1255.59369,0.02138
1253.66498,0.02164
1251.73626,0.02181
1249.80754,0.02188
1247.87883,0.02194
1245.95011,0.02194
1244.02140,0.02186
1242.09268,0.02178
1240.16397,0.02169
1238.23525,0.02154
1236.30654,0.02134
1234.37782,0.02113
1232.44911,0.02095
1230.52039,0.02080
1228.59168,0.02077
1226.66296,0.02084
1224.73424,0.02080
1222.80553,0.02069
1220.87681,0.02069
1218.94810,0.02060
1217.01938,0.02028
1215.09067,0.02008
1213.16195,0.02019
1211.23324,0.02049
1209.30452,0.02074
1207.37581,0.02074
1205.44709,0.02056
1203.51838,0.02053
1201.58966,0.02053
1199.66095,0.02031
1197.73223,0.01996
1195.80351,0.01968
1193.87480,0.01970
1191.94608,0.01991
1190.01737,0.01988
1188.08865,0.01960
1186.15994,0.01944
1184.23122,0.01947
1182.30251,0.01958
1180.37379,0.01962
1178.44508,0.01948
1176.51636,0.01923
1174.58765,0.01915
1172.65893,0.01935
1170.73022,0.01954
1168.80150,0.01949
1166.87278,0.01945
1164.94407,0.01956
1163.01535,0.01954
1161.08664,0.01952
1159.15792,0.01970
1157.22921,0.01985
1155.30049,0.01981
1153.37178,0.01959
1151.44306,0.01918
1149.51435,0.01879
1147.58563,0.01884
1145.65692,0.01918
1143.72820,0.01941
1141.79949,0.01956
1139.87077,0.01957
1137.94205,0.01933
1136.01334,0.01910
1134.08462,0.01914
1132.15591,0.01943
1130.22719,0.01964
1128.29848,0.01948
1126.36976,0.01939
1124.44105,0.01963
1122.51233,0.01991
1120.58362,0.02017
1118.65490,0.02042
1116.72619,0.02042
1114.79747,0.02017
1112.86875,0.01992
1110.94004,0.01994
1109.01132,0.02013
1107.08261,0.02016
1105.15389,0.01996
1103.22518,0.01968
1101.29646,0.01960
1099.36775,0.01968
1097.43903,0.01960
1095.51032,0.01958
1093.58160,0.01986
1091.65289,0.01997
1089.72417,0.01957
1087.79546,0.01920
1085.86674,0.01941
1083.93802,0.01990
1082.00931,0.02011
1080.08059,0.01999
1078.15188,0.01983
1076.22316,0.02000
1074.29445,0.02065
1072.36573,0.02134
1070.43702,0.02142
1068.50830,0.02111
1066.57959,0.02107
1064.65087,0.02139
1062.72216,0.02160
1060.79344,0.02155
1058.86473,0.02148
1056.93601,0.02148
1055.00729,0.02144
1053.07858,0.02153
1051.14986,0.02177
1049.22115,0.02174
1047.29243,0.02128
1045.36372,0.02080
1043.43500,0.02068
1041.50629,0.02085
1039.57757,0.02099
1037.64886,0.02099
1035.72014,0.02108
1033.79143,0.02121
1031.86271,0.02101
1029.93399,0.02063
1028.00528,0.02054
1026.07656,0.02060
1024.14785,0.02067
1022.21913,0.02091
1020.29042,0.02110
1018.36170,0.02101
1016.43299,0.02091
1014.50427,0.02104
1012.57556,0.02142
1010.64684,0.02194
1008.71813,0.02221
1006.78941,0.02220
1004.86070,0.02243
1002.93198,0.02306
1001.00326,0.02351
999.07455,0.02330
997.14583,0.02277
995.21712,0.02245
993.28840,0.02239
991.35969,0.02234
989.43097,0.02214
987.50226,0.02197
985.57354,0.02196
983.64483,0.02219
981.71611,0.02245
979.78740,0.02250
977.85868,0.02234
975.92997,0.02214
974.00125,0.02207
972.07253,0.02204
970.14382,0.02192
968.21510,0.02184
966.28639,0.02191
964.35767,0.02193
962.42896,0.02168
960.50024,0.02139
958.57153,0.02135
956.64281,0.02149
954.71410,0.02168
952.78538,0.02180
950.85667,0.02177
948.92795,0.02160
946.99924,0.02141
945.07052,0.02138
943.14180,0.02143
941.21309,0.02136
939.28437,0.02118
937.35566,0.02105
935.42694,0.02103
933.49823,0.02108
931.56951,0.02129
929.64080,0.02149
927.71208,0.02134
925.78337,0.02109
923.85465,0.02115
921.92594,0.02120
919.99722,0.02094
918.06850,0.02069
916.13979,0.02066
914.21107,0.02070
912.28236,0.02073
910.35364,0.02086
908.42493,0.02105
906.49621,0.02114
904.56750,0.02114
902.63878,0.02104
900.71007,0.02078
898.78135,0.02065
896.85264,0.02070
894.92392,0.02055
892.99521,0.02027
891.06649,0.02028
889.13777,0.02054
887.20906,0.02077
885.28034,0.02081
883.35163,0.02083
881.42291,0.02079
879.49420,0.02058
877.56548,0.02038
875.63677,0.02038
873.70805,0.02053
871.77934,0.02066
869.85062,0.02070
867.92191,0.02074
865.99319,0.02091
864.06448,0.02106
862.13576,0.02082
860.20704,0.02019
858.27833,0.01978
856.34961,0.02003
854.42090,0.02031
852.49218,0.02024
850.56347,0.02021
848.63475,0.02034
846.70604,0.02051
844.77732,0.02065
842.84861,0.02063
840.91989,0.02047
838.99118,0.02020
837.06246,0.01987
835.13375,0.01967
833.20503,0.01983
831.27631,0.02019
829.34760,0.02021
827.41888,0.01972
825.49017,0.01941
823.56145,0.01949
821.63274,0.01958
819.70402,0.01952
817.77531,0.01956
815.84659,0.01986
813.91788,0.02002
811.98916,0.01990
810.06045,0.01982
808.13173,0.02001
806.20301,0.02037
804.27430,0.02043
802.34558,0.02005
800.41687,0.01979
798.48815,0.01987
796.55944,0.01986
794.63072,0.01951
792.70201,0.01930
790.77329,0.01953
788.84458,0.01963
786.91586,0.01943
784.98715,0.01945
783.05843,0.01973
781.12972,0.01982
779.20100,0.01981
777.27228,0.02004
775.34357,0.02034
773.41485,0.01996
771.48614,0.01907
769.55742,0.01885
767.62871,0.01944
765.69999,0.01992
763.77128,0.01987
761.84256,0.01942
759.91385,0.01884
757.98513,0.01830
756.05642,0.01807
754.12770,0.01839
752.19899,0.01867
750.27027,0.01848
748.34155,0.01845
746.41284,0.01876
744.48412,0.01904
742.55541,0.01946
740.62669,0.02003
738.69798,0.02003
736.76926,0.01942
734.84055,0.01889
732.91183,0.01863
730.98312,0.01861
729.05440,0.01873
727.12569,0.01870
725.19697,0.01852
723.26825,0.01832
721.33954,0.01829
719.41082,0.01854
717.48211,0.01875
715.55339,0.01871
713.62468,0.01869
711.69596,0.01888
709.76725,0.01908
707.83853,0.01923
705.90982,0.01928
703.98110,0.01886
702.05239,0.01831
700.12367,0.01841
698.19496,0.01876
696.26624,0.01872
694.33752,0.01876
692.40881,0.01931
690.48009,0.02011
688.55138,0.02057
686.62266,0.02022
684.69395,0.01940
682.76523,0.01899
680.83652,0.01908
678.90780,0.01898
676.97909,0.01883
675.05037,0.01929
673.12166,0.02009
671.19294,0.02045
669.26423,0.01983
667.33551,0.01908
665.40679,0.01901
663.47808,0.01869
661.54936,0.01826
659.62065,0.01830
657.69193,0.01851
655.76322,0.01844
653.83450,0.01821
651.90579,0.01803
649.97707,0.01780
648.04836,0.01773
646.11964,0.01803
644.19093,0.01855
642.26221,0.01879
640.33350,0.01818
638.40478,0.01753
636.47606,0.01812
634.54735,0.01897
632.61863,0.01859
630.68992,0.01762
628.76120,0.01724
626.83249,0.01723
624.90377,0.01724
622.97506,0.01713
621.04634,0.01669
619.11763,0.01582
617.18891,0.01514
615.26020,0.01575
613.33148,0.01697
611.40276,0.01718
609.47405,0.01691
607.54533,0.01704
605.61662,0.01719
603.68790,0.01667
601.75919,0.01542
599.83047,0.01434
