7497.03301,0.53120
7495.10426,0.52899
7493.17552,0.52963
7491.24677,0.52959
7489.31803,0.52643
7487.38928,0.52067
7485.46054,0.51533
7483.53179,0.51319
7481.60305,0.51430
7479.67430,0.51770
7477.74556,0.52261
7475.81681,0.52645
7473.88807,0.52751
7471.95932,0.52620
7470.03057,0.52335
7468.10183,0.52167
7466.17308,0.52437
7464.24434,0.52920
7462.31559,0.52960
7460.38685,0.52423
7458.45810,0.51749
7456.52936,0.51596
7454.60061,0.52223
7452.67187,0.52723
7450.74312,0.52478
7448.81438,0.52215
7446.88563,0.52333
7444.95689,0.52696
7443.02814,0.53223
7441.09940,0.53392
7439.17065,0.53036
7437.24190,0.52647
7435.31316,0.52152
7433.38441,0.51462
7431.45567,0.51347
7429.52692,0.52087
7427.59818,0.52845
7425.66943,0.52946
7423.74069,0.52391
7421.81194,0.51718
7419.88320,0.51646
7417.95445,0.51836
7416.02571,0.51513
7414.09696,0.51207
7412.16822,0.51586
7410.23947,0.52215
7408.31073,0.52594
7406.38198,0.52595
7404.45323,0.52232
7402.52449,0.51936
7400.59574,0.51920
7398.66700,0.51923
7396.73825,0.52082
7394.80951,0.52424
7392.88076,0.52395
7390.95202,0.51995
7389.02327,0.51748
7387.09453,0.51749
7385.16578,0.51925
7383.23704,0.52230
7381.30829,0.52518
7379.37955,0.52762
7377.45080,0.52733
7375.52205,0.52100
7373.59331,0.51419
7371.66456,0.51476
7369.73582,0.51944
7367.80707,0.52167
7365.87833,0.52152
7363.94958,0.52079
7362.02084,0.52038
7360.09209,0.51966
7358.16335,0.51630
7356.23460,0.51239
7354.30586,0.51436
7352.37711,0.51952
7350.44837,0.51779
7348.51962,0.51275
7346.59088,0.51361
7344.66213,0.51734
7342.73338,0.51914
7340.80464,0.51890
7338.87589,0.51749
7336.94715,0.51673
7335.01840,0.51720
7333.08966,0.51836
7331.16091,0.51870
7329.23217,0.51714
7327.30342,0.51616
7325.37468,0.51812
7323.44593,0.52013
7321.51719,0.51800
7319.58844,0.51321
7317.65970,0.51112
7315.73095,0.51393
7313.80221,0.51860
7311.87346,0.52097
7309.94471,0.51961
7308.01597,0.51731
7306.08722,0.51769
7304.15848,0.51825
7302.22973,0.51588
7300.30099,0.51453
7298.37224,0.51585
7296.44350,0.51622
7294.51475,0.51535
7292.58601,0.51430
7290.65726,0.51314
7288.72852,0.51468
7286.79977,0.51972
7284.87103,0.52320
7282.94228,0.52343
7281.01353,0.52385
7279.08479,0.52166
7277.15604,0.51389
7275.22730,0.50944
7273.29855,0.51359
7271.36981,0.51886
7269.44106,0.51860
7267.51232,0.51321
7265.58357,0.50954
7263.65483,0.51244
7261.72608,0.51707
7259.79734,0.51864
7257.86859,0.51843
7255.93985,0.51813
7254.01110,0.51876
7252.08236,0.51941
7250.15361,0.51662
7248.22486,0.51134
7246.29612,0.50948
7244.36737,0.51333
7242.43863,0.51879
7240.50988,0.52174
7238.58114,0.52280
7236.65239,0.52329
7234.72365,0.52161
7232.79490,0.51673
7230.86616,0.51307
7228.93741,0.51476
7227.00867,0.51790
7225.07992,0.51753
7223.15118,0.51613
7221.22243,0.51794
7219.29369,0.52092
7217.36494,0.52100
7215.43619,0.51819
7213.50745,0.51516
7211.57870,0.51515
7209.64996,0.51740
7207.72121,0.51732
7205.79247,0.51509
7203.86372,0.51500
7201.93498,0.51704
7200.00623,0.51802
7198.07749,0.51764
7196.14874,0.51728
7194.22000,0.51696
7192.29125,0.51622
7190.36251,0.51467
7188.43376,0.51337
7186.50501,0.51476
7184.57627,0.51791
7182.64752,0.51846
7180.71878,0.51603
7178.79003,0.51424
7176.86129,0.51459
7174.93254,0.51612
7173.00380,0.51727
7171.07505,0.51826
7169.14631,0.51940
7167.21756,0.52013
7165.28882,0.52137
7163.36007,0.52024
7161.43133,0.51470
7159.50258,0.51173
7157.57384,0.51534
7155.64509,0.52096
7153.71634,0.52365
7151.78760,0.52168
7149.85885,0.51778
7147.93011,0.51711
7146.00136,0.52038
7144.07262,0.52247
7142.14387,0.52028
7140.21513,0.51711
7138.28638,0.51611
7136.35764,0.51555
7134.42889,0.51407
7132.50015,0.51260
7130.57140,0.51085
7128.64266,0.50984
7126.71391,0.51144
7124.78516,0.51433
7122.85642,0.51773
7120.92767,0.52062
7118.99893,0.51925
7117.07018,0.51565
7115.14144,0.51511
7113.21269,0.51499
7111.28395,0.51164
7109.35520,0.50785
7107.42646,0.50715
7105.49771,0.50976
7103.56897,0.51356
7101.64022,0.51498
7099.71148,0.51200
7097.78273,0.50755
7095.85399,0.50588
7093.92524,0.50673
7091.99649,0.50752
7090.06775,0.50852
7088.13900,0.51002
7086.21026,0.50965
7084.28151,0.50846
7082.35277,0.50995
7080.42402,0.51197
7078.49528,0.51113
7076.56653,0.50829
7074.63779,0.50528
7072.70904,0.50378
7070.78030,0.50433
7068.85155,0.50451
7066.92281,0.50284
7064.99406,0.50083
7063.06532,0.49991
7061.13657,0.50040
7059.20782,0.50245
7057.27908,0.50482
7055.35033,0.50510
7053.42159,0.50509
7051.49284,0.50816
7049.56410,0.51004
7047.63535,0.50715
7045.70661,0.50378
7043.77786,0.50163
7041.84912,0.49915
7039.92037,0.49820
7037.99163,0.50022
7036.06288,0.50320
7034.13414,0.50431
7032.20539,0.50261
7030.27664,0.50013
7028.34790,0.49790
7026.41915,0.49566
7024.49041,0.49527
7022.56166,0.49573
7020.63292,0.49428
7018.70417,0.49381
7016.77543,0.49665
7014.84668,0.49831
7012.91794,0.49591
7010.98919,0.49386
7009.06045,0.49526
7007.13170,0.49660
7005.20296,0.49539
7003.27421,0.49447
7001.34547,0.49532
6999.41672,0.49635
6997.48797,0.49796
6995.55923,0.49927
6993.63048,0.49757
6991.70174,0.49477
6989.77299,0.49464
6987.84425,0.49739
6985.91550,0.49931
6983.98676,0.49714
6982.05801,0.49361
6980.12927,0.49315
6978.20052,0.49431
6976.27178,0.49227
6974.34303,0.48734
6972.41429,0.48496
6970.48554,0.48718
6968.55680,0.48971
6966.62805,0.48973
6964.69930,0.48912
6962.77056,0.48824
6960.84181,0.48739
6958.91307,0.48832
6956.98432,0.48972
6955.05558,0.49047
6953.12683,0.49029
6951.19809,0.48809
6949.26934,0.48619
6947.34060,0.48806
6945.41185,0.49222
6943.48311,0.49418
6941.55436,0.49221
6939.62562,0.48847
6937.69687,0.48645
6935.76812,0.48798
6933.83938,0.49003
6931.91063,0.48839
6929.98189,0.48504
6928.05314,0.48459
6926.12440,0.48652
6924.19565,0.48841
6922.26691,0.49039
6920.33816,0.49165
6918.40942,0.48994
6916.48067,0.48666
6914.55193,0.48498
6912.62318,0.48491
6910.69444,0.48562
6908.76569,0.48601
6906.83695,0.48533
6904.90820,0.48567
6902.97945,0.48722
6901.05071,0.48866
6899.12196,0.48961
6897.19322,0.48831
6895.26447,0.48603
6893.33573,0.48501
6891.40698,0.48374
6889.47824,0.48278
6887.54949,0.48412
6885.62075,0.48686
6883.69200,0.48892
6881.76326,0.48815
6879.83451,0.48562
6877.90577,0.48579
6875.97702,0.48785
6874.04828,0.48833
6872.11953,0.48878
6870.19078,0.48936
6868.26204,0.48856
6866.33329,0.48755
6864.40455,0.48652
6862.47580,0.48629
6860.54706,0.48683
6858.61831,0.48712
6856.68957,0.48942
6854.76082,0.49224
6852.83208,0.49219
6850.90333,0.49144
6848.97459,0.49171
6847.04584,0.49241
6845.11710,0.49234
6843.18835,0.49035
6841.25960,0.48754
6839.33086,0.48608
6837.40211,0.48642
6835.47337,0.48715
6833.54462,0.48701
6831.61588,0.48571
6829.68713,0.48327
6827.75839,0.48065
6825.82964,0.48016
6823.90090,0.48266
6821.97215,0.48512
6820.04341,0.48581
6818.11466,0.48530
6816.18592,0.48242
6814.25717,0.47846
6812.32843,0.47844
6810.39968,0.48292
6808.47093,0.48624
6806.54219,0.48520
6804.61344,0.48360
6802.68470,0.48536
6800.75595,0.48846
6798.82721,0.48955
6796.89846,0.48944
6794.96972,0.48924
6793.04097,0.48925
6791.11223,0.48929
6789.18348,0.48658
6787.25474,0.48265
6785.32599,0.48263
6783.39725,0.48525
6781.46850,0.48724
6779.53975,0.48869
6777.61101,0.48895
6775.68226,0.48752
6773.75352,0.48625
6771.82477,0.48589
6769.89603,0.48669
6767.96728,0.48889
6766.03854,0.48910
6764.10979,0.48693
6762.18105,0.48667
6760.25230,0.48822
6758.32356,0.48929
6756.39481,0.48915
6754.46607,0.48724
6752.53732,0.48463
6750.60858,0.48336
6748.67983,0.48395
6746.75108,0.48475
6744.82234,0.48486
6742.89359,0.48513
6740.96485,0.48514
6739.03610,0.48463
6737.10736,0.48464
6735.17861,0.48554
6733.24987,0.48698
6731.32112,0.48870
6729.39238,0.48998
6727.46363,0.48968
6725.53489,0.48850
6723.60614,0.48765
6721.67740,0.48658
6719.74865,0.48565
6717.81991,0.48568
6715.89116,0.48618
6713.96241,0.48598
6712.03367,0.48455
6710.10492,0.48422
6708.17618,0.48639
6706.24743,0.48837
6704.31869,0.48783
6702.38994,0.48550
6700.46120,0.48432
6698.53245,0.48517
6696.60371,0.48495
6694.67496,0.48340
6692.74622,0.48388
6690.81747,0.48713
6688.88873,0.49002
6686.95998,0.48950
6685.03123,0.48681
6683.10249,0.48499
6681.17374,0.48524
6679.24500,0.48741
6677.31625,0.48954
6675.38751,0.48974
6673.45876,0.48826
6671.53002,0.48567
6669.60127,0.48278
6667.67253,0.48111
6665.74378,0.48141
6663.81504,0.48332
6661.88629,0.48589
6659.95755,0.48774
6658.02880,0.48817
6656.10006,0.48756
6654.17131,0.48666
6652.24256,0.48699
6650.31382,0.48878
6648.38507,0.48963
6646.45633,0.48882
6644.52758,0.48768
6642.59884,0.48654
6640.67009,0.48574
6638.74135,0.48583
6636.81260,0.48658
6634.88386,0.48738
6632.95511,0.48685
6631.02637,0.48514
6629.09762,0.48466
6627.16888,0.48544
6625.24013,0.48593
6623.31139,0.48700
6621.38264,0.48869
6619.45389,0.48872
6617.52515,0.48754
6615.59640,0.48723
6613.66766,0.48824
6611.73891,0.48998
6609.81017,0.49134
6607.88142,0.49199
6605.95268,0.49120
6604.02393,0.48872
6602.09519,0.48735
6600.16644,0.48842
6598.23770,0.49068
6596.30895,0.49262
6594.38021,0.49323
6592.45146,0.49317
6590.52271,0.49264
6588.59397,0.49142
6586.66522,0.49043
6584.73648,0.49068
6582.80773,0.49232
6580.87899,0.49328
6578.95024,0.49247
6577.02150,0.49211
6575.09275,0.49270
6573.16401,0.49186
6571.23526,0.48934
6569.30652,0.48674
6567.37777,0.48516
6565.44903,0.48559
6563.52028,0.48743
6561.59154,0.48877
6559.66279,0.48901
6557.73404,0.48888
6555.80530,0.48897
6553.87655,0.48966
6551.94781,0.49016
6550.01906,0.48881
6548.09032,0.48763
6546.16157,0.48861
6544.23283,0.48912
6542.30408,0.48866
6540.37534,0.48803
6538.44659,0.48723
6536.51785,0.48866
6534.58910,0.49186
6532.66036,0.49279
6530.73161,0.49103
6528.80287,0.48972
6526.87412,0.48986
6524.94537,0.48936
6523.01663,0.48760
6521.08788,0.48651
6519.15914,0.48749
6517.23039,0.48957
6515.30165,0.49169
6513.37290,0.49380
6511.44416,0.49467
6509.51541,0.49374
6507.58667,0.49302
6505.65792,0.49337
6503.72918,0.49298
6501.80043,0.49205
6499.87169,0.49245
6497.94294,0.49240
6496.01419,0.49015
6494.08545,0.48812
6492.15670,0.48875
6490.22796,0.49176
6488.29921,0.49507
6486.37047,0.49633
6484.44172,0.49499
6482.51298,0.49206
6480.58423,0.48927
6478.65549,0.48843
6476.72674,0.48924
6474.79800,0.48982
6472.86925,0.49027
6470.94051,0.49204
6469.01176,0.49417
6467.08302,0.49365
6465.15427,0.48983
6463.22552,0.48614
6461.29678,0.48553
6459.36803,0.48708
6457.43929,0.48868
6455.51054,0.48889
6453.58180,0.48789
6451.65305,0.48789
6449.72431,0.48994
6447.79556,0.49242
6445.86682,0.49353
6443.93807,0.49350
6442.00933,0.49384
6440.08058,0.49419
6438.15184,0.49380
6436.22309,0.49376
6434.29434,0.49342
6432.36560,0.49190
6430.43685,0.49096
6428.50811,0.48997
6426.57936,0.48774
6424.65062,0.48712
6422.72187,0.48923
6420.79313,0.49114
6418.86438,0.49107
6416.93564,0.48987
6415.00689,0.48868
6413.07815,0.48874
6411.14940,0.49058
6409.22066,0.49231
6407.29191,0.49121
6405.36317,0.48718
6403.43442,0.48451
6401.50567,0.48602
6399.57693,0.48852
6397.64818,0.48961
6395.71944,0.48990
6393.79069,0.48939
6391.86195,0.48840
6389.93320,0.48810
6388.00446,0.48925
6386.07571,0.49121
6384.14697,0.49286
6382.21822,0.49391
6380.28948,0.49379
6378.36073,0.49226
6376.43199,0.49111
6374.50324,0.49183
6372.57450,0.49293
6370.64575,0.49238
6368.71700,0.49114
6366.78826,0.49171
6364.85951,0.49347
6362.93077,0.49455
6361.00202,0.49512
6359.07328,0.49551
6357.14453,0.49623
6355.21579,0.49690
6353.28704,0.49626
6351.35830,0.49450
6349.42955,0.49238
6347.50081,0.49174
6345.57206,0.49338
6343.64332,0.49469
6341.71457,0.49407
6339.78582,0.49312
6337.85708,0.49317
6335.92833,0.49234
6333.99959,0.48980
6332.07084,0.48907
6330.14210,0.49128
6328.21335,0.49329
6326.28461,0.49381
6324.35586,0.49375
6322.42712,0.49365
6320.49837,0.49404
6318.56963,0.49484
6316.64088,0.49544
6314.71214,0.49557
6312.78339,0.49496
6310.85465,0.49449
6308.92590,0.49556
6306.99715,0.49713
6305.06841,0.49668
6303.13966,0.49484
6301.21092,0.49473
6299.28217,0.49569
6297.35343,0.49513
6295.42468,0.49367
6293.49594,0.49205
6291.56719,0.48970
6289.63845,0.48819
6287.70970,0.48978
6285.78096,0.49309
6283.85221,0.49535
6281.92347,0.49650
6279.99472,0.49654
6278.06598,0.49558
6276.13723,0.49566
6274.20848,0.49722
6272.27974,0.49903
6270.35099,0.50027
6268.42225,0.50021
6266.49350,0.49934
6264.56476,0.49904
6262.63601,0.49932
6260.70727,0.49927
6258.77852,0.49882
6256.84978,0.49805
6254.92103,0.49680
6252.99229,0.49615
6251.06354,0.49702
6249.13480,0.49798
6247.20605,0.49750
6245.27730,0.49630
6243.34856,0.49580
6241.41981,0.49654
6239.49107,0.49849
6237.56232,0.50042
6235.63358,0.50030
6233.70483,0.49895
6231.77609,0.49961
6229.84734,0.50243
6227.91860,0.50417
6225.98985,0.50308
6224.06111,0.50149
6222.13236,0.50227
6220.20362,0.50373
6218.27487,0.50316
6216.34613,0.50102
6214.41738,0.49858
6212.48863,0.49770
6210.55989,0.49964
6208.63114,0.50224
6206.70240,0.50302
6204.77365,0.50250
6202.84491,0.50287
6200.91616,0.50507
6198.98742,0.50687
6197.05867,0.50594
6195.12993,0.50351
6193.20118,0.50162
6191.27244,0.50056
6189.34369,0.50053
6187.41495,0.50165
6185.48620,0.50258
6183.55746,0.50310
6181.62871,0.50505
6179.69996,0.50716
6177.77122,0.50656
6175.84247,0.50475
6173.91373,0.50446
6171.98498,0.50557
6170.05624,0.50626
6168.12749,0.50616
6166.19875,0.50674
6164.27000,0.50767
6162.34126,0.50802
6160.41251,0.50838
6158.48377,0.50880
6156.55502,0.50896
6154.62628,0.50957
6152.69753,0.51077
6150.76878,0.51119
6148.84004,0.51069
6146.91129,0.51002
6144.98255,0.50915
6143.05380,0.50954
6141.12506,0.51147
6139.19631,0.51181
6137.26757,0.50997
6135.33882,0.50869
6133.41008,0.50904
6131.48133,0.51011
6129.55259,0.51042
6127.62384,0.50950
6125.69510,0.50916
6123.76635,0.51019
6121.83761,0.51059
6119.90886,0.50945
6117.98011,0.50881
6116.05137,0.50951
6114.12262,0.50956
6112.19388,0.50900
6110.26513,0.50970
6108.33639,0.51094
6106.40764,0.51125
6104.47890,0.51112
6102.55015,0.51134
6100.62141,0.51146
6098.69266,0.51140
6096.76392,0.51163
6094.83517,0.51201
6092.90643,0.51263
6090.97768,0.51376
6089.04893,0.51451
6087.12019,0.51404
6085.19144,0.51287
6083.26270,0.51200
6081.33395,0.51201
6079.40521,0.51208
6077.47646,0.51077
6075.54772,0.50907
6073.61897,0.50935
6071.69023,0.51159
6069.76148,0.51427
6067.83274,0.51574
6065.90399,0.51421
6063.97525,0.51134
6062.04650,0.51104
6060.11776,0.51318
6058.18901,0.51476
6056.26026,0.51450
6054.33152,0.51332
6052.40277,0.51245
6050.47403,0.51204
6048.54528,0.51158
6046.61654,0.51140
6044.68779,0.51214
6042.75905,0.51258
6040.83030,0.51128
6038.90156,0.51021
6036.97281,0.51142
6035.04407,0.51309
6033.11532,0.51304
6031.18658,0.51221
6029.25783,0.51173
6027.32909,0.51122
6025.40034,0.51081
6023.47159,0.51093
6021.54285,0.51098
6019.61410,0.51109
6017.68536,0.51250
6015.75661,0.51394
6013.82787,0.51331
6011.89912,0.51176
6009.97038,0.51082
6008.04163,0.51060
6006.11289,0.51145
6004.18414,0.51259
6002.25540,0.51267
6000.32665,0.51253
5998.39791,0.51347
5996.46916,0.51481
5994.54041,0.51494
5992.61167,0.51334
5990.68292,0.51195
5988.75418,0.51233
5986.82543,0.51295
5984.89669,0.51231
5982.96794,0.51131
5981.03920,0.51104
5979.11045,0.51145
5977.18171,0.51250
5975.25296,0.51320
5973.32422,0.51221
5971.39547,0.51140
5969.46673,0.51235
5967.53798,0.51245
5965.60924,0.51089
5963.68049,0.51029
5961.75174,0.51125
5959.82300,0.51223
5957.89425,0.51302
5955.96551,0.51410
5954.03676,0.51487
5952.10802,0.51493
5950.17927,0.51472
5948.25053,0.51444
5946.32178,0.51428
5944.39304,0.51391
5942.46429,0.51272
5940.53555,0.51115
5938.60680,0.50966
5936.67806,0.50901
5934.74931,0.50989
5932.82057,0.51117
5930.89182,0.51220
5928.96307,0.51345
5927.03433,0.51430
5925.10558,0.51431
5923.17684,0.51446
5921.24809,0.51486
5919.31935,0.51412
5917.39060,0.51247
5915.46186,0.51222
5913.53311,0.51380
5911.60437,0.51517
5909.67562,0.51457
5907.74688,0.51270
5905.81813,0.51193
5903.88939,0.51224
5901.96064,0.51172
5900.03189,0.51065
5898.10315,0.51000
5896.17440,0.50944
5894.24566,0.50886
5892.31691,0.50897
5890.38817,0.50966
5888.45942,0.51038
5886.53068,0.51092
5884.60193,0.51061
5882.67319,0.50977
5880.74444,0.50930
5878.81570,0.50906
5876.88695,0.50919
5874.95821,0.50954
5873.02946,0.50948
5871.10072,0.50984
5869.17197,0.51082
5867.24322,0.51048
5865.31448,0.50876
5863.38573,0.50793
5861.45699,0.50881
5859.52824,0.51036
5857.59950,0.51136
5855.67075,0.51140
5853.74201,0.51078
5851.81326,0.50996
5849.88452,0.50958
5847.95577,0.50967
5846.02703,0.51008
5844.09828,0.51099
5842.16954,0.51174
5840.24079,0.51171
5838.31205,0.51138
5836.38330,0.51069
5834.45455,0.50953
5832.52581,0.50946
5830.59706,0.51070
5828.66832,0.51099
5826.73957,0.50981
5824.81083,0.50834
5822.88208,0.50732
5820.95334,0.50741
5819.02459,0.50810
5817.09585,0.50812
5815.16710,0.50844
5813.23836,0.51036
5811.30961,0.51209
5809.38087,0.51200
5807.45212,0.51154
5805.52337,0.51184
5803.59463,0.51189
5801.66588,0.51151
5799.73714,0.51159
5797.80839,0.51175
5795.87965,0.51123
5793.95090,0.51019
5792.02216,0.50924
5790.09341,0.50913
5788.16467,0.50919
5786.23592,0.50803
5784.30718,0.50691
5782.37843,0.50805
5780.44969,0.51054
5778.52094,0.51153
5776.59220,0.51061
5774.66345,0.50928
5772.73470,0.50823
5770.80596,0.50790
5768.87721,0.50827
5766.94847,0.50867
5765.01972,0.50886
5763.09098,0.50873
5761.16223,0.50857
5759.23349,0.50896
5757.30474,0.50982
5755.37600,0.51076
5753.44725,0.51098
5751.51851,0.50969
5749.58976,0.50837
5747.66102,0.50869
5745.73227,0.50976
5743.80352,0.51040
5741.87478,0.51103
5739.94603,0.51209
5738.01729,0.51278
5736.08854,0.51284
5734.15980,0.51295
5732.23105,0.51295
5730.30231,0.51266
5728.37356,0.51250
5726.44482,0.51221
5724.51607,0.51170
5722.58733,0.51194
5720.65858,0.51257
5718.72984,0.51213
5716.80109,0.51115
5714.87235,0.51062
5712.94360,0.51030
5711.01485,0.51037
5709.08611,0.51098
5707.15736,0.51112
5705.22862,0.51063
5703.29987,0.51068
5701.37113,0.51129
5699.44238,0.51178
5697.51364,0.51182
5695.58489,0.51124
5693.65615,0.51113
5691.72740,0.51162
5689.79866,0.51126
5687.86991,0.51031
5685.94117,0.50965
5684.01242,0.50906
5682.08368,0.50871
5680.15493,0.50905
5678.22618,0.50966
5676.29744,0.50984
5674.36869,0.50951
5672.43995,0.50951
5670.51120,0.51035
5668.58246,0.51102
5666.65371,0.51098
5664.72497,0.51079
5662.79622,0.51074
5660.86748,0.51106
5658.93873,0.51172
5657.00999,0.51251
5655.08124,0.51309
5653.15250,0.51281
5651.22375,0.51167
5649.29500,0.51005
5647.36626,0.50883
5645.43751,0.50949
5643.50877,0.51178
5641.58002,0.51378
5639.65128,0.51461
5637.72253,0.51412
5635.79379,0.51260
5633.86504,0.51110
5631.93630,0.51056
5630.00755,0.51140
5628.07881,0.51281
5626.15006,0.51325
5624.22132,0.51265
5622.29257,0.51197
5620.36383,0.51137
5618.43508,0.51087
5616.50633,0.51115
5614.57759,0.51205
5612.64884,0.51247
5610.72010,0.51214
5608.79135,0.51183
5606.86261,0.51183
5604.93386,0.51192
5603.00512,0.51249
5601.07637,0.51349
5599.14763,0.51383
5597.21888,0.51307
5595.29014,0.51187
5593.36139,0.51151
5591.43265,0.51231
5589.50390,0.51309
5587.57516,0.51315
5585.64641,0.51269
5583.71766,0.51185
5581.78892,0.51115
5579.86017,0.51168
5577.93143,0.51294
5576.00268,0.51326
5574.07394,0.51303
5572.14519,0.51333
5570.21645,0.51334
5568.28770,0.51249
5566.35896,0.51208
5564.43021,0.51264
5562.50147,0.51298
5560.57272,0.51300
5558.64398,0.51318
5556.71523,0.51307
5554.78648,0.51280
5552.85774,0.51268
5550.92899,0.51293
5549.00025,0.51401
5547.07150,0.51480
5545.14276,0.51423
5543.21401,0.51354
5541.28527,0.51360
5539.35652,0.51383
5537.42778,0.51417
5535.49903,0.51433
5533.57029,0.51356
5531.64154,0.51252
5529.71280,0.51257
5527.78405,0.51357
5525.85531,0.51425
5523.92656,0.51416
5521.99781,0.51380
5520.06907,0.51364
5518.14032,0.51362
5516.21158,0.51339
5514.28283,0.51321
5512.35409,0.51322
5510.42534,0.51295
5508.49660,0.51278
5506.56785,0.51354
5504.63911,0.51439
5502.71036,0.51425
5500.78162,0.51405
5498.85287,0.51499
5496.92413,0.51613
5494.99538,0.51601
5493.06664,0.51523
5491.13789,0.51486
5489.20914,0.51436
5487.28040,0.51359
5485.35165,0.51326
5483.42291,0.51322
5481.49416,0.51343
5479.56542,0.51402
5477.63667,0.51431
5475.70793,0.51382
5473.77918,0.51344
5471.85044,0.51396
5469.92169,0.51482
5467.99295,0.51514
5466.06420,0.51498
5464.13546,0.51525
5462.20671,0.51617
5460.27796,0.51683
5458.34922,0.51666
5456.42047,0.51614
5454.49173,0.51594
5452.56298,0.51623
5450.63424,0.51666
5448.70549,0.51658
5446.77675,0.51586
5444.84800,0.51522
5442.91926,0.51483
5440.99051,0.51466
5439.06177,0.51530
5437.13302,0.51608
5435.20428,0.51588
5433.27553,0.51582
5431.34679,0.51648
5429.41804,0.51684
5427.48929,0.51673
5425.56055,0.51686
5423.63180,0.51773
5421.70306,0.51836
5419.77431,0.51770
5417.84557,0.51677
5415.91682,0.51644
5413.98808,0.51652
5412.05933,0.51670
5410.13059,0.51635
5408.20184,0.51535
5406.27310,0.51470
5404.34435,0.51524
5402.41561,0.51661
5400.48686,0.51784
5398.55811,0.51833
5396.62937,0.51799
5394.70062,0.51746
5392.77188,0.51740
5390.84313,0.51759
5388.91439,0.51795
5386.98564,0.51891
5385.05690,0.52019
5383.12815,0.52079
5381.19941,0.52018
5379.27066,0.51945
5377.34192,0.51977
5375.41317,0.52043
5373.48443,0.52053
5371.55568,0.51997
5369.62694,0.51883
5367.69819,0.51808
5365.76944,0.51846
5363.84070,0.51937
5361.91195,0.52010
5359.98321,0.52018
5358.05446,0.51924
5356.12572,0.51833
5354.19697,0.51886
5352.26823,0.52046
5350.33948,0.52149
5348.41074,0.52123
5346.48199,0.52040
5344.55325,0.51974
5342.62450,0.51937
5340.69576,0.51883
5338.76701,0.51811
5336.83827,0.51841
5334.90952,0.51995
5332.98077,0.52116
5331.05203,0.52106
5329.12328,0.52006
5327.19454,0.51910
5325.26579,0.51878
5323.33705,0.51879
5321.40830,0.51880
5319.47956,0.51887
5317.55081,0.51898
5315.62207,0.51927
5313.69332,0.51920
5311.76458,0.51822
5309.83583,0.51714
5307.90709,0.51625
5305.97834,0.51538
5304.04959,0.51497
5302.12085,0.51475
5300.19210,0.51429
5298.26336,0.51403
5296.33461,0.51408
5294.40587,0.51371
5292.47712,0.51247
5290.54838,0.51092
5288.61963,0.50968
5286.69089,0.50868
5284.76214,0.50818
5282.83340,0.50828
5280.90465,0.50786
5278.97591,0.50663
5277.04716,0.50550
5275.11842,0.50475
5273.18967,0.50409
5271.26092,0.50315
5269.33218,0.50198
5267.40343,0.50122
5265.47469,0.50083
5263.54594,0.49956
5261.61720,0.49710
5259.68845,0.49511
5257.75971,0.49472
5255.83096,0.49487
5253.90222,0.49434
5251.97347,0.49351
5250.04473,0.49257
5248.11598,0.49114
5246.18724,0.48983
5244.25849,0.48905
5242.32975,0.48832
5240.40100,0.48734
5238.47225,0.48615
5236.54351,0.48505
5234.61476,0.48425
5232.68602,0.48365
5230.75727,0.48308
5228.82853,0.48241
5226.89978,0.48146
5224.97104,0.48002
5223.04229,0.47876
5221.11355,0.47846
5219.18480,0.47862
5217.25606,0.47853
5215.32731,0.47844
5213.39857,0.47856
5211.46982,0.47846
5209.54107,0.47818
5207.61233,0.47815
5205.68358,0.47817
5203.75484,0.47773
5201.82609,0.47699
5199.89735,0.47645
5197.96860,0.47631
5196.03986,0.47657
5194.11111,0.47698
5192.18237,0.47729
5190.25362,0.47730
5188.32488,0.47685
5186.39613,0.47613
5184.46739,0.47564
5182.53864,0.47571
5180.60990,0.47604
5178.68115,0.47623
5176.75240,0.47653
5174.82366,0.47715
5172.89491,0.47764
5170.96617,0.47779
5169.03742,0.47827
5167.10868,0.47926
5165.17993,0.47985
5163.25119,0.47966
5161.32244,0.47947
5159.39370,0.47983
5157.46495,0.48048
5155.53621,0.48131
5153.60746,0.48182
5151.67872,0.48157
5149.74997,0.48168
5147.82123,0.48274
5145.89248,0.48337
5143.96373,0.48294
5142.03499,0.48225
5140.10624,0.48204
5138.17750,0.48240
5136.24875,0.48307
5134.32001,0.48367
5132.39126,0.48393
5130.46252,0.48418
5128.53377,0.48458
5126.60503,0.48476
5124.67628,0.48482
5122.74754,0.48519
5120.81879,0.48595
5118.89005,0.48643
5116.96130,0.48650
5115.03255,0.48705
5113.10381,0.48795
5111.17506,0.48794
5109.24632,0.48731
5107.31757,0.48788
5105.38883,0.48926
5103.46008,0.48931
5101.53134,0.48823
5099.60259,0.48752
5097.67385,0.48736
5095.74510,0.48780
5093.81636,0.48872
5091.88761,0.48922
5089.95887,0.48928
5088.03012,0.48963
5086.10138,0.49018
5084.17263,0.49069
5082.24388,0.49100
5080.31514,0.49078
5078.38639,0.49040
5076.45765,0.49028
5074.52890,0.49036
5072.60016,0.49058
5070.67141,0.49080
5068.74267,0.49065
5066.81392,0.49040
5064.88518,0.49063
5062.95643,0.49142
5061.02769,0.49219
5059.09894,0.49201
5057.17020,0.49124
5055.24145,0.49117
5053.31270,0.49158
5051.38396,0.49159
5049.45521,0.49128
5047.52647,0.49102
5045.59772,0.49076
5043.66898,0.49032
5041.74023,0.48975
5039.81149,0.48946
5037.88274,0.48973
5035.95400,0.49000
5034.02525,0.48985
5032.09651,0.48969
5030.16776,0.48972
5028.23902,0.48949
5026.31027,0.48884
5024.38153,0.48822
5022.45278,0.48778
5020.52403,0.48723
5018.59529,0.48680
5016.66654,0.48705
5014.73780,0.48768
5012.80905,0.48797
5010.88031,0.48778
5008.95156,0.48707
5007.02282,0.48606
5005.09407,0.48535
5003.16533,0.48495
5001.23658,0.48459
4999.30784,0.48431
4997.37909,0.48387
4995.45035,0.48265
4993.52160,0.48106
4991.59286,0.48058
4989.66411,0.48121
4987.73536,0.48124
4985.80662,0.48045
4983.87787,0.48006
4981.94913,0.47985
4980.02038,0.47890
4978.09164,0.47768
4976.16289,0.47706
4974.23415,0.47688
4972.30540,0.47660
4970.37666,0.47592
4968.44791,0.47479
4966.51917,0.47372
4964.59042,0.47315
4962.66168,0.47250
4960.73293,0.47156
4958.80418,0.47095
4956.87544,0.47076
4954.94669,0.47061
4953.01795,0.47016
4951.08920,0.46916
4949.16046,0.46821
4947.23171,0.46797
4945.30297,0.46769
4943.37422,0.46657
4941.44548,0.46503
4939.51673,0.46404
4937.58799,0.46366
4935.65924,0.46302
4933.73050,0.46189
4931.80175,0.46071
4929.87301,0.45930
4927.94426,0.45754
4926.01551,0.45610
4924.08677,0.45509
4922.15802,0.45416
4920.22928,0.45357
4918.30053,0.45354
4916.37179,0.45332
4914.44304,0.45226
4912.51430,0.45101
4910.58555,0.45042
4908.65681,0.44992
4906.72806,0.44882
4904.79932,0.44771
4902.87057,0.44737
4900.94183,0.44744
4899.01308,0.44684
4897.08434,0.44541
4895.15559,0.44402
4893.22684,0.44283
4891.29810,0.44152
4889.36935,0.44046
4887.44061,0.43982
4885.51186,0.43932
4883.58312,0.43882
4881.65437,0.43775
4879.72563,0.43596
4877.79688,0.43443
4875.86814,0.43368
4873.93939,0.43310
4872.01065,0.43233
4870.08190,0.43140
4868.15316,0.43057
4866.22441,0.43038
4864.29566,0.43047
4862.36692,0.42971
4860.43817,0.42805
4858.50943,0.42645
4856.58068,0.42551
4854.65194,0.42522
4852.72319,0.42496
4850.79445,0.42423
4848.86570,0.42339
4846.93696,0.42259
4845.00821,0.42166
4843.07947,0.42093
4841.15072,0.42049
4839.22198,0.41991
4837.29323,0.41916
4835.36449,0.41873
4833.43574,0.41873
4831.50699,0.41826
4829.57825,0.41702
4827.64950,0.41575
4825.72076,0.41472
4823.79201,0.41388
4821.86327,0.41327
4819.93452,0.41249
4818.00578,0.41147
4816.07703,0.41086
4814.14829,0.41065
4812.21954,0.41004
4810.29080,0.40929
4808.36205,0.40914
4806.43331,0.40923
4804.50456,0.40848
4802.57582,0.40693
4800.64707,0.40595
4798.71832,0.40600
4796.78958,0.40613
4794.86083,0.40565
4792.93209,0.40487
4791.00334,0.40435
4789.07460,0.40405
4787.14585,0.40363
4785.21711,0.40306
4783.28836,0.40262
4781.35962,0.40252
4779.43087,0.40238
4777.50213,0.40208
4775.57338,0.40193
4773.64464,0.40176
4771.71589,0.40152
4769.78714,0.40131
4767.85840,0.40096
4765.92965,0.40040
4764.00091,0.39995
4762.07216,0.39984
4760.14342,0.39989
4758.21467,0.39980
4756.28593,0.39954
4754.35718,0.39903
4752.42844,0.39834
4750.49969,0.39800
4748.57095,0.39811
4746.64220,0.39823
4744.71346,0.39822
4742.78471,0.39806
4740.85597,0.39756
4738.92722,0.39704
4736.99847,0.39725
4735.06973,0.39812
4733.14098,0.39852
4731.21224,0.39807
4729.28349,0.39766
4727.35475,0.39775
4725.42600,0.39795
4723.49726,0.39797
4721.56851,0.39784
4719.63977,0.39755
4717.71102,0.39733
4715.78228,0.39763
4713.85353,0.39807
4711.92479,0.39802
4709.99604,0.39803
4708.06729,0.39829
4706.13855,0.39814
4704.20980,0.39776
4702.28106,0.39789
4700.35231,0.39854
4698.42357,0.39899
4696.49482,0.39893
4694.56608,0.39893
4692.63733,0.39935
4690.70859,0.39978
4688.77984,0.40000
4686.85110,0.40022
4684.92235,0.40034
4682.99361,0.40034
4681.06486,0.40074
4679.13612,0.40149
4677.20737,0.40184
4675.27862,0.40206
4673.34988,0.40267
4671.42113,0.40307
4669.49239,0.40320
4667.56364,0.40368
4665.63490,0.40414
4663.70615,0.40397
4661.77741,0.40376
4659.84866,0.40427
4657.91992,0.40516
4655.99117,0.40548
4654.06243,0.40503
4652.13368,0.40481
4650.20494,0.40545
4648.27619,0.40630
4646.34745,0.40685
4644.41870,0.40717
4642.48995,0.40737
4640.56121,0.40764
4638.63246,0.40794
4636.70372,0.40835
4634.77497,0.40917
4632.84623,0.41015
4630.91748,0.41061
4628.98874,0.41059
4627.05999,0.41058
4625.13125,0.41098
4623.20250,0.41178
4621.27376,0.41257
4619.34501,0.41303
4617.41627,0.41319
4615.48752,0.41335
4613.55877,0.41377
4611.63003,0.41428
4609.70128,0.41493
4607.77254,0.41618
4605.84379,0.41757
4603.91505,0.41818
4601.98630,0.41846
4600.05756,0.41908
4598.12881,0.41964
4596.20007,0.41987
4594.27132,0.41998
4592.34258,0.42033
4590.41383,0.42100
4588.48509,0.42152
4586.55634,0.42188
4584.62760,0.42249
4582.69885,0.42317
4580.77010,0.42357
4578.84136,0.42380
4576.91261,0.42420
4574.98387,0.42468
4573.05512,0.42502
4571.12638,0.42546
4569.19763,0.42634
4567.26889,0.42733
4565.34014,0.42783
4563.41140,0.42804
4561.48265,0.42830
4559.55391,0.42852
4557.62516,0.42889
4555.69642,0.42972
4553.76767,0.43066
4551.83893,0.43147
4549.91018,0.43222
4547.98143,0.43273
4546.05269,0.43307
4544.12394,0.43340
4542.19520,0.43361
4540.26645,0.43369
4538.33771,0.43379
4536.40896,0.43385
4534.48022,0.43374
4532.55147,0.43360
4530.62273,0.43380
4528.69398,0.43422
4526.76524,0.43434
4524.83649,0.43420
4522.90775,0.43446
4520.97900,0.43541
4519.05025,0.43644
4517.12151,0.43715
4515.19276,0.43783
4513.26402,0.43881
4511.33527,0.43984
4509.40653,0.44040
4507.47778,0.44033
4505.54904,0.44006
4503.62029,0.44017
4501.69155,0.44068
4499.76280,0.44098
4497.83406,0.44081
4495.90531,0.44040
4493.97657,0.44001
4492.04782,0.43971
4490.11908,0.43940
4488.19033,0.43922
4486.26158,0.43940
4484.33284,0.43975
4482.40409,0.43989
4480.47535,0.43967
4478.54660,0.43911
4476.61786,0.43837
4474.68911,0.43759
4472.76037,0.43686
4470.83162,0.43632
4468.90288,0.43593
4466.97413,0.43536
4465.04539,0.43471
4463.11664,0.43408
4461.18790,0.43316
4459.25915,0.43226
4457.33041,0.43166
4455.40166,0.43084
4453.47291,0.42964
4451.54417,0.42851
4449.61542,0.42773
4447.68668,0.42696
4445.75793,0.42575
4443.82919,0.42435
4441.90044,0.42307
4439.97170,0.42184
4438.04295,0.42070
4436.11421,0.41965
4434.18546,0.41850
4432.25672,0.41728
4430.32797,0.41605
4428.39923,0.41476
4426.47048,0.41372
4424.54173,0.41287
4422.61299,0.41141
4420.68424,0.40937
4418.75550,0.40761
4416.82675,0.40630
4414.89801,0.40505
4412.96926,0.40365
4411.04052,0.40222
4409.11177,0.40108
4407.18303,0.40015
4405.25428,0.39919
4403.32554,0.39846
4401.39679,0.39809
4399.46805,0.39769
4397.53930,0.39714
4395.61056,0.39699
4393.68181,0.39775
4391.75306,0.39892
4389.82432,0.39966
4387.89557,0.39996
4385.96683,0.40011
4384.03808,0.40015
4382.10934,0.40026
4380.18059,0.40076
4378.25185,0.40167
4376.32310,0.40271
4374.39436,0.40353
4372.46561,0.40415
4370.53687,0.40472
4368.60812,0.40528
4366.67938,0.40568
4364.75063,0.40584
4362.82189,0.40590
4360.89314,0.40602
4358.96439,0.40612
4357.03565,0.40625
4355.10690,0.40641
4353.17816,0.40655
4351.24941,0.40658
4349.32067,0.40625
4347.39192,0.40546
4345.46318,0.40464
4343.53443,0.40425
4341.60569,0.40427
4339.67694,0.40427
4337.74820,0.40392
4335.81945,0.40318
4333.89071,0.40230
4331.96196,0.40162
4330.03321,0.40113
4328.10447,0.40053
4326.17572,0.39976
4324.24698,0.39903
4322.31823,0.39853
4320.38949,0.39817
4318.46074,0.39765
4316.53200,0.39701
4314.60325,0.39648
4312.67451,0.39608
4310.74576,0.39565
4308.81702,0.39493
4306.88827,0.39413
4304.95953,0.39364
4303.03078,0.39319
4301.10204,0.39258
4299.17329,0.39207
4297.24454,0.39155
4295.31580,0.39093
4293.38705,0.39054
4291.45831,0.39051
4289.52956,0.39043
4287.60082,0.38992
4285.67207,0.38912
4283.74333,0.38854
4281.81458,0.38838
4279.88584,0.38843
4277.95709,0.38859
4276.02835,0.38881
4274.09960,0.38900
4272.17086,0.38917
4270.24211,0.38924
4268.31336,0.38933
4266.38462,0.38957
4264.45587,0.38991
4262.52713,0.39036
4260.59838,0.39073
4258.66964,0.39101
4256.74089,0.39162
4254.81215,0.39219
4252.88340,0.39218
4250.95466,0.39215
4249.02591,0.39245
4247.09717,0.39274
4245.16842,0.39303
4243.23968,0.39338
4241.31093,0.39362
4239.38219,0.39369
4237.45344,0.39381
4235.52469,0.39406
4233.59595,0.39427
4231.66720,0.39455
4229.73846,0.39495
4227.80971,0.39526
4225.88097,0.39547
4223.95222,0.39573
4222.02348,0.39605
4220.09473,0.39611
4218.16599,0.39586
4216.23724,0.39578
4214.30850,0.39593
4212.37975,0.39592
4210.45101,0.39587
4208.52226,0.39633
4206.59352,0.39720
4204.66477,0.39751
4202.73602,0.39716
4200.80728,0.39711
4198.87853,0.39748
4196.94979,0.39764
4195.02104,0.39761
4193.09230,0.39766
4191.16355,0.39772
4189.23481,0.39778
4187.30606,0.39805
4185.37732,0.39873
4183.44857,0.39952
4181.51983,0.39972
4179.59108,0.39953
4177.66234,0.39971
4175.73359,0.40036
4173.80484,0.40101
4171.87610,0.40136
4169.94735,0.40147
4168.01861,0.40158
4166.08986,0.40179
4164.16112,0.40220
4162.23237,0.40285
4160.30363,0.40317
4158.37488,0.40287
4156.44614,0.40245
4154.51739,0.40205
4152.58865,0.40160
4150.65990,0.40127
4148.73116,0.40101
4146.80241,0.40084
4144.87367,0.40074
4142.94492,0.40041
4141.01617,0.39975
4139.08743,0.39902
4137.15868,0.39853
4135.22994,0.39828
4133.30119,0.39792
4131.37245,0.39735
4129.44370,0.39665
4127.51496,0.39572
4125.58621,0.39463
4123.65747,0.39372
4121.72872,0.39295
4119.79998,0.39198
4117.87123,0.39077
4115.94249,0.38955
4114.01374,0.38855
4112.08500,0.38770
4110.15625,0.38659
4108.22750,0.38521
4106.29876,0.38392
4104.37001,0.38267
4102.44127,0.38125
4100.51252,0.37977
4098.58378,0.37824
4096.65503,0.37644
4094.72629,0.37462
4092.79754,0.37324
4090.86880,0.37211
4088.94005,0.37087
4087.01131,0.36964
4085.08256,0.36837
4083.15382,0.36676
4081.22507,0.36498
4079.29632,0.36327
4077.36758,0.36145
4075.43883,0.35984
4073.51009,0.35867
4071.58134,0.35739
4069.65260,0.35590
4067.72385,0.35462
4065.79511,0.35337
4063.86636,0.35190
4061.93762,0.35023
4060.00887,0.34834
4058.08013,0.34636
4056.15138,0.34463
4054.22264,0.34315
4052.29389,0.34162
4050.36515,0.33994
4048.43640,0.33828
4046.50765,0.33678
4044.57891,0.33558
4042.65016,0.33453
4040.72142,0.33331
4038.79267,0.33188
4036.86393,0.33052
4034.93518,0.32949
4033.00644,0.32867
4031.07769,0.32788
4029.14895,0.32718
4027.22020,0.32650
4025.29146,0.32566
4023.36271,0.32496
4021.43397,0.32477
4019.50522,0.32483
4017.57648,0.32467
4015.64773,0.32455
4013.71898,0.32495
4011.79024,0.32554
4009.86149,0.32579
4007.93275,0.32587
4006.00400,0.32599
4004.07526,0.32615
4002.14651,0.32646
4000.21777,0.32685
3998.28902,0.32717
3996.36028,0.32759
3994.43153,0.32823
3992.50279,0.32890
3990.57404,0.32950
3988.64530,0.33009
3986.71655,0.33069
3984.78780,0.33132
3982.85906,0.33203
3980.93031,0.33271
3979.00157,0.33316
3977.07282,0.33333
3975.14408,0.33354
3973.21533,0.33404
3971.28659,0.33467
3969.35784,0.33518
3967.42910,0.33560
3965.50035,0.33611
3963.57161,0.33685
3961.64286,0.33765
3959.71412,0.33825
3957.78537,0.33883
3955.85663,0.33951
3953.92788,0.34027
3951.99913,0.34120
3950.07039,0.34231
3948.14164,0.34342
3946.21290,0.34428
3944.28415,0.34496
3942.35541,0.34574
3940.42666,0.34666
3938.49792,0.34752
3936.56917,0.34825
3934.64043,0.34889
3932.71168,0.34959
3930.78294,0.35041
3928.85419,0.35132
3926.92545,0.35237
3924.99670,0.35345
3923.06795,0.35429
3921.13921,0.35485
3919.21046,0.35531
3917.28172,0.35577
3915.35297,0.35627
3913.42423,0.35691
3911.49548,0.35774
3909.56674,0.35855
3907.63799,0.35905
3905.70925,0.35946
3903.78050,0.35986
3901.85176,0.36021
3899.92301,0.36083
3897.99427,0.36168
3896.06552,0.36250
3894.13678,0.36325
3892.20803,0.36391
3890.27928,0.36443
3888.35054,0.36502
3886.42179,0.36577
3884.49305,0.36636
3882.56430,0.36667
3880.63556,0.36688
3878.70681,0.36731
3876.77807,0.36802
3874.84932,0.36857
3872.92058,0.36883
3870.99183,0.36926
3869.06309,0.37003
3867.13434,0.37091
3865.20560,0.37190
3863.27685,0.37296
3861.34811,0.37394
3859.41936,0.37489
3857.49061,0.37586
3855.56187,0.37683
3853.63312,0.37747
3851.70438,0.37753
3849.77563,0.37772
3847.84689,0.37827
3845.91814,0.37893
3843.98940,0.37977
3842.06065,0.38075
3840.13191,0.38142
3838.20316,0.38166
3836.27442,0.38174
3834.34567,0.38190
3832.41693,0.38209
3830.48818,0.38229
3828.55943,0.38261
3826.63069,0.38282
3824.70194,0.38283
3822.77320,0.38275
3820.84445,0.38266
3818.91571,0.38290
3816.98696,0.38323
3815.05822,0.38305
3813.12947,0.38250
3811.20073,0.38208
3809.27198,0.38197
3807.34324,0.38206
3805.41449,0.38217
3803.48575,0.38220
3801.55700,0.38215
3799.62826,0.38206
3797.69951,0.38169
3795.77076,0.38110
3793.84202,0.38088
3791.91327,0.38096
3789.98453,0.38080
3788.05578,0.38051
3786.12704,0.38034
3784.19829,0.38028
3782.26955,0.38022
3780.34080,0.38002
3778.41206,0.37945
3776.48331,0.37859
3774.55457,0.37807
3772.62582,0.37797
3770.69708,0.37763
3768.76833,0.37681
3766.83959,0.37602
3764.91084,0.37563
3762.98209,0.37540
3761.05335,0.37468
3759.12460,0.37340
3757.19586,0.37256
3755.26711,0.37236
3753.33837,0.37208
3751.40962,0.37125
3749.48088,0.36975
3747.55213,0.36826
3745.62339,0.36708
3743.69464,0.36574
3741.76590,0.36428
3739.83715,0.36292
3737.90841,0.36147
3735.97966,0.35988
3734.05091,0.35815
3732.12217,0.35610
3730.19342,0.35383
3728.26468,0.35158
3726.33593,0.34908
3724.40719,0.34591
3722.47844,0.34225
3720.54970,0.33847
3718.62095,0.33459
3716.69221,0.33041
3714.76346,0.32577
3712.83472,0.32011
3710.90597,0.31312
3708.97723,0.30543
3707.04848,0.29737
3705.11974,0.28863
3703.19099,0.27880
3701.26224,0.26789
3699.33350,0.25733
3697.40475,0.24881
3695.47601,0.24347
3693.54726,0.24177
3691.61852,0.24306
3689.68977,0.24595
3687.76103,0.24884
3685.83228,0.25065
3683.90354,0.25151
3681.97479,0.25140
3680.04605,0.25021
3678.11730,0.24786
3676.18856,0.24359
3674.25981,0.23772
3672.33107,0.23181
3670.40232,0.22569
3668.47357,0.21988
3666.54483,0.21565
3664.61608,0.21226
3662.68734,0.20846
3660.75859,0.20390
3658.82985,0.19877
3656.90110,0.19303
3654.97236,0.18733
3653.04361,0.18303
3651.11487,0.17994
3649.18612,0.17697
3647.25738,0.17405
3645.32863,0.17169
3643.39989,0.16948
3641.47114,0.16679
3639.54239,0.16350
3637.61365,0.15985
3635.68490,0.15609
3633.75616,0.15229
3631.82741,0.14838
3629.89867,0.14372
3627.96992,0.13797
3626.04118,0.13228
3624.11243,0.12699
3622.18369,0.12209
3620.25494,0.11859
3618.32620,0.11715
3616.39745,0.11685
3614.46871,0.11643
3612.53996,0.11529
3610.61122,0.11329
3608.68247,0.11078
3606.75372,0.10833
3604.82498,0.10602
3602.89623,0.10355
3600.96749,0.10089
3599.03874,0.09844
3597.11000,0.09625
3595.18125,0.09389
3593.25251,0.09136
3591.32376,0.08934
3589.39502,0.08779
3587.46627,0.08588
3585.53753,0.08371
3583.60878,0.08190
3581.68004,0.08026
3579.75129,0.07852
3577.82254,0.07680
3575.89380,0.07503
3573.96505,0.07316
3572.03631,0.07153
3570.10756,0.07027
3568.17882,0.06912
3566.25007,0.06774
3564.32133,0.06604
3562.39258,0.06455
3560.46384,0.06380
3558.53509,0.06332
3556.60635,0.06233
3554.67760,0.06086
3552.74886,0.05930
3550.82011,0.05809
3548.89137,0.05715
3546.96262,0.05606
3545.03387,0.05512
3543.10513,0.05465
3541.17638,0.05414
3539.24764,0.05325
3537.31889,0.05231
3535.39015,0.05161
3533.46140,0.05089
3531.53266,0.05001
3529.60391,0.04917
3527.67517,0.04846
3525.74642,0.04802
3523.81768,0.04762
3521.88893,0.04686
3519.96019,0.04608
3518.03144,0.04563
3516.10270,0.04523
3514.17395,0.04459
3512.24520,0.04385
3510.31646,0.04331
3508.38771,0.04300
3506.45897,0.04283
3504.53022,0.04246
3502.60148,0.04176
3500.67273,0.04119
3498.74399,0.04099
3496.81524,0.04073
3494.88650,0.04008
3492.95775,0.03942
3491.02901,0.03922
3489.10026,0.03919
3487.17152,0.03882
3485.24277,0.03830
3483.31402,0.03794
3481.38528,0.03763
3479.45653,0.03739
3477.52779,0.03718
3475.59904,0.03702
3473.67030,0.03689
3471.74155,0.03655
3469.81281,0.03609
3467.88406,0.03584
3465.95532,0.03563
3464.02657,0.03521
3462.09783,0.03481
3460.16908,0.03468
3458.24034,0.03466
3456.31159,0.03448
3454.38285,0.03437
3452.45410,0.03464
3450.52535,0.03496
3448.59661,0.03485
3446.66786,0.03440
3444.73912,0.03386
3442.81037,0.03354
3440.88163,0.03362
3438.95288,0.03384
3437.02414,0.03392
3435.09539,0.03383
3433.16665,0.03351
3431.23790,0.03309
3429.30916,0.03295
3427.38041,0.03305
3425.45167,0.03302
3423.52292,0.03278
3421.59418,0.03250
3419.66543,0.03242
3417.73668,0.03248
3415.80794,0.03267
3413.87919,0.03297
3411.95045,0.03308
3410.02170,0.03301
3408.09296,0.03295
3406.16421,0.03279
3404.23547,0.03263
3402.30672,0.03264
3400.37798,0.03258
3398.44923,0.03240
3396.52049,0.03238
3394.59174,0.03257
3392.66300,0.03274
3390.73425,0.03275
3388.80550,0.03278
3386.87676,0.03277
3384.94801,0.03254
3383.01927,0.03220
3381.09052,0.03206
3379.16178,0.03212
3377.23303,0.03223
3375.30429,0.03246
3373.37554,0.03268
3371.44680,0.03273
3369.51805,0.03267
3367.58931,0.03248
3365.66056,0.03238
3363.73182,0.03270
3361.80307,0.03312
3359.87433,0.03325
3357.94558,0.03320
3356.01683,0.03303
3354.08809,0.03285
3352.15934,0.03268
3350.23060,0.03255
3348.30185,0.03264
3346.37311,0.03293
3344.44436,0.03322
3342.51562,0.03349
3340.58687,0.03364
3338.65813,0.03350
3336.72938,0.03338
3334.80064,0.03355
3332.87189,0.03383
3330.94315,0.03407
3329.01440,0.03445
3327.08566,0.03503
3325.15691,0.03550
3323.22816,0.03578
3321.29942,0.03610
3319.37067,0.03642
3317.44193,0.03677
3315.51318,0.03703
3313.58444,0.03683
3311.65569,0.03659
3309.72695,0.03690
3307.79820,0.03734
3305.86946,0.03742
3303.94071,0.03740
3302.01197,0.03755
3300.08322,0.03780
3298.15448,0.03807
3296.22573,0.03838
3294.29698,0.03860
3292.36824,0.03865
3290.43949,0.03877
3288.51075,0.03917
3286.58200,0.03964
3284.65326,0.04003
3282.72451,0.04028
3280.79577,0.04048
3278.86702,0.04077
3276.93828,0.04100
3275.00953,0.04110
3273.08079,0.04135
3271.15204,0.04181
3269.22330,0.04233
3267.29455,0.04272
3265.36581,0.04294
3263.43706,0.04333
3261.50831,0.04423
3259.57957,0.04521
3257.65082,0.04581
3255.72208,0.04642
3253.79333,0.04709
3251.86459,0.04749
3249.93584,0.04779
3248.00710,0.04814
3246.07835,0.04849
3244.14961,0.04900
3242.22086,0.04983
3240.29212,0.05067
3238.36337,0.05114
3236.43463,0.05153
3234.50588,0.05212
3232.57713,0.05273
3230.64839,0.05328
3228.71964,0.05384
3226.79090,0.05434
3224.86215,0.05471
3222.93341,0.05510
3221.00466,0.05557
3219.07592,0.05614
3217.14717,0.05680
3215.21843,0.05733
3213.28968,0.05781
3211.36094,0.05836
3209.43219,0.05887
3207.50345,0.05952
3205.57470,0.06043
3203.64596,0.06140
3201.71721,0.06219
3199.78846,0.06255
3197.85972,0.06265
3195.93097,0.06301
3194.00223,0.06373
3192.07348,0.06453
3190.14474,0.06523
3188.21599,0.06590
3186.28725,0.06654
3184.35850,0.06696
3182.42976,0.06721
3180.50101,0.06766
3178.57227,0.06834
3176.64352,0.06904
3174.71478,0.06978
3172.78603,0.07070
3170.85729,0.07157
3168.92854,0.07221
3166.99979,0.07282
3165.07105,0.07359
3163.14230,0.07442
3161.21356,0.07511
3159.28481,0.07557
3157.35607,0.07607
3155.42732,0.07687
3153.49858,0.07781
3151.56983,0.07865
3149.64109,0.07942
3147.71234,0.08011
3145.78360,0.08068
3143.85485,0.08139
3141.92611,0.08236
3139.99736,0.08311
3138.06861,0.08353
3136.13987,0.08404
3134.21112,0.08471
3132.28238,0.08538
3130.35363,0.08614
3128.42489,0.08691
3126.49614,0.08741
3124.56740,0.08785
3122.63865,0.08865
3120.70991,0.08965
3118.78116,0.09056
3116.85242,0.09126
3114.92367,0.09174
3112.99493,0.09233
3111.06618,0.09317
3109.13744,0.09395
3107.20869,0.09454
3105.27994,0.09521
3103.35120,0.09594
3101.42245,0.09643
3099.49371,0.09680
3097.56496,0.09726
3095.63622,0.09787
3093.70747,0.09864
3091.77873,0.09931
3089.84998,0.09979
3087.92124,0.10028
3085.99249,0.10065
3084.06375,0.10086
3082.13500,0.10127
3080.20626,0.10198
3078.27751,0.10272
3076.34877,0.10321
3074.42002,0.10355
3072.49127,0.10409
3070.56253,0.10476
3068.63378,0.10539
3066.70504,0.10599
3064.77629,0.10655
3062.84755,0.10713
3060.91880,0.10773
3058.99006,0.10811
3057.06131,0.10849
3055.13257,0.10921
3053.20382,0.11005
3051.27508,0.11060
3049.34633,0.11082
3047.41759,0.11107
3045.48884,0.11164
3043.56009,0.11235
3041.63135,0.11278
3039.70260,0.11296
3037.77386,0.11326
3035.84511,0.11375
3033.91637,0.11413
3031.98762,0.11434
3030.05888,0.11442
3028.13013,0.11442
3026.20139,0.11449
3024.27264,0.11467
3022.34390,0.11495
3020.41515,0.11533
3018.48641,0.11548
3016.55766,0.11510
3014.62892,0.11443
3012.70017,0.11396
3010.77142,0.11386
3008.84268,0.11364
3006.91393,0.11289
3004.98519,0.11190
3003.05644,0.11119
3001.12770,0.11084
2999.19895,0.11042
2997.27021,0.10963
2995.34146,0.10861
2993.41272,0.10774
2991.48397,0.10711
2989.55523,0.10627
2987.62648,0.10491
2985.69774,0.10326
2983.76899,0.10141
2981.84025,0.09916
2979.91150,0.09658
2977.98275,0.09390
2976.05401,0.09111
2974.12526,0.08798
2972.19652,0.08473
2970.26777,0.08206
2968.33903,0.08027
2966.41028,0.07905
2964.48154,0.07797
2962.55279,0.07689
2960.62405,0.07578
2958.69530,0.07457
2956.76656,0.07330
2954.83781,0.07206
2952.90907,0.07088
2950.98032,0.06964
2949.05157,0.06830
2947.12283,0.06695
2945.19408,0.06554
2943.26534,0.06437
2941.33659,0.06373
2939.40785,0.06345
2937.47910,0.06336
2935.55036,0.06330
2933.62161,0.06298
2931.69287,0.06246
2929.76412,0.06198
2927.83538,0.06161
2925.90663,0.06140
2923.97789,0.06135
2922.04914,0.06127
2920.12040,0.06099
2918.19165,0.06054
2916.26290,0.06000
2914.33416,0.05941
2912.40541,0.05884
2910.47667,0.05850
2908.54792,0.05845
2906.61918,0.05861
2904.69043,0.05883
2902.76169,0.05888
2900.83294,0.05890
2898.90420,0.05928
2896.97545,0.06013
2895.04671,0.06117
2893.11796,0.06209
2891.18922,0.06266
2889.26047,0.06294
2887.33172,0.06328
2885.40298,0.06394
2883.47423,0.06475
2881.54549,0.06536
2879.61674,0.06568
2877.68800,0.06591
2875.75925,0.06630
2873.83051,0.06685
2871.90176,0.06727
2869.97302,0.06755
2868.04427,0.06806
2866.11553,0.06887
2864.18678,0.06979
2862.25804,0.07068
2860.32929,0.07158
2858.40055,0.07261
2856.47180,0.07360
2854.54305,0.07454
2852.61431,0.07569
2850.68556,0.07726
2848.75682,0.07925
2846.82807,0.08134
2844.89933,0.08326
2842.97058,0.08520
2841.04184,0.08734
2839.11309,0.08965
2837.18435,0.09203
2835.25560,0.09440
2833.32686,0.09651
2831.39811,0.09839
2829.46937,0.10045
2827.54062,0.10272
2825.61188,0.10501
2823.68313,0.10738
2821.75438,0.10964
2819.82564,0.11158
2817.89689,0.11340
2815.96815,0.11518
2814.03940,0.11673
2812.11066,0.11824
2810.18191,0.12001
2808.25317,0.12193
2806.32442,0.12379
2804.39568,0.12533
2802.46693,0.12648
2800.53819,0.12756
2798.60944,0.12885
2796.68070,0.13023
2794.75195,0.13146
2792.82320,0.13236
2790.89446,0.13288
2788.96571,0.13329
2787.03697,0.13395
2785.10822,0.13483
2783.17948,0.13572
2781.25073,0.13637
2779.32199,0.13685
2777.39324,0.13739
2775.46450,0.13795
2773.53575,0.13845
2771.60701,0.13905
2769.67826,0.13973
2767.74952,0.14021
2765.82077,0.14060
2763.89203,0.14123
2761.96328,0.14193
2760.03453,0.14244
2758.10579,0.14281
2756.17704,0.14313
2754.24830,0.14345
2752.31955,0.14384
2750.39081,0.14418
2748.46206,0.14435
2746.53332,0.14434
2744.60457,0.14436
2742.67583,0.14455
2740.74708,0.14492
2738.81834,0.14551
2736.88959,0.14618
2734.96085,0.14666
2733.03210,0.14692
2731.10336,0.14705
2729.17461,0.14722
2727.24586,0.14767
2725.31712,0.14845
2723.38837,0.14941
2721.45963,0.15035
2719.53088,0.15120
2717.60214,0.15181
2715.67339,0.15225
2713.74465,0.15302
2711.81590,0.15433
2709.88716,0.15569
2707.95841,0.15676
2706.02967,0.15775
2704.10092,0.15871
2702.17218,0.15962
2700.24343,0.16057
2698.31468,0.16156
2696.38594,0.16250
2694.45719,0.16343
2692.52845,0.16438
2690.59970,0.16535
2688.67096,0.16635
2686.74221,0.16738
2684.81347,0.16835
2682.88472,0.16917
2680.95598,0.16990
2679.02723,0.17068
2677.09849,0.17147
2675.16974,0.17225
2673.24100,0.17306
2671.31225,0.17383
2669.38351,0.17457
2667.45476,0.17529
2665.52601,0.17594
2663.59727,0.17647
2661.66852,0.17691
2659.73978,0.17744
2657.81103,0.17804
2655.88229,0.17856
2653.95354,0.17918
2652.02480,0.17995
2650.09605,0.18066
2648.16731,0.18126
2646.23856,0.18189
2644.30982,0.18255
2642.38107,0.18322
2640.45233,0.18391
2638.52358,0.18461
2636.59484,0.18534
2634.66609,0.18608
2632.73734,0.18683
2630.80860,0.18768
2628.87985,0.18847
2626.95111,0.18903
2625.02236,0.18953
2623.09362,0.19015
2621.16487,0.19078
2619.23613,0.19135
2617.30738,0.19198
2615.37864,0.19265
2613.44989,0.19329
2611.52115,0.19402
2609.59240,0.19475
2607.66366,0.19527
2605.73491,0.19581
2603.80616,0.19657
2601.87742,0.19731
2599.94867,0.19782
2598.01993,0.19833
2596.09118,0.19892
2594.16244,0.19937
2592.23369,0.19975
2590.30495,0.20043
2588.37620,0.20120
2586.44746,0.20150
2584.51871,0.20147
2582.58997,0.20172
2580.66122,0.20233
2578.73248,0.20289
2576.80373,0.20321
2574.87499,0.20349
2572.94624,0.20383
2571.01749,0.20407
2569.08875,0.20404
2567.16000,0.20390
2565.23126,0.20388
2563.30251,0.20399
2561.37377,0.20401
2559.44502,0.20399
2557.51628,0.20408
2555.58753,0.20419
2553.65879,0.20423
2551.73004,0.20426
2549.80130,0.20438
2547.87255,0.20459
2545.94381,0.20463
2544.01506,0.20441
2542.08631,0.20426
2540.15757,0.20445
2538.22882,0.20477
2536.30008,0.20498
2534.37133,0.20513
2532.44259,0.20549
2530.51384,0.20601
2528.58510,0.20643
2526.65635,0.20666
2524.72761,0.20686
2522.79886,0.20716
2520.87012,0.20755
2518.94137,0.20798
2517.01263,0.20847
2515.08388,0.20898
2513.15514,0.20959
2511.22639,0.21050
2509.29764,0.21160
2507.36890,0.21274
2505.44015,0.21411
2503.51141,0.21569
2501.58266,0.21725
2499.65392,0.21860
2497.72517,0.21980
2495.79643,0.22110
2493.86768,0.22237
2491.93894,0.22340
2490.01019,0.22425
2488.08145,0.22512
2486.15270,0.22616
2484.22396,0.22735
2482.29521,0.22844
2480.36647,0.22941
2478.43772,0.23044
2476.50897,0.23146
2474.58023,0.23233
2472.65148,0.23323
2470.72274,0.23423
2468.79399,0.23500
2466.86525,0.23548
2464.93650,0.23593
2463.00776,0.23649
2461.07901,0.23713
2459.15027,0.23785
2457.22152,0.23872
2455.29278,0.23953
2453.36403,0.24014
2451.43529,0.24073
2449.50654,0.24143
2447.57779,0.24229
2445.64905,0.24332
2443.72030,0.24435
2441.79156,0.24526
2439.86281,0.24599
2437.93407,0.24666
2436.00532,0.24741
2434.07658,0.24816
2432.14783,0.24893
2430.21909,0.24983
2428.29034,0.25096
2426.36160,0.25231
2424.43285,0.25358
2422.50411,0.25446
2420.57536,0.25514
2418.64662,0.25595
2416.71787,0.25693
2414.78912,0.25788
2412.86038,0.25881
2410.93163,0.25980
2409.00289,0.26075
2407.07414,0.26143
2405.14540,0.26194
2403.21665,0.26251
2401.28791,0.26323
2399.35916,0.26412
2397.43042,0.26499
2395.50167,0.26560
2393.57293,0.26607
2391.64418,0.26666
2389.71544,0.26739
2387.78669,0.26824
2385.85795,0.26909
2383.92920,0.26980
2382.00045,0.27041
2380.07171,0.27101
2378.14296,0.27154
2376.21422,0.27204
2374.28547,0.27262
2372.35673,0.27322
2370.42798,0.27377
2368.49924,0.27426
2366.57049,0.27460
2364.64175,0.27476
2362.71300,0.27506
2360.78426,0.27549
2358.85551,0.27586
2356.92677,0.27626
2354.99802,0.27678
2353.06927,0.27733
2351.14053,0.27782
2349.21178,0.27831
2347.28304,0.27890
2345.35429,0.27960
2343.42555,0.28021
2341.49680,0.28065
2339.56806,0.28114
2337.63931,0.28171
2335.71057,0.28206
2333.78182,0.28217
2331.85308,0.28230
2329.92433,0.28256
2327.99559,0.28290
2326.06684,0.28315
2324.13810,0.28311
2322.20935,0.28296
2320.28060,0.28294
2318.35186,0.28316
2316.42311,0.28356
2314.49437,0.28387
2312.56562,0.28385
2310.63688,0.28370
2308.70813,0.28355
2306.77939,0.28322
2304.85064,0.28281
2302.92190,0.28250
2300.99315,0.28224
2299.06441,0.28189
2297.13566,0.28141
2295.20692,0.28103
2293.27817,0.28093
2291.34943,0.28086
2289.42068,0.28054
2287.49193,0.28003
2285.56319,0.27957
2283.63444,0.27920
2281.70570,0.27895
2279.77695,0.27871
2277.84821,0.27816
2275.91946,0.27726
2273.99072,0.27629
2272.06197,0.27552
2270.13323,0.27490
2268.20448,0.27421
2266.27574,0.27338
2264.34699,0.27239
2262.41825,0.27131
2260.48950,0.27043
2258.56075,0.26987
2256.63201,0.26950
2254.70326,0.26920
2252.77452,0.26892
2250.84577,0.26871
2248.91703,0.26859
2246.98828,0.26857
2245.05954,0.26876
2243.13079,0.26906
2241.20205,0.26905
2239.27330,0.26873
2237.34456,0.26835
2235.41581,0.26797
2233.48707,0.26770
2231.55832,0.26768
2229.62958,0.26786
2227.70083,0.26805
2225.77208,0.26808
2223.84334,0.26812
2221.91459,0.26835
2219.98585,0.26874
2218.05710,0.26905
2216.12836,0.26916
2214.19961,0.26919
2212.27087,0.26917
2210.34212,0.26912
2208.41338,0.26912
2206.48463,0.26908
2204.55589,0.26893
2202.62714,0.26865
2200.69840,0.26812
2198.76965,0.26758
2196.84090,0.26722
2194.91216,0.26683
2192.98341,0.26622
2191.05467,0.26549
2189.12592,0.26467
2187.19718,0.26372
2185.26843,0.26280
2183.33969,0.26198
2181.41094,0.26099
2179.48220,0.25972
2177.55345,0.25845
2175.62471,0.25735
2173.69596,0.25638
2171.76722,0.25542
2169.83847,0.25432
2167.90973,0.25315
2165.98098,0.25210
2164.05223,0.25129
2162.12349,0.25067
2160.19474,0.25003
2158.26600,0.24922
2156.33725,0.24832
2154.40851,0.24753
2152.47976,0.24702
2150.55102,0.24667
2148.62227,0.24619
2146.69353,0.24555
2144.76478,0.24498
2142.83604,0.24454
2140.90729,0.24410
2138.97855,0.24365
2137.04980,0.24337
2135.12106,0.24342
2133.19231,0.24364
2131.26356,0.24375
2129.33482,0.24376
2127.40607,0.24388
2125.47733,0.24421
2123.54858,0.24453
2121.61984,0.24475
2119.69109,0.24501
2117.76235,0.24527
2115.83360,0.24548
2113.90486,0.24565
2111.97611,0.24582
2110.04737,0.24608
2108.11862,0.24642
2106.18988,0.24684
2104.26113,0.24738
2102.33238,0.24790
2100.40364,0.24818
2098.47489,0.24827
2096.54615,0.24838
2094.61740,0.24855
2092.68866,0.24868
2090.75991,0.24875
2088.83117,0.24884
2086.90242,0.24902
2084.97368,0.24924
2083.04493,0.24927
2081.11619,0.24897
2079.18744,0.24844
2077.25870,0.24791
2075.32995,0.24738
2073.40121,0.24684
2071.47246,0.24640
2069.54371,0.24586
2067.61497,0.24521
2065.68622,0.24475
2063.75748,0.24456
2061.82873,0.24439
2059.89999,0.24415
2057.97124,0.24390
2056.04250,0.24370
2054.11375,0.24361
2052.18501,0.24364
2050.25626,0.24377
2048.32752,0.24394
2046.39877,0.24416
2044.47003,0.24442
2042.54128,0.24476
2040.61254,0.24528
2038.68379,0.24608
2036.75504,0.24703
2034.82630,0.24800
2032.89755,0.24912
2030.96881,0.25047
2029.04006,0.25173
2027.11132,0.25281
2025.18257,0.25402
2023.25383,0.25540
2021.32508,0.25667
2019.39634,0.25784
2017.46759,0.25904
2015.53885,0.26030
2013.61010,0.26151
2011.68136,0.26251
2009.75261,0.26328
2007.82386,0.26387
2005.89512,0.26439
2003.96637,0.26500
2002.03763,0.26559
2000.10888,0.26606
1998.18014,0.26651
1996.25139,0.26705
1994.32265,0.26765
1992.39390,0.26838
1990.46516,0.26931
1988.53641,0.27030
1986.60767,0.27111
1984.67892,0.27172
1982.75018,0.27217
1980.82143,0.27254
1978.89269,0.27296
1976.96394,0.27345
1975.03519,0.27404
1973.10645,0.27462
1971.17770,0.27496
1969.24896,0.27518
1967.32021,0.27548
1965.39147,0.27590
1963.46272,0.27637
1961.53398,0.27689
1959.60523,0.27746
1957.67649,0.27795
1955.74774,0.27844
1953.81900,0.27906
1951.89025,0.27969
1949.96151,0.28029
1948.03276,0.28098
1946.10402,0.28173
1944.17527,0.28245
1942.24652,0.28307
1940.31778,0.28364
1938.38903,0.28431
1936.46029,0.28504
1934.53154,0.28566
1932.60280,0.28613
1930.67405,0.28656
1928.74531,0.28709
1926.81656,0.28760
1924.88782,0.28791
1922.95907,0.28800
1921.03033,0.28803
1919.10158,0.28818
1917.17284,0.28839
1915.24409,0.28852
1913.31534,0.28851
1911.38660,0.28843
1909.45785,0.28839
1907.52911,0.28844
1905.60036,0.28851
1903.67162,0.28862
1901.74287,0.28864
1899.81413,0.28835
1897.88538,0.28787
1895.95664,0.28754
1894.02789,0.28734
1892.09915,0.28711
1890.17040,0.28684
1888.24166,0.28647
1886.31291,0.28597
1884.38417,0.28560
1882.45542,0.28545
1880.52667,0.28526
1878.59793,0.28498
1876.66918,0.28462
1874.74044,0.28423
1872.81169,0.28389
1870.88295,0.28345
1868.95420,0.28287
1867.02546,0.28243
1865.09671,0.28207
1863.16797,0.28150
1861.23922,0.28078
1859.31048,0.28008
1857.38173,0.27937
1855.45299,0.27862
1853.52424,0.27793
1851.59549,0.27725
1849.66675,0.27645
1847.73800,0.27554
1845.80926,0.27457
1843.88051,0.27357
1841.95177,0.27268
1840.02302,0.27196
1838.09428,0.27122
1836.16553,0.27031
1834.23679,0.26932
1832.30804,0.26835
1830.37930,0.26735
1828.45055,0.26627
1826.52181,0.26523
1824.59306,0.26406
1822.66432,0.26265
1820.73557,0.26139
1818.80682,0.26043
1816.87808,0.25948
1814.94933,0.25831
1813.02059,0.25701
1811.09184,0.25560
1809.16310,0.25402
1807.23435,0.25228
1805.30561,0.25031
1803.37686,0.24779
1801.44812,0.24452
1799.51937,0.24115
1797.59063,0.23854
1795.66188,0.23666
1793.73314,0.23497
1791.80439,0.23330
1789.87565,0.23196
1787.94690,0.23076
1786.01815,0.22915
1784.08941,0.22694
1782.16066,0.22425
1780.23192,0.22102
1778.30317,0.21734
1776.37443,0.21351
1774.44568,0.20932
1772.51694,0.20398
1770.58819,0.19773
1768.65945,0.19137
1766.73070,0.18477
1764.80196,0.17793
1762.87321,0.17057
1760.94447,0.16265
1759.01572,0.15514
1757.08697,0.14816
1755.15823,0.14183
1753.22948,0.13633
1751.30074,0.13125
1749.37199,0.12671
1747.44325,0.12306
1745.51450,0.12017
1743.58576,0.11806
1741.65701,0.11673
1739.72827,0.11592
1737.79952,0.11549
1735.87078,0.11537
1733.94203,0.11550
1732.01329,0.11602
1730.08454,0.11695
1728.15580,0.11818
1726.22705,0.11955
1724.29830,0.12115
1722.36956,0.12313
1720.44081,0.12536
1718.51207,0.12792
1716.58332,0.13084
1714.65458,0.13365
1712.72583,0.13614
1710.79709,0.13850
1708.86834,0.14077
1706.93960,0.14288
1705.01085,0.14465
1703.08211,0.14604
1701.15336,0.14694
1699.22462,0.14705
1697.29587,0.14663
1695.36713,0.14589
1693.43838,0.14468
1691.50963,0.14319
1689.58089,0.14155
1687.65214,0.13983
1685.72340,0.13770
1683.79465,0.13468
1681.86591,0.13149
1679.93716,0.12846
1678.00842,0.12526
1676.07967,0.12185
1674.15093,0.11845
1672.22218,0.11539
1670.29344,0.11236
1668.36469,0.10939
1666.43595,0.10721
1664.50720,0.10566
1662.57845,0.10435
1660.64971,0.10355
1658.72096,0.10341
1656.79222,0.10366
1654.86347,0.10405
1652.93473,0.10441
1651.00598,0.10464
1649.07724,0.10489
1647.14849,0.10490
1645.21975,0.10438
1643.29100,0.10383
1641.36226,0.10356
1639.43351,0.10357
1637.50477,0.10379
1635.57602,0.10388
1633.64728,0.10369
1631.71853,0.10368
1629.78978,0.10404
1627.86104,0.10432
1625.93229,0.10417
1624.00355,0.10368
1622.07480,0.10307
1620.14606,0.10253
1618.21731,0.10194
1616.28857,0.10093
1614.35982,0.09959
1612.43108,0.09830
1610.50233,0.09710
1608.57359,0.09592
1606.64484,0.09487
1604.71610,0.09428
1602.78735,0.09428
1600.85861,0.09468
1598.92986,0.09503
1597.00111,0.09510
1595.07237,0.09515
1593.14362,0.09548
1591.21488,0.09625
1589.28613,0.09760
1587.35739,0.09963
1585.42864,0.10224
1583.49990,0.10520
1581.57115,0.10852
1579.64241,0.11231
1577.71366,0.11686
1575.78492,0.12225
1573.85617,0.12713
1571.92743,0.13107
1569.99868,0.13469
1568.06993,0.13780
1566.14119,0.14008
1564.21244,0.14174
1562.28370,0.14289
1560.35495,0.14354
1558.42621,0.14351
1556.49746,0.14300
1554.56872,0.14232
1552.63997,0.14133
1550.71123,0.14001
1548.78248,0.13837
1546.85374,0.13652
1544.92499,0.13456
1542.99625,0.13242
1541.06750,0.12958
1539.13876,0.12568
1537.21001,0.12195
1535.28126,0.11846
1533.35252,0.11424
1531.42377,0.10942
1529.49503,0.10433
1527.56628,0.09858
1525.63754,0.09224
1523.70879,0.08569
1521.78005,0.07865
1519.85130,0.07190
1517.92256,0.06654
1515.99381,0.06244
1514.06507,0.05965
1512.13632,0.05809
1510.20758,0.05747
1508.27883,0.05742
1506.35008,0.05772
1504.42134,0.05852
1502.49259,0.05964
1500.56385,0.06070
1498.63510,0.06151
1496.70636,0.06191
1494.77761,0.06170
1492.84887,0.06109
1490.92012,0.06015
1488.99138,0.05874
1487.06263,0.05710
1485.13389,0.05552
1483.20514,0.05389
1481.27640,0.05216
1479.34765,0.05060
1477.41891,0.04921
1475.49016,0.04778
1473.56141,0.04622
1471.63267,0.04470
1469.70392,0.04345
1467.77518,0.04241
1465.84643,0.04146
1463.91769,0.04065
1461.98894,0.04023
1460.06020,0.04019
1458.13145,0.04012
1456.20271,0.03975
1454.27396,0.03928
1452.34522,0.03890
1450.41647,0.03867
1448.48773,0.03857
1446.55898,0.03848
1444.63024,0.03827
1442.70149,0.03797
1440.77274,0.03753
1438.84400,0.03695
1436.91525,0.03628
1434.98651,0.03565
1433.05776,0.03529
1431.12902,0.03512
1429.20027,0.03515
1427.27153,0.03559
1425.34278,0.03616
1423.41404,0.03656
1421.48529,0.03710
1419.55655,0.03795
1417.62780,0.03879
1415.69906,0.03947
1413.77031,0.04007
1411.84156,0.04058
1409.91282,0.04085
1407.98407,0.04081
1406.05533,0.04074
1404.12658,0.04090
1402.19784,0.04116
1400.26909,0.04129
1398.34035,0.04130
1396.41160,0.04125
1394.48286,0.04112
1392.55411,0.04091
1390.62537,0.04063
1388.69662,0.04014
1386.76788,0.03948
1384.83913,0.03897
1382.91039,0.03856
1380.98164,0.03801
1379.05289,0.03747
1377.12415,0.03724
1375.19540,0.03721
1373.26666,0.03720
1371.33791,0.03733
1369.40917,0.03774
1367.48042,0.03830
1365.55168,0.03874
1363.62293,0.03907
1361.69419,0.03951
1359.76544,0.03999
1357.83670,0.04036
1355.90795,0.04056
1353.97921,0.04066
1352.05046,0.04085
1350.12172,0.04105
1348.19297,0.04103
1346.26422,0.04082
1344.33548,0.04055
1342.40673,0.04036
1340.47799,0.04028
1338.54924,0.04021
1336.62050,0.04015
1334.69175,0.04035
1332.76301,0.04087
1330.83426,0.04129
1328.90552,0.04138
1326.97677,0.04125
1325.04803,0.04110
1323.11928,0.04104
1321.19054,0.04105
1319.26179,0.04112
1317.33304,0.04132
1315.40430,0.04172
1313.47555,0.04242
1311.54681,0.04338
1309.61806,0.04441
1307.68932,0.04542
1305.76057,0.04633
1303.83183,0.04699
1301.90308,0.04718
1299.97434,0.04708
1298.04559,0.04697
1296.11685,0.04674
1294.18810,0.04622
1292.25936,0.04556
1290.33061,0.04486
1288.40187,0.04406
1286.47312,0.04312
1284.54437,0.04218
1282.61563,0.04154
1280.68688,0.04139
1278.75814,0.04143
1276.82939,0.04132
1274.90065,0.04108
1272.97190,0.04097
1271.04316,0.04098
1269.11441,0.04094
1267.18567,0.04092
1265.25692,0.04107
1263.32818,0.04137
1261.39943,0.04173
1259.47069,0.04225
1257.54194,0.04290
1255.61320,0.04331
1253.68445,0.04336
1251.75570,0.04327
1249.82696,0.04324
1247.89821,0.04333
1245.96947,0.04343
1244.04072,0.04339
1242.11198,0.04331
1240.18323,0.04339
1238.25449,0.04342
1236.32574,0.04312
1234.39700,0.04275
1232.46825,0.04273
1230.53951,0.04310
1228.61076,0.04358
1226.68202,0.04392
1224.75327,0.04401
1222.82452,0.04405
1220.89578,0.04422
1218.96703,0.04444
1217.03829,0.04445
1215.10954,0.04408
1213.18080,0.04346
1211.25205,0.04281
1209.32331,0.04239
1207.39456,0.04223
1205.46582,0.04219
1203.53707,0.04240
1201.60833,0.04285
1199.67958,0.04321
1197.75084,0.04328
1195.82209,0.04323
1193.89335,0.04312
1191.96460,0.04252
1190.03585,0.04138
1188.10711,0.04018
1186.17836,0.03893
1184.24962,0.03743
1182.32087,0.03572
1180.39213,0.03401
1178.46338,0.03252
1176.53464,0.03129
1174.60589,0.03020
1172.67715,0.02940
1170.74840,0.02916
1168.81966,0.02942
1166.89091,0.03004
1164.96217,0.03091
1163.03342,0.03177
1161.10467,0.03238
1159.17593,0.03269
1157.24718,0.03287
1155.31844,0.03302
1153.38969,0.03300
1151.46095,0.03274
1149.53220,0.03246
1147.60346,0.03220
1145.67471,0.03197
1143.74597,0.03181
1141.81722,0.03165
1139.88848,0.03126
1137.95973,0.03068
1136.03099,0.03016
1134.10224,0.02957
1132.17350,0.02873
1130.24475,0.02807
1128.31600,0.02813
1126.38726,0.02849
1124.45851,0.02840
1122.52977,0.02804
1120.60102,0.02811
1118.67228,0.02883
1116.74353,0.02958
1114.81479,0.02990
1112.88604,0.03016
1110.95730,0.03063
1109.02855,0.03087
1107.09981,0.03083
1105.17106,0.03107
1103.24232,0.03156
1101.31357,0.03164
1099.38483,0.03121
1097.45608,0.03069
1095.52733,0.03032
1093.59859,0.03022
1091.66984,0.03037
1089.74110,0.03047
1087.81235,0.03034
1085.88361,0.03024
1083.95486,0.03033
1082.02612,0.03050
1080.09737,0.03102
1078.16863,0.03196
1076.23988,0.03274
1074.31114,0.03330
1072.38239,0.03393
1070.45365,0.03472
1068.52490,0.03565
1066.59615,0.03684
1064.66741,0.03846
1062.73866,0.04033
1060.80992,0.04204
1058.88117,0.04325
1056.95243,0.04377
1055.02368,0.04377
1053.09494,0.04344
1051.16619,0.04289
1049.23745,0.04245
1047.30870,0.04228
1045.37996,0.04211
1043.45121,0.04194
1041.52247,0.04221
1039.59372,0.04315
1037.66498,0.04439
1035.73623,0.04527
1033.80748,0.04587
1031.87874,0.04672
1029.94999,0.04753
1028.02125,0.04794
1026.09250,0.04815
1024.16376,0.04836
1022.23501,0.04858
1020.30627,0.04880
1018.37752,0.04902
1016.44878,0.04937
1014.52003,0.05008
1012.59129,0.05105
1010.66254,0.05199
1008.73380,0.05284
1006.80505,0.05359
1004.87631,0.05407
1002.94756,0.05438
1001.01881,0.05500
999.09007,0.05610
997.16132,0.05724
995.23258,0.05823
993.30383,0.05932
991.37509,0.06059
989.44634,0.06188
987.51760,0.06318
985.58885,0.06507
983.66011,0.06780
981.73136,0.07074
979.80262,0.07321
977.87387,0.07503
975.94513,0.07647
974.01638,0.07785
972.08763,0.07916
970.15889,0.08045
968.23014,0.08186
966.30140,0.08344
964.37265,0.08524
962.44391,0.08726
960.51516,0.08941
958.58642,0.09160
956.65767,0.09391
954.72893,0.09623
952.80018,0.09827
950.87144,0.09991
948.94269,0.10106
947.01395,0.10185
945.08520,0.10251
943.15646,0.10312
941.22771,0.10369
939.29896,0.10428
937.37022,0.10497
935.44147,0.10595
933.51273,0.10702
931.58398,0.10764
929.65524,0.10767
927.72649,0.10742
925.79775,0.10723
923.86900,0.10705
921.94026,0.10646
920.01151,0.10535
918.08277,0.10388
916.15402,0.10203
914.22528,0.10016
912.29653,0.09874
910.36779,0.09766
908.43904,0.09662
906.51029,0.09553
904.58155,0.09436
902.65280,0.09313
900.72406,0.09186
898.79531,0.09097
896.86657,0.09131
894.93782,0.09298
893.00908,0.09536
891.08033,0.09815
889.15159,0.10104
887.22284,0.10345
885.29410,0.10498
883.36535,0.10550
881.43661,0.10534
879.50786,0.10494
877.57911,0.10461
875.65037,0.10498
873.72162,0.10642
871.79288,0.10865
869.86413,0.11130
867.93539,0.11385
866.00664,0.11559
864.07790,0.11645
862.14915,0.11709
860.22041,0.11756
858.29166,0.11741
856.36292,0.11716
854.43417,0.11772
852.50543,0.11897
850.57668,0.12019
848.64794,0.12112
846.71919,0.12202
844.79044,0.12301
842.86170,0.12358
840.93295,0.12326
839.00421,0.12235
837.07546,0.12136
835.14672,0.12015
833.21797,0.11875
831.28923,0.11751
829.36048,0.11612
827.43174,0.11420
825.50299,0.11205
823.57425,0.11006
821.64550,0.10805
819.71676,0.10573
817.78801,0.10337
815.85926,0.10176
813.93052,0.10105
812.00177,0.10060
810.07303,0.10035
808.14428,0.10043
806.21554,0.10009
804.28679,0.09909
802.35805,0.09850
800.42930,0.09883
798.50056,0.09932
796.57181,0.09941
794.64307,0.09930
792.71432,0.09899
790.78558,0.09829
788.85683,0.09738
786.92809,0.09649
784.99934,0.09572
783.07059,0.09530
781.14185,0.09527
779.21310,0.09513
777.28436,0.09443
775.35561,0.09330
773.42687,0.09210
771.49812,0.09094
769.56938,0.08977
767.64063,0.08860
765.71189,0.08766
763.78314,0.08682
761.85440,0.08576
759.92565,0.08469
757.99691,0.08391
756.06816,0.08335
754.13942,0.08293
752.21067,0.08245
750.28192,0.08159
748.35318,0.08051
746.42443,0.07954
744.49569,0.07857
742.56694,0.07733
740.63820,0.07610
738.70945,0.07514
736.78071,0.07411
734.85196,0.07266
732.92322,0.07101
730.99447,0.06949
729.06573,0.06798
727.13698,0.06650
725.20824,0.06522
723.27949,0.06394
721.35074,0.06260
719.42200,0.06136
717.49325,0.06014
715.56451,0.05898
713.63576,0.05814
711.70702,0.05756
709.77827,0.05712
707.84953,0.05677
705.92078,0.05642
703.99204,0.05613
702.06329,0.05558
700.13455,0.05454
698.20580,0.05367
696.27706,0.05364
694.34831,0.05400
692.41957,0.05385
690.49082,0.05329
688.56207,0.05313
686.63333,0.05341
684.70458,0.05358
682.77584,0.05313
680.84709,0.05167
678.91835,0.04980
676.98960,0.04859
675.06086,0.04799
673.13211,0.04735
671.20337,0.04655
669.27462,0.04588
667.34588,0.04562
665.41713,0.04600
663.48839,0.04693
661.55964,0.04787
659.63090,0.04839
657.70215,0.04847
655.77340,0.04833
653.84466,0.04849
651.91591,0.04917
649.98717,0.04979
648.05842,0.04959
646.12968,0.04861
644.20093,0.04774
642.27219,0.04730
640.34344,0.04687
638.41470,0.04654
636.48595,0.04668
634.55721,0.04671
632.62846,0.04570
630.69972,0.04394
628.77097,0.04279
626.84222,0.04286
624.91348,0.04345
622.98473,0.04356
621.05599,0.04345
619.12724,0.04394
617.19850,0.04481
615.26975,0.04548
613.34101,0.04556
611.41226,0.04481
609.48352,0.04395
607.55477,0.04406
605.62603,0.04482
603.69728,0.04536
601.76854,0.04597
599.83979,0.04678
