7497.03301,0.53365
7495.10426,0.53061
7493.17552,0.52535
7491.24677,0.52340
7489.31803,0.52629
7487.38928,0.52910
7485.46054,0.52764
7483.53179,0.52271
7481.60305,0.52017
7479.67430,0.52317
7477.74556,0.52796
7475.81681,0.53080
7473.88807,0.52993
7471.95932,0.52444
7470.03057,0.51772
7468.10183,0.51628
7466.17308,0.51932
7464.24434,0.51996
7462.31559,0.51939
7460.38685,0.52274
7458.45810,0.52741
7456.52936,0.52836
7454.60061,0.52560
7452.67187,0.52138
7450.74312,0.51771
7448.81438,0.51768
7446.88563,0.52168
7444.95689,0.52693
7443.02814,0.53104
7441.09940,0.53205
7439.17065,0.52965
7437.24190,0.52566
7435.31316,0.52218
7433.38441,0.51997
7431.45567,0.51974
7429.52692,0.52132
7427.59818,0.52242
7425.66943,0.52281
7423.74069,0.52190
7421.81194,0.52119
7419.88320,0.52563
7417.95445,0.52968
7416.02571,0.52532
7414.09696,0.51888
7412.16822,0.51744
7410.23947,0.51858
7408.31073,0.51979
7406.38198,0.52107
7404.45323,0.52064
7402.52449,0.51889
7400.59574,0.51900
7398.66700,0.51903
7396.73825,0.51532
7394.80951,0.51100
7392.88076,0.51149
7390.95202,0.51623
7389.02327,0.52099
7387.09453,0.52548
7385.16578,0.52990
7383.23704,0.52922
7381.30829,0.52166
7379.37955,0.51487
7377.45080,0.51579
7375.52205,0.51916
7373.59331,0.51713
7371.66456,0.51380
7369.73582,0.51284
7367.80707,0.51230
7365.87833,0.51396
7363.94958,0.51759
7362.02084,0.51990
7360.09209,0.52000
7358.16335,0.51676
7356.23460,0.51210
7354.30586,0.51368
7352.37711,0.52101
7350.44837,0.52508
7348.51962,0.52527
7346.59088,0.52487
7344.66213,0.52335
7342.73338,0.52000
7340.80464,0.51448
7338.87589,0.50990
7336.94715,0.51067
7335.01840,0.51540
7333.08966,0.51737
7331.16091,0.51393
7329.23217,0.51146
7327.30342,0.51288
7325.37468,0.51365
7323.44593,0.51259
7321.51719,0.51336
7319.58844,0.51855
7317.65970,0.52322
7315.73095,0.52107
7313.80221,0.51750
7311.87346,0.51784
7309.94471,0.51841
7308.01597,0.51875
7306.08722,0.51949
7304.15848,0.51915
7302.22973,0.52093
7300.30099,0.52470
7298.37224,0.52728
7296.44350,0.53079
7294.51475,0.53358
7292.58601,0.53070
7290.65726,0.52526
7288.72852,0.52102
7286.79977,0.51787
7284.87103,0.51721
7282.94228,0.51882
7281.01353,0.52015
7279.08479,0.52102
7277.15604,0.52276
7275.22730,0.52356
7273.29855,0.52059
7271.36981,0.51788
7269.44106,0.51973
7267.51232,0.52274
7265.58357,0.52481
7263.65483,0.52656
7261.72608,0.52612
7259.79734,0.52224
7257.86859,0.51560
7255.93985,0.51097
7254.01110,0.51346
7252.08236,0.51953
7250.15361,0.52283
7248.22486,0.52322
7246.29612,0.52386
7244.36737,0.52513
7242.43863,0.52576
7240.50988,0.52694
7238.58114,0.52676
7236.65239,0.52243
7234.72365,0.51905
7232.79490,0.52064
7230.86616,0.52517
7228.93741,0.52922
7227.00867,0.52920
7225.07992,0.52510
7223.15118,0.51956
7221.22243,0.51693
7219.29369,0.52018
7217.36494,0.52402
7215.43619,0.52518
7213.50745,0.52765
7211.57870,0.52995
7209.64996,0.52809
7207.72121,0.52488
7205.79247,0.52172
7203.86372,0.51671
7201.93498,0.51361
7200.00623,0.51610
7198.07749,0.52155
7196.14874,0.52572
7194.22000,0.52604
7192.29125,0.52338
7190.36251,0.52052
7188.43376,0.51922
7186.50501,0.51905
7184.57627,0.51947
7182.64752,0.52260
7180.71878,0.52805
7178.79003,0.53005
7176.86129,0.52627
7174.93254,0.52186
7173.00380,0.52098
7171.07505,0.52275
7169.14631,0.52395
7167.21756,0.52182
7165.28882,0.51847
7163.36007,0.51743
7161.43133,0.51840
7159.50258,0.51915
7157.57384,0.51808
7155.64509,0.51687
7153.71634,0.51677
7151.78760,0.51566
7149.85885,0.51406
7147.93011,0.51352
7146.00136,0.51243
7144.07262,0.51139
7142.14387,0.51308
7140.21513,0.51652
7138.28638,0.51941
7136.35764,0.52151
7134.42889,0.52272
7132.50015,0.52172
7130.57140,0.51867
7128.64266,0.51675
7126.71391,0.51732
7124.78516,0.51791
7122.85642,0.51680
7120.92767,0.51512
7118.99893,0.51387
7117.07018,0.51179
7115.14144,0.50806
7113.21269,0.50594
7111.28395,0.50856
7109.35520,0.51316
7107.42646,0.51491
7105.49771,0.51316
7103.56897,0.51113
7101.64022,0.51036
7099.71148,0.50955
7097.78273,0.50930
7095.85399,0.51109
7093.92524,0.51313
7091.99649,0.51305
7090.06775,0.51253
7088.13900,0.51333
7086.21026,0.51286
7084.28151,0.50937
7082.35277,0.50545
7080.42402,0.50320
7078.49528,0.50090
7076.56653,0.49936
7074.63779,0.50243
7072.70904,0.50633
7070.78030,0.50578
7068.85155,0.50402
7066.92281,0.50379
7064.99406,0.50359
7063.06532,0.50388
7061.13657,0.50501
7059.20782,0.50510
7057.27908,0.50460
7055.35033,0.50506
7053.42159,0.50464
7051.49284,0.50123
7049.56410,0.49670
7047.63535,0.49476
7045.70661,0.49548
7043.77786,0.49731
7041.84912,0.50157
7039.92037,0.50642
7037.99163,0.50659
7036.06288,0.50308
7034.13414,0.50102
7032.20539,0.50196
7030.27664,0.50431
7028.34790,0.50608
7026.41915,0.50626
7024.49041,0.50445
7022.56166,0.50064
7020.63292,0.49763
7018.70417,0.49799
7016.77543,0.49756
7014.84668,0.49340
7012.91794,0.49149
7010.98919,0.49373
7009.06045,0.49406
7007.13170,0.49172
7005.20296,0.49047
7003.27421,0.48994
7001.34547,0.48866
6999.41672,0.48804
6997.48797,0.48923
6995.55923,0.49106
6993.63048,0.49140
6991.70174,0.49035
6989.77299,0.49032
6987.84425,0.49150
6985.91550,0.49218
6983.98676,0.49171
6982.05801,0.49142
6980.12927,0.49253
6978.20052,0.49261
6976.27178,0.49066
6974.34303,0.49090
6972.41429,0.49379
6970.48554,0.49350
6968.55680,0.49006
6966.62805,0.48992
6964.69930,0.49271
6962.77056,0.49371
6960.84181,0.49358
6958.91307,0.49431
6956.98432,0.49546
6955.05558,0.49476
6953.12683,0.49108
6951.19809,0.48837
6949.26934,0.48819
6947.34060,0.48651
6945.41185,0.48419
6943.48311,0.48547
6941.55436,0.48879
6939.62562,0.49101
6937.69687,0.49140
6935.76812,0.49020
6933.83938,0.48821
6931.91063,0.48669
6929.98189,0.48793
6928.05314,0.49106
6926.12440,0.49295
6924.19565,0.49416
6922.26691,0.49386
6920.33816,0.49070
6918.40942,0.48829
6916.48067,0.48801
6914.55193,0.48647
6912.62318,0.48349
6910.69444,0.48351
6908.76569,0.48724
6906.83695,0.48980
6904.90820,0.48948
6902.97945,0.48886
6901.05071,0.48858
6899.12196,0.48771
6897.19322,0.48643
6895.26447,0.48524
6893.33573,0.48474
6891.40698,0.48589
6889.47824,0.48794
6887.54949,0.48839
6885.62075,0.48723
6883.69200,0.48657
6881.76326,0.48632
6879.83451,0.48604
6877.90577,0.48711
6875.97702,0.48948
6874.04828,0.49125
6872.11953,0.49103
6870.19078,0.48757
6868.26204,0.48253
6866.33329,0.48077
6864.40455,0.48244
6862.47580,0.48390
6860.54706,0.48468
6858.61831,0.48552
6856.68957,0.48651
6854.76082,0.48726
6852.83208,0.48759
6850.90333,0.48872
6848.97459,0.49028
6847.04584,0.49014
6845.11710,0.48869
6843.18835,0.48822
6841.25960,0.48855
6839.33086,0.48839
6837.40211,0.48837
6835.47337,0.48844
6833.54462,0.48787
6831.61588,0.48837
6829.68713,0.49025
6827.75839,0.48988
6825.82964,0.48746
6823.90090,0.48594
6821.97215,0.48344
6820.04341,0.48066
6818.11466,0.48241
6816.18592,0.48650
6814.25717,0.48765
6812.32843,0.48673
6810.39968,0.48618
6808.47093,0.48573
6806.54219,0.48425
6804.61344,0.48251
6802.68470,0.48323
6800.75595,0.48490
6798.82721,0.48452
6796.89846,0.48396
6794.96972,0.48419
6793.04097,0.48473
6791.11223,0.48562
6789.18348,0.48524
6787.25474,0.48448
6785.32599,0.48550
6783.39725,0.48718
6781.46850,0.48866
6779.53975,0.48951
6777.61101,0.48825
6775.68226,0.48521
6773.75352,0.48212
6771.82477,0.48087
6769.89603,0.48281
6767.96728,0.48516
6766.03854,0.48461
6764.10979,0.48387
6762.18105,0.48528
6760.25230,0.48555
6758.32356,0.48420
6756.39481,0.48439
6754.46607,0.48564
6752.53732,0.48626
6750.60858,0.48619
6748.67983,0.48594
6746.75108,0.48702
6744.82234,0.48836
6742.89359,0.48663
6740.96485,0.48246
6739.03610,0.47993
6737.10736,0.48185
6735.17861,0.48516
6733.24987,0.48437
6731.32112,0.48197
6729.39238,0.48160
6727.46363,0.48086
6725.53489,0.48086
6723.60614,0.48466
6721.67740,0.48856
6719.74865,0.48826
6717.81991,0.48665
6715.89116,0.48707
6713.96241,0.48733
6712.03367,0.48580
6710.10492,0.48393
6708.17618,0.48354
6706.24743,0.48513
6704.31869,0.48713
6702.38994,0.48827
6700.46120,0.48888
6698.53245,0.48964
6696.60371,0.48945
6694.67496,0.48657
6692.74622,0.48319
6690.81747,0.48333
6688.88873,0.48550
6686.95998,0.48573
6685.03123,0.48563
6683.10249,0.48764
6681.17374,0.48913
6679.24500,0.48782
6677.31625,0.48526
6675.38751,0.48373
6673.45876,0.48372
6671.53002,0.48452
6669.60127,0.48598
6667.67253,0.48813
6665.74378,0.48934
6663.81504,0.48835
6661.88629,0.48666
6659.95755,0.48615
6658.02880,0.48754
6656.10006,0.48912
6654.17131,0.48800
6652.24256,0.48555
6650.31382,0.48500
6648.38507,0.48606
6646.45633,0.48789
6644.52758,0.48977
6642.59884,0.48975
6640.67009,0.48824
6638.74135,0.48639
6636.81260,0.48443
6634.88386,0.48451
6632.95511,0.48710
6631.02637,0.48961
6629.09762,0.49090
6627.16888,0.49100
6625.24013,0.48996
6623.31139,0.48939
6621.38264,0.48965
6619.45389,0.48869
6617.52515,0.48752
6615.59640,0.48839
6613.66766,0.48985
6611.73891,0.49053
6609.81017,0.49096
6607.88142,0.49135
6605.95268,0.49220
6604.02393,0.49297
6602.09519,0.49226
6600.16644,0.49087
6598.23770,0.49001
6596.30895,0.48990
6594.38021,0.49024
6592.45146,0.48996
6590.52271,0.49024
6588.59397,0.49208
6586.66522,0.49245
6584.73648,0.49030
6582.80773,0.48866
6580.87899,0.48827
6578.95024,0.48765
6577.02150,0.48755
6575.09275,0.48860
6573.16401,0.48957
6571.23526,0.48944
6569.30652,0.48804
6567.37777,0.48592
6565.44903,0.48418
6563.52028,0.48446
6561.59154,0.48701
6559.66279,0.48949
6557.73404,0.49027
6555.80530,0.48994
6553.87655,0.48999
6551.94781,0.49059
6550.01906,0.49019
6548.09032,0.48883
6546.16157,0.48883
6544.23283,0.49063
6542.30408,0.49231
6540.37534,0.49371
6538.44659,0.49509
6536.51785,0.49520
6534.58910,0.49354
6532.66036,0.49066
6530.73161,0.48810
6528.80287,0.48672
6526.87412,0.48602
6524.94537,0.48682
6523.01663,0.48913
6521.08788,0.49085
6519.15914,0.49134
6517.23039,0.49107
6515.30165,0.49078
6513.37290,0.49113
6511.44416,0.49134
6509.51541,0.49144
6507.58667,0.49150
6505.65792,0.48944
6503.72918,0.48660
6501.80043,0.48653
6499.87169,0.48808
6497.94294,0.48847
6496.01419,0.48806
6494.08545,0.48840
6492.15670,0.48947
6490.22796,0.49047
6488.29921,0.49097
6486.37047,0.49046
6484.44172,0.48922
6482.51298,0.48905
6480.58423,0.49123
6478.65549,0.49342
6476.72674,0.49248
6474.79800,0.48986
6472.86925,0.48889
6470.94051,0.48928
6469.01176,0.48936
6467.08302,0.48936
6465.15427,0.48953
6463.22552,0.49010
6461.29678,0.49070
6459.36803,0.48930
6457.43929,0.48740
6455.51054,0.48814
6453.58180,0.48978
6451.65305,0.49033
6449.72431,0.49082
6447.79556,0.49180
6445.86682,0.49282
6443.93807,0.49314
6442.00933,0.49293
6440.08058,0.49323
6438.15184,0.49271
6436.22309,0.49137
6434.29434,0.49175
6432.36560,0.49135
6430.43685,0.48793
6428.50811,0.48625
6426.57936,0.48826
6424.65062,0.49023
6422.72187,0.49110
6420.79313,0.49181
6418.86438,0.49206
6416.93564,0.49234
6415.00689,0.49249
6413.07815,0.49154
6411.14940,0.48983
6409.22066,0.48785
6407.29191,0.48645
6405.36317,0.48683
6403.43442,0.48869
6401.50567,0.49052
6399.57693,0.49118
6397.64818,0.49144
6395.71944,0.49278
6393.79069,0.49397
6391.86195,0.49290
6389.93320,0.49103
6388.00446,0.49035
6386.07571,0.49018
6384.14697,0.48989
6382.21822,0.49014
6380.28948,0.49100
6378.36073,0.49063
6376.43199,0.48844
6374.50324,0.48712
6372.57450,0.48808
6370.64575,0.48966
6368.71700,0.49092
6366.78826,0.49178
6364.85951,0.49193
6362.93077,0.49207
6361.00202,0.49219
6359.07328,0.49061
6357.14453,0.48838
6355.21579,0.48872
6353.28704,0.49020
6351.35830,0.48933
6349.42955,0.48793
6347.50081,0.48885
6345.57206,0.49089
6343.64332,0.49121
6341.71457,0.48939
6339.78582,0.48840
6337.85708,0.48994
6335.92833,0.49232
6333.99959,0.49336
6332.07084,0.49330
6330.14210,0.49428
6328.21335,0.49538
6326.28461,0.49441
6324.35586,0.49328
6322.42712,0.49335
6320.49837,0.49264
6318.56963,0.49155
6316.64088,0.49224
6314.71214,0.49371
6312.78339,0.49417
6310.85465,0.49400
6308.92590,0.49424
6306.99715,0.49482
6305.06841,0.49436
6303.13966,0.49236
6301.21092,0.49046
6299.28217,0.49066
6297.35343,0.49311
6295.42468,0.49542
6293.49594,0.49577
6291.56719,0.49547
6289.63845,0.49524
6287.70970,0.49400
6285.78096,0.49246
6283.85221,0.49224
6281.92347,0.49307
6279.99472,0.49390
6278.06598,0.49460
6276.13723,0.49519
6274.20848,0.49509
6272.27974,0.49417
6270.35099,0.49384
6268.42225,0.49531
6266.49350,0.49713
6264.56476,0.49802
6262.63601,0.49808
6260.70727,0.49646
6258.77852,0.49407
6256.84978,0.49343
6254.92103,0.49473
6252.99229,0.49661
6251.06354,0.49844
6249.13480,0.49962
6247.20605,0.49878
6245.27730,0.49711
6243.34856,0.49767
6241.41981,0.50042
6239.49107,0.50227
6237.56232,0.50207
6235.63358,0.50180
6233.70483,0.50191
6231.77609,0.50122
6229.84734,0.50007
6227.91860,0.49997
6225.98985,0.50163
6224.06111,0.50313
6222.13236,0.50228
6220.20362,0.50065
6218.27487,0.50106
6216.34613,0.50214
6214.41738,0.50123
6212.48863,0.49973
6210.55989,0.49921
6208.63114,0.49956
6206.70240,0.50063
6204.77365,0.50190
6202.84491,0.50298
6200.91616,0.50359
6198.98742,0.50450
6197.05867,0.50563
6195.12993,0.50478
6193.20118,0.50317
6191.27244,0.50317
6189.34369,0.50288
6187.41495,0.50220
6185.48620,0.50337
6183.55746,0.50507
6181.62871,0.50577
6179.69996,0.50579
6177.77122,0.50539
6175.84247,0.50496
6173.91373,0.50394
6171.98498,0.50319
6170.05624,0.50463
6168.12749,0.50667
6166.19875,0.50673
6164.27000,0.50566
6162.34126,0.50568
6160.41251,0.50672
6158.48377,0.50710
6156.55502,0.50652
6154.62628,0.50595
6152.69753,0.50627
6150.76878,0.50702
6148.84004,0.50644
6146.91129,0.50497
6144.98255,0.50487
6143.05380,0.50598
6141.12506,0.50672
6139.19631,0.50701
6137.26757,0.50747
6135.33882,0.50772
6133.41008,0.50685
6131.48133,0.50541
6129.55259,0.50416
6127.62384,0.50372
6125.69510,0.50551
6123.76635,0.50865
6121.83761,0.50997
6119.90886,0.50934
6117.98011,0.51013
6116.05137,0.51277
6114.12262,0.51437
6112.19388,0.51435
6110.26513,0.51359
6108.33639,0.51207
6106.40764,0.51055
6104.47890,0.51002
6102.55015,0.51052
6100.62141,0.51146
6098.69266,0.51156
6096.76392,0.51048
6094.83517,0.50962
6092.90643,0.51019
6090.97768,0.51183
6089.04893,0.51171
6087.12019,0.50872
6085.19144,0.50661
6083.26270,0.50731
6081.33395,0.50823
6079.40521,0.50841
6077.47646,0.50907
6075.54772,0.51034
6073.61897,0.51123
6071.69023,0.51054
6069.76148,0.50958
6067.83274,0.51117
6065.90399,0.51412
6063.97525,0.51517
6062.04650,0.51362
6060.11776,0.51083
6058.18901,0.50888
6056.26026,0.50853
6054.33152,0.50867
6052.40277,0.50906
6050.47403,0.51042
6048.54528,0.51195
6046.61654,0.51236
6044.68779,0.51201
6042.75905,0.51181
6040.83030,0.51186
6038.90156,0.51160
6036.97281,0.51159
6035.04407,0.51171
6033.11532,0.51054
6031.18658,0.50950
6029.25783,0.51034
6027.32909,0.51205
6025.40034,0.51386
6023.47159,0.51512
6021.54285,0.51474
6019.61410,0.51327
6017.68536,0.51239
6015.75661,0.51232
6013.82787,0.51231
6011.89912,0.51310
6009.97038,0.51479
6008.04163,0.51509
6006.11289,0.51370
6004.18414,0.51269
6002.25540,0.51227
6000.32665,0.51159
5998.39791,0.51136
5996.46916,0.51204
5994.54041,0.51226
5992.61167,0.51151
5990.68292,0.51115
5988.75418,0.51167
5986.82543,0.51177
5984.89669,0.51068
5982.96794,0.50988
5981.03920,0.51029
5979.11045,0.51058
5977.18171,0.50998
5975.25296,0.50898
5973.32422,0.50852
5971.39547,0.50887
5969.46673,0.50917
5967.53798,0.50923
5965.60924,0.50946
5963.68049,0.50967
5961.75174,0.50924
5959.82300,0.50848
5957.89425,0.50835
5955.96551,0.50838
5954.03676,0.50849
5952.10802,0.51010
5950.17927,0.51273
5948.25053,0.51430
5946.32178,0.51368
5944.39304,0.51152
5942.46429,0.50996
5940.53555,0.50992
5938.60680,0.51056
5936.67806,0.51096
5934.74931,0.51042
5932.82057,0.50965
5930.89182,0.50992
5928.96307,0.51103
5927.03433,0.51197
5925.10558,0.51175
5923.17684,0.50997
5921.24809,0.50817
5919.31935,0.50823
5917.39060,0.50949
5915.46186,0.51035
5913.53311,0.51016
5911.60437,0.50969
5909.67562,0.51034
5907.74688,0.51206
5905.81813,0.51368
5903.88939,0.51367
5901.96064,0.51200
5900.03189,0.51054
5898.10315,0.50950
5896.17440,0.50812
5894.24566,0.50765
5892.31691,0.50868
5890.38817,0.50948
5888.45942,0.50918
5886.53068,0.50905
5884.60193,0.51021
5882.67319,0.51189
5880.74444,0.51202
5878.81570,0.51068
5876.88695,0.50981
5874.95821,0.51008
5873.02946,0.51048
5871.10072,0.51026
5869.17197,0.51034
5867.24322,0.51089
5865.31448,0.51113
5863.38573,0.51109
5861.45699,0.51041
5859.52824,0.50964
5857.59950,0.50962
5855.67075,0.50929
5853.74201,0.50852
5851.81326,0.50814
5849.88452,0.50810
5847.95577,0.50857
5846.02703,0.50949
5844.09828,0.51035
5842.16954,0.51144
5840.24079,0.51218
5838.31205,0.51124
5836.38330,0.50975
5834.45455,0.50935
5832.52581,0.50974
5830.59706,0.50991
5828.66832,0.50940
5826.73957,0.50910
5824.81083,0.50929
5822.88208,0.50869
5820.95334,0.50780
5819.02459,0.50809
5817.09585,0.50900
5815.16710,0.50948
5813.23836,0.50899
5811.30961,0.50778
5809.38087,0.50725
5807.45212,0.50746
5805.52337,0.50750
5803.59463,0.50785
5801.66588,0.50842
5799.73714,0.50838
5797.80839,0.50864
5795.87965,0.50964
5793.95090,0.50978
5792.02216,0.50885
5790.09341,0.50885
5788.16467,0.50990
5786.23592,0.51025
5784.30718,0.51032
5782.37843,0.51100
5780.44969,0.51026
5778.52094,0.50795
5776.59220,0.50739
5774.66345,0.50883
5772.73470,0.50966
5770.80596,0.50947
5768.87721,0.50916
5766.94847,0.50890
5765.01972,0.50881
5763.09098,0.50925
5761.16223,0.51013
5759.23349,0.51042
5757.30474,0.50964
5755.37600,0.50924
5753.44725,0.51018
5751.51851,0.51125
5749.58976,0.51121
5747.66102,0.51065
5745.73227,0.51052
5743.80352,0.51050
5741.87478,0.51010
5739.94603,0.50993
5738.01729,0.51016
5736.08854,0.51016
5734.15980,0.51017
5732.23105,0.51024
5730.30231,0.50991
5728.37356,0.50964
5726.44482,0.50964
5724.51607,0.50993
5722.58733,0.51074
5720.65858,0.51096
5718.72984,0.51007
5716.80109,0.50894
5714.87235,0.50787
5712.94360,0.50770
5711.01485,0.50897
5709.08611,0.51012
5707.15736,0.51013
5705.22862,0.50983
5703.29987,0.50974
5701.37113,0.50976
5699.44238,0.50966
5697.51364,0.50926
5695.58489,0.50910
5693.65615,0.50950
5691.72740,0.50993
5689.79866,0.51045
5687.86991,0.51106
5685.94117,0.51088
5684.01242,0.50990
5682.08368,0.50919
5680.15493,0.50941
5678.22618,0.51000
5676.29744,0.51014
5674.36869,0.51001
5672.43995,0.50987
5670.51120,0.50968
5668.58246,0.51001
5666.65371,0.51103
5664.72497,0.51181
5662.79622,0.51202
5660.86748,0.51190
5658.93873,0.51129
5657.00999,0.51066
5655.08124,0.51062
5653.15250,0.51005
5651.22375,0.50876
5649.29500,0.50867
5647.36626,0.50984
5645.43751,0.51068
5643.50877,0.51098
5641.58002,0.51087
5639.65128,0.51039
5637.72253,0.51057
5635.79379,0.51118
5633.86504,0.51071
5631.93630,0.50982
5630.00755,0.50997
5628.07881,0.51035
5626.15006,0.50970
5624.22132,0.50835
5622.29257,0.50758
5620.36383,0.50826
5618.43508,0.51008
5616.50633,0.51124
5614.57759,0.51055
5612.64884,0.50929
5610.72010,0.50896
5608.79135,0.50936
5606.86261,0.50960
5604.93386,0.50939
5603.00512,0.50927
5601.07637,0.50956
5599.14763,0.50999
5597.21888,0.51056
5595.29014,0.51119
5593.36139,0.51117
5591.43265,0.51053
5589.50390,0.50997
5587.57516,0.50989
5585.64641,0.51034
5583.71766,0.51015
5581.78892,0.50935
5579.86017,0.50989
5577.93143,0.51119
5576.00268,0.51134
5574.07394,0.51090
5572.14519,0.51106
5570.21645,0.51143
5568.28770,0.51157
5566.35896,0.51199
5564.43021,0.51217
5562.50147,0.51122
5560.57272,0.51044
5558.64398,0.51111
5556.71523,0.51213
5554.78648,0.51249
5552.85774,0.51248
5550.92899,0.51232
5549.00025,0.51205
5547.07150,0.51183
5545.14276,0.51172
5543.21401,0.51161
5541.28527,0.51143
5539.35652,0.51129
5537.42778,0.51121
5535.49903,0.51100
5533.57029,0.51097
5531.64154,0.51174
5529.71280,0.51270
5527.78405,0.51266
5525.85531,0.51203
5523.92656,0.51194
5521.99781,0.51240
5520.06907,0.51255
5518.14032,0.51228
5516.21158,0.51234
5514.28283,0.51281
5512.35409,0.51297
5510.42534,0.51239
5508.49660,0.51189
5506.56785,0.51259
5504.63911,0.51361
5502.71036,0.51350
5500.78162,0.51243
5498.85287,0.51145
5496.92413,0.51167
5494.99538,0.51340
5493.06664,0.51504
5491.13789,0.51512
5489.20914,0.51435
5487.28040,0.51397
5485.35165,0.51429
5483.42291,0.51460
5481.49416,0.51388
5479.56542,0.51273
5477.63667,0.51263
5475.70793,0.51338
5473.77918,0.51395
5471.85044,0.51428
5469.92169,0.51469
5467.99295,0.51507
5466.06420,0.51524
5464.13546,0.51498
5462.20671,0.51397
5460.27796,0.51292
5458.34922,0.51312
5456.42047,0.51402
5454.49173,0.51467
5452.56298,0.51543
5450.63424,0.51590
5448.70549,0.51537
5446.77675,0.51433
5444.84800,0.51366
5442.91926,0.51408
5440.99051,0.51512
5439.06177,0.51556
5437.13302,0.51528
5435.20428,0.51474
5433.27553,0.51466
5431.34679,0.51547
5429.41804,0.51626
5427.48929,0.51674
5425.56055,0.51752
5423.63180,0.51804
5421.70306,0.51780
5419.77431,0.51723
5417.84557,0.51680
5415.91682,0.51704
5413.98808,0.51788
5412.05933,0.51816
5410.13059,0.51785
5408.20184,0.51821
5406.27310,0.51875
5404.34435,0.51805
5402.41561,0.51656
5400.48686,0.51563
5398.55811,0.51588
5396.62937,0.51743
5394.70062,0.51920
5392.77188,0.51975
5390.84313,0.51898
5388.91439,0.51774
5386.98564,0.51692
5385.05690,0.51675
5383.12815,0.51673
5381.19941,0.51678
5379.27066,0.51701
5377.34192,0.51715
5375.41317,0.51747
5373.48443,0.51839
5371.55568,0.51924
5369.62694,0.51918
5367.69819,0.51829
5365.76944,0.51727
5363.84070,0.51684
5361.91195,0.51702
5359.98321,0.51744
5358.05446,0.51788
5356.12572,0.51812
5354.19697,0.51815
5352.26823,0.51803
5350.33948,0.51761
5348.41074,0.51701
5346.48199,0.51669
5344.55325,0.51673
5342.62450,0.51700
5340.69576,0.51743
5338.76701,0.51748
5336.83827,0.51677
5334.90952,0.51596
5332.98077,0.51601
5331.05203,0.51700
5329.12328,0.51746
5327.19454,0.51660
5325.26579,0.51594
5323.33705,0.51628
5321.40830,0.51624
5319.47956,0.51516
5317.55081,0.51463
5315.62207,0.51525
5313.69332,0.51572
5311.76458,0.51558
5309.83583,0.51478
5307.90709,0.51344
5305.97834,0.51266
5304.04959,0.51243
5302.12085,0.51187
5300.19210,0.51137
5298.26336,0.51129
5296.33461,0.51130
5294.40587,0.51122
5292.47712,0.51034
5290.54838,0.50849
5288.61963,0.50697
5286.69089,0.50635
5284.76214,0.50601
5282.83340,0.50562
5280.90465,0.50526
5278.97591,0.50449
5277.04716,0.50320
5275.11842,0.50230
5273.18967,0.50192
5271.26092,0.50111
5269.33218,0.49974
5267.40343,0.49825
5265.47469,0.49681
5263.54594,0.49573
5261.61720,0.49463
5259.68845,0.49298
5257.75971,0.49150
5255.83096,0.49026
5253.90222,0.48852
5251.97347,0.48678
5250.04473,0.48567
5248.11598,0.48461
5246.18724,0.48360
5244.25849,0.48294
5242.32975,0.48218
5240.40100,0.48153
5238.47225,0.48095
5236.54351,0.47978
5234.61476,0.47850
5232.68602,0.47746
5230.75727,0.47642
5228.82853,0.47577
5226.89978,0.47514
5224.97104,0.47399
5223.04229,0.47316
5221.11355,0.47282
5219.18480,0.47197
5217.25606,0.47093
5215.32731,0.47058
5213.39857,0.47052
5211.46982,0.47050
5209.54107,0.47068
5207.61233,0.47060
5205.68358,0.47011
5203.75484,0.46967
5201.82609,0.46934
5199.89735,0.46928
5197.96860,0.46928
5196.03986,0.46847
5194.11111,0.46728
5192.18237,0.46693
5190.25362,0.46756
5188.32488,0.46856
5186.39613,0.46877
5184.46739,0.46799
5182.53864,0.46739
5180.60990,0.46731
5178.68115,0.46762
5176.75240,0.46848
5174.82366,0.46940
5172.89491,0.46987
5170.96617,0.47026
5169.03742,0.47105
5167.10868,0.47139
5165.17993,0.47059
5163.25119,0.47012
5161.32244,0.47113
5159.39370,0.47235
5157.46495,0.47283
5155.53621,0.47301
5153.60746,0.47321
5151.67872,0.47351
5149.74997,0.47355
5147.82123,0.47293
5145.89248,0.47250
5143.96373,0.47315
5142.03499,0.47436
5140.10624,0.47551
5138.17750,0.47633
5136.24875,0.47654
5134.32001,0.47653
5132.39126,0.47688
5130.46252,0.47776
5128.53377,0.47891
5126.60503,0.47951
5124.67628,0.47943
5122.74754,0.47905
5120.81879,0.47839
5118.89005,0.47803
5116.96130,0.47902
5115.03255,0.48057
5113.10381,0.48089
5111.17506,0.48027
5109.24632,0.48001
5107.31757,0.48039
5105.38883,0.48116
5103.46008,0.48183
5101.53134,0.48210
5099.60259,0.48215
5097.67385,0.48241
5095.74510,0.48306
5093.81636,0.48358
5091.88761,0.48347
5089.95887,0.48286
5088.03012,0.48248
5086.10138,0.48271
5084.17263,0.48322
5082.24388,0.48372
5080.31514,0.48410
5078.38639,0.48436
5076.45765,0.48451
5074.52890,0.48474
5072.60016,0.48536
5070.67141,0.48599
5068.74267,0.48609
5066.81392,0.48596
5064.88518,0.48586
5062.95643,0.48571
5061.02769,0.48588
5059.09894,0.48626
5057.17020,0.48613
5055.24145,0.48560
5053.31270,0.48539
5051.38396,0.48567
5049.45521,0.48611
5047.52647,0.48640
5045.59772,0.48633
5043.66898,0.48600
5041.74023,0.48564
5039.81149,0.48539
5037.88274,0.48540
5035.95400,0.48561
5034.02525,0.48557
5032.09651,0.48483
5030.16776,0.48385
5028.23902,0.48353
5026.31027,0.48396
5024.38153,0.48471
5022.45278,0.48529
5020.52403,0.48527
5018.59529,0.48474
5016.66654,0.48398
5014.73780,0.48324
5012.80905,0.48259
5010.88031,0.48195
5008.95156,0.48143
5007.02282,0.48100
5005.09407,0.48071
5003.16533,0.48060
5001.23658,0.48022
4999.30784,0.47955
4997.37909,0.47917
4995.45035,0.47898
4993.52160,0.47849
4991.59286,0.47793
4989.66411,0.47772
4987.73536,0.47759
4985.80662,0.47726
4983.87787,0.47663
4981.94913,0.47569
4980.02038,0.47486
4978.09164,0.47418
4976.16289,0.47345
4974.23415,0.47292
4972.30540,0.47239
4970.37666,0.47172
4968.44791,0.47163
4966.51917,0.47167
4964.59042,0.47070
4962.66168,0.46922
4960.73293,0.46852
4958.80418,0.46842
4956.87544,0.46808
4954.94669,0.46739
4953.01795,0.46661
4951.08920,0.46604
4949.16046,0.46585
4947.23171,0.46579
4945.30297,0.46559
4943.37422,0.46510
4941.44548,0.46390
4939.51673,0.46210
4937.58799,0.46051
4935.65924,0.45962
4933.73050,0.45909
4931.80175,0.45830
4929.87301,0.45728
4927.94426,0.45644
4926.01551,0.45571
4924.08677,0.45486
4922.15802,0.45389
4920.22928,0.45298
4918.30053,0.45227
4916.37179,0.45178
4914.44304,0.45154
4912.51430,0.45101
4910.58555,0.44962
4908.65681,0.44807
4906.72806,0.44702
4904.79932,0.44613
4902.87057,0.44508
4900.94183,0.44419
4899.01308,0.44375
4897.08434,0.44339
4895.15559,0.44245
4893.22684,0.44087
4891.29810,0.43936
4889.36935,0.43836
4887.44061,0.43758
4885.51186,0.43664
4883.58312,0.43527
4881.65437,0.43401
4879.72563,0.43354
4877.79688,0.43342
4875.86814,0.43297
4873.93939,0.43207
4872.01065,0.43088
4870.08190,0.42966
4868.15316,0.42871
4866.22441,0.42812
4864.29566,0.42756
4862.36692,0.42690
4860.43817,0.42623
4858.50943,0.42559
4856.58068,0.42493
4854.65194,0.42424
4852.72319,0.42362
4850.79445,0.42282
4848.86570,0.42182
4846.93696,0.42115
4845.00821,0.42066
4843.07947,0.41983
4841.15072,0.41907
4839.22198,0.41892
4837.29323,0.41882
4835.36449,0.41824
4833.43574,0.41740
4831.50699,0.41633
4829.57825,0.41514
4827.64950,0.41427
4825.72076,0.41388
4823.79201,0.41357
4821.86327,0.41277
4819.93452,0.41153
4818.00578,0.41043
4816.07703,0.40977
4814.14829,0.40936
4812.21954,0.40895
4810.29080,0.40847
4808.36205,0.40791
4806.43331,0.40702
4804.50456,0.40586
4802.57582,0.40516
4800.64707,0.40509
4798.71832,0.40493
4796.78958,0.40425
4794.86083,0.40360
4792.93209,0.40381
4791.00334,0.40462
4789.07460,0.40465
4787.14585,0.40344
4785.21711,0.40246
4783.28836,0.40261
4781.35962,0.40259
4779.43087,0.40173
4777.50213,0.40110
4775.57338,0.40060
4773.64464,0.39973
4771.71589,0.39921
4769.78714,0.39931
4767.85840,0.39937
4765.92965,0.39915
4764.00091,0.39862
4762.07216,0.39785
4760.14342,0.39720
4758.21467,0.39679
4756.28593,0.39663
4754.35718,0.39670
4752.42844,0.39695
4750.49969,0.39728
4748.57095,0.39749
4746.64220,0.39743
4744.71346,0.39693
4742.78471,0.39619
4740.85597,0.39586
4738.92722,0.39614
4736.99847,0.39659
4735.06973,0.39664
4733.14098,0.39616
4731.21224,0.39585
4729.28349,0.39600
4727.35475,0.39612
4725.42600,0.39613
4723.49726,0.39613
4721.56851,0.39613
4719.63977,0.39622
4717.71102,0.39610
4715.78228,0.39577
4713.85353,0.39576
4711.92479,0.39612
4709.99604,0.39643
4708.06729,0.39666
4706.13855,0.39710
4704.20980,0.39770
4702.28106,0.39779
4700.35231,0.39750
4698.42357,0.39752
4696.49482,0.39764
4694.56608,0.39750
4692.63733,0.39732
4690.70859,0.39756
4688.77984,0.39812
4686.85110,0.39820
4684.92235,0.39813
4682.99361,0.39863
4681.06486,0.39901
4679.13612,0.39895
4677.20737,0.39938
4675.27862,0.40039
4673.34988,0.40090
4671.42113,0.40067
4669.49239,0.40082
4667.56364,0.40173
4665.63490,0.40248
4663.70615,0.40261
4661.77741,0.40248
4659.84866,0.40245
4657.91992,0.40254
4655.99117,0.40269
4654.06243,0.40299
4652.13368,0.40334
4650.20494,0.40366
4648.27619,0.40431
4646.34745,0.40525
4644.41870,0.40558
4642.48995,0.40530
4640.56121,0.40548
4638.63246,0.40628
4636.70372,0.40724
4634.77497,0.40798
4632.84623,0.40818
4630.91748,0.40838
4628.98874,0.40905
4627.05999,0.40958
4625.13125,0.40977
4623.20250,0.41007
4621.27376,0.41061
4619.34501,0.41112
4617.41627,0.41161
4615.48752,0.41235
4613.55877,0.41326
4611.63003,0.41387
4609.70128,0.41400
4607.77254,0.41396
4605.84379,0.41422
4603.91505,0.41507
4601.98630,0.41618
4600.05756,0.41708
4598.12881,0.41779
4596.20007,0.41832
4594.27132,0.41894
4592.34258,0.41986
4590.41383,0.42036
4588.48509,0.42018
4586.55634,0.42013
4584.62760,0.42075
4582.69885,0.42157
4580.77010,0.42198
4578.84136,0.42228
4576.91261,0.42287
4574.98387,0.42361
4573.05512,0.42414
4571.12638,0.42457
4569.19763,0.42530
4567.26889,0.42616
4565.34014,0.42672
4563.41140,0.42683
4561.48265,0.42670
4559.55391,0.42692
4557.62516,0.42751
4555.69642,0.42799
4553.76767,0.42840
4551.83893,0.42891
4549.91018,0.42933
4547.98143,0.42964
4546.05269,0.43002
4544.12394,0.43035
4542.19520,0.43061
4540.26645,0.43108
4538.33771,0.43172
4536.40896,0.43218
4534.48022,0.43231
4532.55147,0.43238
4530.62273,0.43254
4528.69398,0.43275
4526.76524,0.43312
4524.83649,0.43352
4522.90775,0.43390
4520.97900,0.43472
4519.05025,0.43556
4517.12151,0.43578
4515.19276,0.43598
4513.26402,0.43670
4511.33527,0.43754
4509.40653,0.43824
4507.47778,0.43870
4505.54904,0.43867
4503.62029,0.43833
4501.69155,0.43839
4499.76280,0.43882
4497.83406,0.43897
4495.90531,0.43896
4493.97657,0.43921
4492.04782,0.43938
4490.11908,0.43911
4488.19033,0.43857
4486.26158,0.43804
4484.33284,0.43763
4482.40409,0.43737
4480.47535,0.43714
4478.54660,0.43681
4476.61786,0.43630
4474.68911,0.43556
4472.76037,0.43499
4470.83162,0.43497
4468.90288,0.43516
4466.97413,0.43479
4465.04539,0.43371
4463.11664,0.43258
4461.18790,0.43155
4459.25915,0.43055
4457.33041,0.42981
4455.40166,0.42918
4453.47291,0.42823
4451.54417,0.42720
4449.61542,0.42659
4447.68668,0.42595
4445.75793,0.42477
4443.82919,0.42346
4441.90044,0.42219
4439.97170,0.42079
4438.04295,0.41953
4436.11421,0.41856
4434.18546,0.41759
4432.25672,0.41637
4430.32797,0.41490
4428.39923,0.41346
4426.47048,0.41235
4424.54173,0.41123
4422.61299,0.40962
4420.68424,0.40776
4418.75550,0.40616
4416.82675,0.40470
4414.89801,0.40309
4412.96926,0.40157
4411.04052,0.40047
4409.11177,0.39964
4407.18303,0.39901
4405.25428,0.39861
4403.32554,0.39789
4401.39679,0.39684
4399.46805,0.39631
4397.53930,0.39637
4395.61056,0.39645
4393.68181,0.39654
4391.75306,0.39679
4389.82432,0.39705
4387.89557,0.39736
4385.96683,0.39809
4384.03808,0.39871
4382.10934,0.39886
4380.18059,0.39918
4378.25185,0.39983
4376.32310,0.40037
4374.39436,0.40075
4372.46561,0.40129
4370.53687,0.40201
4368.60812,0.40274
4366.67938,0.40338
4364.75063,0.40385
4362.82189,0.40416
4360.89314,0.40429
4358.96439,0.40417
4357.03565,0.40417
4355.10690,0.40460
4353.17816,0.40477
4351.24941,0.40435
4349.32067,0.40386
4347.39192,0.40345
4345.46318,0.40298
4343.53443,0.40256
4341.60569,0.40203
4339.67694,0.40121
4337.74820,0.40058
4335.81945,0.40038
4333.89071,0.40010
4331.96196,0.39950
4330.03321,0.39890
4328.10447,0.39855
4326.17572,0.39822
4324.24698,0.39761
4322.31823,0.39687
4320.38949,0.39615
4318.46074,0.39526
4316.53200,0.39432
4314.60325,0.39399
4312.67451,0.39409
4310.74576,0.39393
4308.81702,0.39352
4306.88827,0.39286
4304.95953,0.39205
4303.03078,0.39156
4301.10204,0.39128
4299.17329,0.39075
4297.24454,0.38991
4295.31580,0.38910
4293.38705,0.38875
4291.45831,0.38893
4289.52956,0.38920
4287.60082,0.38924
4285.67207,0.38911
4283.74333,0.38877
4281.81458,0.38817
4279.88584,0.38768
4277.95709,0.38749
4276.02835,0.38737
4274.09960,0.38735
4272.17086,0.38764
4270.24211,0.38785
4268.31336,0.38771
4266.38462,0.38782
4264.45587,0.38835
4262.52713,0.38880
4260.59838,0.38913
4258.66964,0.38948
4256.74089,0.38977
4254.81215,0.38992
4252.88340,0.39026
4250.95466,0.39074
4249.02591,0.39084
4247.09717,0.39080
4245.16842,0.39109
4243.23968,0.39153
4241.31093,0.39185
4239.38219,0.39196
4237.45344,0.39203
4235.52469,0.39235
4233.59595,0.39287
4231.66720,0.39327
4229.73846,0.39349
4227.80971,0.39367
4225.88097,0.39384
4223.95222,0.39391
4222.02348,0.39385
4220.09473,0.39392
4218.16599,0.39425
4216.23724,0.39442
4214.30850,0.39448
4212.37975,0.39469
4210.45101,0.39469
4208.52226,0.39440
4206.59352,0.39443
4204.66477,0.39465
4202.73602,0.39478
4200.80728,0.39504
4198.87853,0.39530
4196.94979,0.39543
4195.02104,0.39562
4193.09230,0.39584
4191.16355,0.39605
4189.23481,0.39623
4187.30606,0.39636
4185.37732,0.39649
4183.44857,0.39655
4181.51983,0.39647
4179.59108,0.39656
4177.66234,0.39719
4175.73359,0.39819
4173.80484,0.39883
4171.87610,0.39881
4169.94735,0.39883
4168.01861,0.39913
4166.08986,0.39925
4164.16112,0.39930
4162.23237,0.39957
4160.30363,0.39996
4158.37488,0.40032
4156.44614,0.40053
4154.51739,0.40064
4152.58865,0.40057
4150.65990,0.39985
4148.73116,0.39863
4146.80241,0.39764
4144.87367,0.39715
4142.94492,0.39698
4141.01617,0.39695
4139.08743,0.39681
4137.15868,0.39643
4135.22994,0.39610
4133.30119,0.39585
4131.37245,0.39534
4129.44370,0.39456
4127.51496,0.39367
4125.58621,0.39281
4123.65747,0.39194
4121.72872,0.39074
4119.79998,0.38925
4117.87123,0.38791
4115.94249,0.38707
4114.01374,0.38650
4112.08500,0.38564
4110.15625,0.38447
4108.22750,0.38308
4106.29876,0.38146
4104.37001,0.37993
4102.44127,0.37858
4100.51252,0.37719
4098.58378,0.37594
4096.65503,0.37480
4094.72629,0.37327
4092.79754,0.37131
4090.86880,0.36950
4088.94005,0.36824
4087.01131,0.36719
4085.08256,0.36581
4083.15382,0.36418
4081.22507,0.36257
4079.29632,0.36107
4077.36758,0.35992
4075.43883,0.35900
4073.51009,0.35762
4071.58134,0.35565
4069.65260,0.35369
4067.72385,0.35215
4065.79511,0.35076
4063.86636,0.34928
4061.93762,0.34776
4060.00887,0.34624
4058.08013,0.34484
4056.15138,0.34347
4054.22264,0.34166
4052.29389,0.33952
4050.36515,0.33780
4048.43640,0.33662
4046.50765,0.33549
4044.57891,0.33423
4042.65016,0.33291
4040.72142,0.33160
4038.79267,0.33014
4036.86393,0.32862
4034.93518,0.32758
4033.00644,0.32684
4031.07769,0.32597
4029.14895,0.32523
4027.22020,0.32465
4025.29146,0.32390
4023.36271,0.32327
4021.43397,0.32295
4019.50522,0.32263
4017.57648,0.32239
4015.64773,0.32260
4013.71898,0.32297
4011.79024,0.32305
4009.86149,0.32310
4007.93275,0.32330
4006.00400,0.32342
4004.07526,0.32362
4002.14651,0.32410
4000.21777,0.32466
3998.28902,0.32510
3996.36028,0.32536
3994.43153,0.32564
3992.50279,0.32614
3990.57404,0.32693
3988.64530,0.32783
3986.71655,0.32849
3984.78780,0.32887
3982.85906,0.32930
3980.93031,0.32979
3979.00157,0.33029
3977.07282,0.33099
3975.14408,0.33175
3973.21533,0.33226
3971.28659,0.33264
3969.35784,0.33320
3967.42910,0.33380
3965.50035,0.33423
3963.57161,0.33476
3961.64286,0.33565
3959.71412,0.33663
3957.78537,0.33726
3955.85663,0.33767
3953.92788,0.33833
3951.99913,0.33928
3950.07039,0.34016
3948.14164,0.34086
3946.21290,0.34163
3944.28415,0.34251
3942.35541,0.34324
3940.42666,0.34366
3938.49792,0.34398
3936.56917,0.34464
3934.64043,0.34573
3932.71168,0.34690
3930.78294,0.34783
3928.85419,0.34853
3926.92545,0.34925
3924.99670,0.34999
3923.06795,0.35073
3921.13921,0.35154
3919.21046,0.35232
3917.28172,0.35300
3915.35297,0.35372
3913.42423,0.35449
3911.49548,0.35524
3909.56674,0.35578
3907.63799,0.35620
3905.70925,0.35675
3903.78050,0.35742
3901.85176,0.35802
3899.92301,0.35867
3897.99427,0.35945
3896.06552,0.36005
3894.13678,0.36047
3892.20803,0.36094
3890.27928,0.36154
3888.35054,0.36221
3886.42179,0.36291
3884.49305,0.36361
3882.56430,0.36421
3880.63556,0.36459
3878.70681,0.36486
3876.77807,0.36522
3874.84932,0.36563
3872.92058,0.36614
3870.99183,0.36675
3869.06309,0.36726
3867.13434,0.36781
3865.20560,0.36873
3863.27685,0.36991
3861.34811,0.37100
3859.41936,0.37180
3857.49061,0.37244
3855.56187,0.37337
3853.63312,0.37459
3851.70438,0.37525
3849.77563,0.37545
3847.84689,0.37588
3845.91814,0.37637
3843.98940,0.37671
3842.06065,0.37732
3840.13191,0.37805
3838.20316,0.37834
3836.27442,0.37826
3834.34567,0.37824
3832.41693,0.37833
3830.48818,0.37836
3828.55943,0.37839
3826.63069,0.37863
3824.70194,0.37894
3822.77320,0.37909
3820.84445,0.37909
3818.91571,0.37909
3816.98696,0.37900
3815.05822,0.37874
3813.12947,0.37839
3811.20073,0.37824
3809.27198,0.37829
3807.34324,0.37817
3805.41449,0.37804
3803.48575,0.37809
3801.55700,0.37792
3799.62826,0.37774
3797.69951,0.37766
3795.77076,0.37720
3793.84202,0.37670
3791.91327,0.37665
3789.98453,0.37679
3788.05578,0.37675
3786.12704,0.37654
3784.19829,0.37633
3782.26955,0.37626
3780.34080,0.37597
3778.41206,0.37521
3776.48331,0.37450
3774.55457,0.37418
3772.62582,0.37389
3770.69708,0.37344
3768.76833,0.37289
3766.83959,0.37238
3764.91084,0.37174
3762.98209,0.37076
3761.05335,0.36970
3759.12460,0.36885
3757.19586,0.36815
3755.26711,0.36749
3753.33837,0.36683
3751.40962,0.36596
3749.48088,0.36469
3747.55213,0.36332
3745.62339,0.36190
3743.69464,0.36029
3741.76590,0.35886
3739.83715,0.35768
3737.90841,0.35642
3735.97966,0.35495
3734.05091,0.35312
3732.12217,0.35059
3730.19342,0.34793
3728.26468,0.34581
3726.33593,0.34371
3724.40719,0.34081
3722.47844,0.33720
3720.54970,0.33348
3718.62095,0.32958
3716.69221,0.32510
3714.76346,0.32002
3712.83472,0.31417
3710.90597,0.30745
3708.97723,0.30009
3707.04848,0.29188
3705.11974,0.28272
3703.19099,0.27271
3701.26224,0.26219
3699.33350,0.25250
3697.40475,0.24485
3695.47601,0.23987
3693.54726,0.23796
3691.61852,0.23861
3689.68977,0.24081
3687.76103,0.24356
3685.83228,0.24546
3683.90354,0.24598
3681.97479,0.24536
3680.04605,0.24396
3678.11730,0.24140
3676.18856,0.23655
3674.25981,0.23008
3672.33107,0.22387
3670.40232,0.21765
3668.47357,0.21196
3666.54483,0.20793
3664.61608,0.20454
3662.68734,0.20054
3660.75859,0.19560
3658.82985,0.19009
3656.90110,0.18424
3654.97236,0.17848
3653.04361,0.17391
3651.11487,0.17051
3649.18612,0.16739
3647.25738,0.16437
3645.32863,0.16183
3643.39989,0.15958
3641.47114,0.15687
3639.54239,0.15349
3637.61365,0.15018
3635.68490,0.14733
3633.75616,0.14448
3631.82741,0.14095
3629.89867,0.13610
3627.96992,0.13040
3626.04118,0.12530
3624.11243,0.12044
3622.18369,0.11543
3620.25494,0.11152
3618.32620,0.11006
3616.39745,0.11032
3614.46871,0.11040
3612.53996,0.10944
3610.61122,0.10763
3608.68247,0.10542
3606.75372,0.10302
3604.82498,0.10057
3602.89623,0.09824
3600.96749,0.09610
3599.03874,0.09401
3597.11000,0.09184
3595.18125,0.08958
3593.25251,0.08743
3591.32376,0.08567
3589.39502,0.08399
3587.46627,0.08176
3585.53753,0.07956
3583.60878,0.07804
3581.68004,0.07665
3579.75129,0.07496
3577.82254,0.07328
3575.89380,0.07185
3573.96505,0.07045
3572.03631,0.06905
3570.10756,0.06786
3568.17882,0.06677
3566.25007,0.06557
3564.32133,0.06431
3562.39258,0.06304
3560.46384,0.06179
3558.53509,0.06080
3556.60635,0.05989
3554.67760,0.05872
3552.74886,0.05761
3550.82011,0.05669
3548.89137,0.05570
3546.96262,0.05462
3545.03387,0.05355
3543.10513,0.05272
3541.17638,0.05220
3539.24764,0.05161
3537.31889,0.05079
3535.39015,0.05007
3533.46140,0.04959
3531.53266,0.04916
3529.60391,0.04864
3527.67517,0.04800
3525.74642,0.04722
3523.81768,0.04656
3521.88893,0.04616
3519.96019,0.04560
3518.03144,0.04484
3516.10270,0.04413
3514.17395,0.04337
3512.24520,0.04276
3510.31646,0.04261
3508.38771,0.04261
3506.45897,0.04235
3504.53022,0.04198
3502.60148,0.04162
3500.67273,0.04107
3498.74399,0.04044
3496.81524,0.03999
3494.88650,0.03970
3492.95775,0.03955
3491.02901,0.03928
3489.10026,0.03875
3487.17152,0.03836
3485.24277,0.03828
3483.31402,0.03822
3481.38528,0.03802
3479.45653,0.03783
3477.52779,0.03755
3475.59904,0.03702
3473.67030,0.03638
3471.74155,0.03597
3469.81281,0.03587
3467.88406,0.03574
3465.95532,0.03557
3464.02657,0.03542
3462.09783,0.03506
3460.16908,0.03452
3458.24034,0.03415
3456.31159,0.03414
3454.38285,0.03445
3452.45410,0.03471
3450.52535,0.03457
3448.59661,0.03429
3446.66786,0.03414
3444.73912,0.03405
3442.81037,0.03390
3440.88163,0.03372
3438.95288,0.03360
3437.02414,0.03356
3435.09539,0.03351
3433.16665,0.03338
3431.23790,0.03308
3429.30916,0.03274
3427.38041,0.03264
3425.45167,0.03278
3423.52292,0.03311
3421.59418,0.03347
3419.66543,0.03342
3417.73668,0.03289
3415.80794,0.03241
3413.87919,0.03225
3411.95045,0.03232
3410.02170,0.03222
3408.09296,0.03175
3406.16421,0.03140
3404.23547,0.03155
3402.30672,0.03207
3400.37798,0.03246
3398.44923,0.03230
3396.52049,0.03198
3394.59174,0.03207
3392.66300,0.03251
3390.73425,0.03292
3388.80550,0.03302
3386.87676,0.03292
3384.94801,0.03279
3383.01927,0.03264
3381.09052,0.03249
3379.16178,0.03247
3377.23303,0.03251
3375.30429,0.03249
3373.37554,0.03242
3371.44680,0.03239
3369.51805,0.03261
3367.58931,0.03303
3365.66056,0.03325
3363.73182,0.03328
3361.80307,0.03327
3359.87433,0.03307
3357.94558,0.03268
3356.01683,0.03239
3354.08809,0.03237
3352.15934,0.03245
3350.23060,0.03242
3348.30185,0.03253
3346.37311,0.03295
3344.44436,0.03328
3342.51562,0.03327
3340.58687,0.03332
3338.65813,0.03362
3336.72938,0.03386
3334.80064,0.03385
3332.87189,0.03378
3330.94315,0.03386
3329.01440,0.03419
3327.08566,0.03459
3325.15691,0.03494
3323.22816,0.03534
3321.29942,0.03589
3319.37067,0.03645
3317.44193,0.03673
3315.51318,0.03653
3313.58444,0.03622
3311.65569,0.03625
3309.72695,0.03661
3307.79820,0.03703
3305.86946,0.03732
3303.94071,0.03739
3302.01197,0.03747
3300.08322,0.03775
3298.15448,0.03807
3296.22573,0.03823
3294.29698,0.03829
3292.36824,0.03833
3290.43949,0.03846
3288.51075,0.03878
3286.58200,0.03910
3284.65326,0.03935
3282.72451,0.03983
3280.79577,0.04052
3278.86702,0.04098
3276.93828,0.04117
3275.00953,0.04122
3273.08079,0.04115
3271.15204,0.04122
3269.22330,0.04178
3267.29455,0.04253
3265.36581,0.04306
3263.43706,0.04346
3261.50831,0.04387
3259.57957,0.04433
3257.65082,0.04483
3255.72208,0.04549
3253.79333,0.04624
3251.86459,0.04675
3249.93584,0.04717
3248.00710,0.04775
3246.07835,0.04843
3244.14961,0.04898
3242.22086,0.04935
3240.29212,0.04960
3238.36337,0.04962
3236.43463,0.04970
3234.50588,0.05026
3232.57713,0.05093
3230.64839,0.05131
3228.71964,0.05171
3226.79090,0.05230
3224.86215,0.05287
3222.93341,0.05330
3221.00466,0.05372
3219.07592,0.05432
3217.14717,0.05501
3215.21843,0.05557
3213.28968,0.05596
3211.36094,0.05628
3209.43219,0.05681
3207.50345,0.05765
3205.57470,0.05859
3203.64596,0.05928
3201.71721,0.05968
3199.78846,0.06020
3197.85972,0.06090
3195.93097,0.06147
3194.00223,0.06198
3192.07348,0.06254
3190.14474,0.06311
3188.21599,0.06381
3186.28725,0.06457
3184.35850,0.06500
3182.42976,0.06511
3180.50101,0.06533
3178.57227,0.06590
3176.64352,0.06662
3174.71478,0.06746
3172.78603,0.06835
3170.85729,0.06911
3168.92854,0.06979
3166.99979,0.07041
3165.07105,0.07094
3163.14230,0.07145
3161.21356,0.07201
3159.28481,0.07270
3157.35607,0.07326
3155.42732,0.07352
3153.49858,0.07396
3151.56983,0.07488
3149.64109,0.07599
3147.71234,0.07720
3145.78360,0.07840
3143.85485,0.07923
3141.92611,0.07964
3139.99736,0.07987
3138.06861,0.08020
3136.13987,0.08088
3134.21112,0.08178
3132.28238,0.08262
3130.35363,0.08334
3128.42489,0.08400
3126.49614,0.08452
3124.56740,0.08494
3122.63865,0.08560
3120.70991,0.08652
3118.78116,0.08734
3116.85242,0.08787
3114.92367,0.08837
3112.99493,0.08915
3111.06618,0.09002
3109.13744,0.09064
3107.20869,0.09109
3105.27994,0.09161
3103.35120,0.09215
3101.42245,0.09265
3099.49371,0.09318
3097.56496,0.09383
3095.63622,0.09451
3093.70747,0.09507
3091.77873,0.09569
3089.84998,0.09646
3087.92124,0.09699
3085.99249,0.09730
3084.06375,0.09785
3082.13500,0.09855
3080.20626,0.09911
3078.27751,0.09964
3076.34877,0.10012
3074.42002,0.10045
3072.49127,0.10080
3070.56253,0.10128
3068.63378,0.10196
3066.70504,0.10276
3064.77629,0.10347
3062.84755,0.10396
3060.91880,0.10429
3058.99006,0.10483
3057.06131,0.10563
3055.13257,0.10625
3053.20382,0.10668
3051.27508,0.10721
3049.34633,0.10764
3047.41759,0.10789
3045.48884,0.10831
3043.56009,0.10902
3041.63135,0.10976
3039.70260,0.11017
3037.77386,0.11045
3035.84511,0.11101
3033.91637,0.11163
3031.98762,0.11190
3030.05888,0.11201
3028.13013,0.11218
3026.20139,0.11218
3024.27264,0.11213
3022.34390,0.11246
3020.41515,0.11287
3018.48641,0.11274
3016.55766,0.11222
3014.62892,0.11191
3012.70017,0.11173
3010.77142,0.11118
3008.84268,0.11040
3006.91393,0.10985
3004.98519,0.10945
3003.05644,0.10901
3001.12770,0.10864
2999.19895,0.10830
2997.27021,0.10785
2995.34146,0.10734
2993.41272,0.10660
2991.48397,0.10550
2989.55523,0.10427
2987.62648,0.10294
2985.69774,0.10144
2983.76899,0.09986
2981.84025,0.09796
2979.91150,0.09560
2977.98275,0.09302
2976.05401,0.09022
2974.12526,0.08723
2972.19652,0.08432
2970.26777,0.08163
2968.33903,0.07934
2966.41028,0.07780
2964.48154,0.07700
2962.55279,0.07641
2960.62405,0.07567
2958.69530,0.07469
2956.76656,0.07354
2954.83781,0.07232
2952.90907,0.07108
2950.98032,0.06986
2949.05157,0.06861
2947.12283,0.06718
2945.19408,0.06574
2943.26534,0.06469
2941.33659,0.06404
2939.40785,0.06355
2937.47910,0.06316
2935.55036,0.06294
2933.62161,0.06274
2931.69287,0.06224
2929.76412,0.06172
2927.83538,0.06154
2925.90663,0.06138
2923.97789,0.06100
2922.04914,0.06057
2920.12040,0.06014
2918.19165,0.05972
2916.26290,0.05944
2914.33416,0.05923
2912.40541,0.05891
2910.47667,0.05858
2908.54792,0.05845
2906.61918,0.05854
2904.69043,0.05871
2902.76169,0.05884
2900.83294,0.05906
2898.90420,0.05957
2896.97545,0.06032
2895.04671,0.06106
2893.11796,0.06159
2891.18922,0.06187
2889.26047,0.06228
2887.33172,0.06311
2885.40298,0.06398
2883.47423,0.06453
2881.54549,0.06484
2879.61674,0.06504
2877.68800,0.06524
2875.75925,0.06551
2873.83051,0.06593
2871.90176,0.06654
2869.97302,0.06723
2868.04427,0.06795
2866.11553,0.06877
2864.18678,0.06974
2862.25804,0.07071
2860.32929,0.07159
2858.40055,0.07249
2856.47180,0.07356
2854.54305,0.07481
2852.61431,0.07616
2850.68556,0.07757
2848.75682,0.07916
2846.82807,0.08097
2844.89933,0.08287
2842.97058,0.08465
2841.04184,0.08645
2839.11309,0.08866
2837.18435,0.09111
2835.25560,0.09332
2833.32686,0.09540
2831.39811,0.09756
2829.46937,0.09976
2827.54062,0.10206
2825.61188,0.10451
2823.68313,0.10670
2821.75438,0.10843
2819.82564,0.11016
2817.89689,0.11211
2815.96815,0.11406
2814.03940,0.11585
2812.11066,0.11752
2810.18191,0.11922
2808.25317,0.12096
2806.32442,0.12252
2804.39568,0.12386
2802.46693,0.12518
2800.53819,0.12651
2798.60944,0.12772
2796.68070,0.12879
2794.75195,0.12982
2792.82320,0.13074
2790.89446,0.13155
2788.96571,0.13235
2787.03697,0.13309
2785.10822,0.13367
2783.17948,0.13415
2781.25073,0.13466
2779.32199,0.13528
2777.39324,0.13596
2775.46450,0.13649
2773.53575,0.13690
2771.60701,0.13743
2769.67826,0.13799
2767.74952,0.13848
2765.82077,0.13905
2763.89203,0.13972
2761.96328,0.14031
2760.03453,0.14070
2758.10579,0.14100
2756.17704,0.14144
2754.24830,0.14204
2752.31955,0.14247
2750.39081,0.14257
2748.46206,0.14264
2746.53332,0.14289
2744.60457,0.14318
2742.67583,0.14348
2740.74708,0.14381
2738.81834,0.14398
2736.88959,0.14404
2734.96085,0.14434
2733.03210,0.14491
2731.10336,0.14555
2729.17461,0.14622
2727.24586,0.14694
2725.31712,0.14756
2723.38837,0.14806
2721.45963,0.14867
2719.53088,0.14948
2717.60214,0.15031
2715.67339,0.15103
2713.74465,0.15179
2711.81590,0.15281
2709.88716,0.15400
2707.95841,0.15508
2706.02967,0.15602
2704.10092,0.15698
2702.17218,0.15802
2700.24343,0.15913
2698.31468,0.16024
2696.38594,0.16117
2694.45719,0.16195
2692.52845,0.16284
2690.59970,0.16386
2688.67096,0.16486
2686.74221,0.16591
2684.81347,0.16696
2682.88472,0.16787
2680.95598,0.16872
2679.02723,0.16960
2677.09849,0.17034
2675.16974,0.17090
2673.24100,0.17147
2671.31225,0.17218
2669.38351,0.17291
2667.45476,0.17342
2665.52601,0.17368
2663.59727,0.17406
2661.66852,0.17468
2659.73978,0.17526
2657.81103,0.17578
2655.88229,0.17643
2653.95354,0.17712
2652.02480,0.17777
2650.09605,0.17841
2648.16731,0.17909
2646.23856,0.17984
2644.30982,0.18066
2642.38107,0.18148
2640.45233,0.18227
2638.52358,0.18308
2636.59484,0.18389
2634.66609,0.18460
2632.73734,0.18517
2630.80860,0.18559
2628.87985,0.18615
2626.95111,0.18697
2625.02236,0.18773
2623.09362,0.18836
2621.16487,0.18909
2619.23613,0.19000
2617.30738,0.19083
2615.37864,0.19139
2613.44989,0.19190
2611.52115,0.19236
2609.59240,0.19268
2607.66366,0.19310
2605.73491,0.19385
2603.80616,0.19469
2601.87742,0.19540
2599.94867,0.19600
2598.01993,0.19650
2596.09118,0.19692
2594.16244,0.19730
2592.23369,0.19772
2590.30495,0.19821
2588.37620,0.19870
2586.44746,0.19916
2584.51871,0.19962
2582.58997,0.20000
2580.66122,0.20033
2578.73248,0.20072
2576.80373,0.20115
2574.87499,0.20156
2572.94624,0.20196
2571.01749,0.20220
2569.08875,0.20223
2567.16000,0.20230
2565.23126,0.20252
2563.30251,0.20256
2561.37377,0.20229
2559.44502,0.20200
2557.51628,0.20198
2555.58753,0.20228
2553.65879,0.20269
2551.73004,0.20278
2549.80130,0.20258
2547.87255,0.20237
2545.94381,0.20231
2544.01506,0.20240
2542.08631,0.20257
2540.15757,0.20283
2538.22882,0.20321
2536.30008,0.20360
2534.37133,0.20391
2532.44259,0.20418
2530.51384,0.20449
2528.58510,0.20485
2526.65635,0.20529
2524.72761,0.20569
2522.79886,0.20592
2520.87012,0.20604
2518.94137,0.20611
2517.01263,0.20631
2515.08388,0.20682
2513.15514,0.20755
2511.22639,0.20842
2509.29764,0.20963
2507.36890,0.21114
2505.44015,0.21262
2503.51141,0.21395
2501.58266,0.21523
2499.65392,0.21635
2497.72517,0.21729
2495.79643,0.21845
2493.86768,0.21999
2491.93894,0.22151
2490.01019,0.22281
2488.08145,0.22396
2486.15270,0.22493
2484.22396,0.22581
2482.29521,0.22670
2480.36647,0.22759
2478.43772,0.22856
2476.50897,0.22963
2474.58023,0.23056
2472.65148,0.23129
2470.72274,0.23214
2468.79399,0.23313
2466.86525,0.23386
2464.93650,0.23425
2463.00776,0.23463
2461.07901,0.23513
2459.15027,0.23579
2457.22152,0.23665
2455.29278,0.23756
2453.36403,0.23824
2451.43529,0.23871
2449.50654,0.23930
2447.57779,0.24014
2445.64905,0.24101
2443.72030,0.24182
2441.79156,0.24268
2439.86281,0.24362
2437.93407,0.24464
2436.00532,0.24571
2434.07658,0.24660
2432.14783,0.24732
2430.21909,0.24809
2428.29034,0.24899
2426.36160,0.25005
2424.43285,0.25119
2422.50411,0.25213
2420.57536,0.25288
2418.64662,0.25368
2416.71787,0.25451
2414.78912,0.25532
2412.86038,0.25628
2410.93163,0.25729
2409.00289,0.25812
2407.07414,0.25886
2405.14540,0.25968
2403.21665,0.26046
2401.28791,0.26106
2399.35916,0.26163
2397.43042,0.26235
2395.50167,0.26315
2393.57293,0.26387
2391.64418,0.26450
2389.71544,0.26513
2387.78669,0.26587
2385.85795,0.26660
2383.92920,0.26719
2382.00045,0.26774
2380.07171,0.26828
2378.14296,0.26879
2376.21422,0.26928
2374.28547,0.26978
2372.35673,0.27033
2370.42798,0.27095
2368.49924,0.27146
2366.57049,0.27173
2364.64175,0.27185
2362.71300,0.27210
2360.78426,0.27254
2358.85551,0.27301
2356.92677,0.27338
2354.99802,0.27371
2353.06927,0.27409
2351.14053,0.27440
2349.21178,0.27482
2347.28304,0.27560
2345.35429,0.27651
2343.42555,0.27718
2341.49680,0.27752
2339.56806,0.27772
2337.63931,0.27800
2335.71057,0.27837
2333.78182,0.27872
2331.85308,0.27904
2329.92433,0.27922
2327.99559,0.27936
2326.06684,0.27969
2324.13810,0.28005
2322.20935,0.28013
2320.28060,0.28002
2318.35186,0.27999
2316.42311,0.28011
2314.49437,0.28022
2312.56562,0.28016
2310.63688,0.28007
2308.70813,0.27998
2306.77939,0.27972
2304.85064,0.27933
2302.92190,0.27895
2300.99315,0.27861
2299.06441,0.27824
2297.13566,0.27785
2295.20692,0.27755
2293.27817,0.27738
2291.34943,0.27718
2289.42068,0.27691
2287.49193,0.27654
2285.56319,0.27603
2283.63444,0.27555
2281.70570,0.27527
2279.77695,0.27500
2277.84821,0.27451
2275.91946,0.27375
2273.99072,0.27298
2272.06197,0.27235
2270.13323,0.27169
2268.20448,0.27085
2266.27574,0.26990
2264.34699,0.26895
2262.41825,0.26795
2260.48950,0.26696
2258.56075,0.26625
2256.63201,0.26594
2254.70326,0.26581
2252.77452,0.26565
2250.84577,0.26548
2248.91703,0.26540
2246.98828,0.26541
2245.05954,0.26542
2243.13079,0.26529
2241.20205,0.26501
2239.27330,0.26470
2237.34456,0.26450
2235.41581,0.26448
2233.48707,0.26452
2231.55832,0.26444
2229.62958,0.26433
2227.70083,0.26446
2225.77208,0.26474
2223.84334,0.26494
2221.91459,0.26501
2219.98585,0.26506
2218.05710,0.26523
2216.12836,0.26542
2214.19961,0.26550
2212.27087,0.26551
2210.34212,0.26548
2208.41338,0.26533
2206.48463,0.26506
2204.55589,0.26489
2202.62714,0.26480
2200.69840,0.26455
2198.76965,0.26410
2196.84090,0.26363
2194.91216,0.26307
2192.98341,0.26234
2191.05467,0.26164
2189.12592,0.26102
2187.19718,0.26030
2185.26843,0.25933
2183.33969,0.25819
2181.41094,0.25700
2179.48220,0.25580
2177.55345,0.25466
2175.62471,0.25366
2173.69596,0.25260
2171.76722,0.25159
2169.83847,0.25077
2167.90973,0.24987
2165.98098,0.24877
2164.05223,0.24773
2162.12349,0.24680
2160.19474,0.24587
2158.26600,0.24505
2156.33725,0.24445
2154.40851,0.24386
2152.47976,0.24325
2150.55102,0.24275
2148.62227,0.24232
2146.69353,0.24185
2144.76478,0.24133
2142.83604,0.24081
2140.90729,0.24031
2138.97855,0.23996
2137.04980,0.23970
2135.12106,0.23940
2133.19231,0.23924
2131.26356,0.23937
2129.33482,0.23965
2127.40607,0.23992
2125.47733,0.24029
2123.54858,0.24075
2121.61984,0.24109
2119.69109,0.24128
2117.76235,0.24147
2115.83360,0.24177
2113.90486,0.24211
2111.97611,0.24234
2110.04737,0.24258
2108.11862,0.24292
2106.18988,0.24320
2104.26113,0.24339
2102.33238,0.24358
2100.40364,0.24392
2098.47489,0.24442
2096.54615,0.24494
2094.61740,0.24526
2092.68866,0.24534
2090.75991,0.24531
2088.83117,0.24526
2086.90242,0.24524
2084.97368,0.24524
2083.04493,0.24517
2081.11619,0.24500
2079.18744,0.24468
2077.25870,0.24418
2075.32995,0.24358
2073.40121,0.24302
2071.47246,0.24255
2069.54371,0.24214
2067.61497,0.24172
2065.68622,0.24132
2063.75748,0.24101
2061.82873,0.24077
2059.89999,0.24055
2057.97124,0.24038
2056.04250,0.24027
2054.11375,0.24017
2052.18501,0.24014
2050.25626,0.24017
2048.32752,0.24025
2046.39877,0.24048
2044.47003,0.24087
2042.54128,0.24138
2040.61254,0.24206
2038.68379,0.24283
2036.75504,0.24367
2034.82630,0.24464
2032.89755,0.24571
2030.96881,0.24681
2029.04006,0.24800
2027.11132,0.24927
2025.18257,0.25052
2023.25383,0.25173
2021.32508,0.25297
2019.39634,0.25428
2017.46759,0.25548
2015.53885,0.25652
2013.61010,0.25758
2011.68136,0.25862
2009.75261,0.25941
2007.82386,0.25997
2005.89512,0.26050
2003.96637,0.26104
2002.03763,0.26151
2000.10888,0.26195
1998.18014,0.26256
1996.25139,0.26329
1994.32265,0.26397
1992.39390,0.26474
1990.46516,0.26572
1988.53641,0.26663
1986.60767,0.26736
1984.67892,0.26803
1982.75018,0.26864
1980.82143,0.26926
1978.89269,0.26988
1976.96394,0.27025
1975.03519,0.27050
1973.10645,0.27090
1971.17770,0.27131
1969.24896,0.27167
1967.32021,0.27198
1965.39147,0.27222
1963.46272,0.27252
1961.53398,0.27304
1959.60523,0.27366
1957.67649,0.27433
1955.74774,0.27507
1953.81900,0.27579
1951.89025,0.27633
1949.96151,0.27680
1948.03276,0.27738
1946.10402,0.27819
1944.17527,0.27915
1942.24652,0.28002
1940.31778,0.28068
1938.38903,0.28128
1936.46029,0.28186
1934.53154,0.28225
1932.60280,0.28247
1930.67405,0.28281
1928.74531,0.28330
1926.81656,0.28373
1924.88782,0.28405
1922.95907,0.28430
1921.03033,0.28451
1919.10158,0.28477
1917.17284,0.28504
1915.24409,0.28523
1913.31534,0.28534
1911.38660,0.28531
1909.45785,0.28521
1907.52911,0.28525
1905.60036,0.28531
1903.67162,0.28513
1901.74287,0.28480
1899.81413,0.28456
1897.88538,0.28439
1895.95664,0.28416
1894.02789,0.28390
1892.09915,0.28364
1890.17040,0.28335
1888.24166,0.28302
1886.31291,0.28281
1884.38417,0.28271
1882.45542,0.28246
1880.52667,0.28201
1878.59793,0.28163
1876.66918,0.28136
1874.74044,0.28099
1872.81169,0.28052
1870.88295,0.28012
1868.95420,0.27971
1867.02546,0.27923
1865.09671,0.27869
1863.16797,0.27800
1861.23922,0.27719
1859.31048,0.27648
1857.38173,0.27596
1855.45299,0.27548
1853.52424,0.27486
1851.59549,0.27400
1849.66675,0.27309
1847.73800,0.27232
1845.80926,0.27154
1843.88051,0.27055
1841.95177,0.26947
1840.02302,0.26853
1838.09428,0.26774
1836.16553,0.26699
1834.23679,0.26627
1832.30804,0.26557
1830.37930,0.26475
1828.45055,0.26365
1826.52181,0.26237
1824.59306,0.26105
1822.66432,0.25995
1820.73557,0.25905
1818.80682,0.25792
1816.87808,0.25655
1814.94933,0.25530
1813.02059,0.25423
1811.09184,0.25300
1809.16310,0.25134
1807.23435,0.24939
1805.30561,0.24722
1803.37686,0.24469
1801.44812,0.24173
1799.51937,0.23877
1797.59063,0.23626
1795.66188,0.23420
1793.73314,0.23244
1791.80439,0.23102
1789.87565,0.22998
1787.94690,0.22887
1786.01815,0.22714
1784.08941,0.22485
1782.16066,0.22233
1780.23192,0.21941
1778.30317,0.21590
1776.37443,0.21208
1774.44568,0.20795
1772.51694,0.20297
1770.58819,0.19705
1768.65945,0.19068
1766.73070,0.18413
1764.80196,0.17765
1762.87321,0.17073
1760.94447,0.16318
1759.01572,0.15598
1757.08697,0.14917
1755.15823,0.14271
1753.22948,0.13691
1751.30074,0.13158
1749.37199,0.12698
1747.44325,0.12343
1745.51450,0.12053
1743.58576,0.11811
1741.65701,0.11638
1739.72827,0.11525
1737.79952,0.11455
1735.87078,0.11429
1733.94203,0.11444
1732.01329,0.11499
1730.08454,0.11582
1728.15580,0.11686
1726.22705,0.11813
1724.29830,0.11971
1722.36956,0.12155
1720.44081,0.12364
1718.51207,0.12611
1716.58332,0.12883
1714.65458,0.13144
1712.72583,0.13398
1710.79709,0.13634
1708.86834,0.13833
1706.93960,0.13999
1705.01085,0.14136
1703.08211,0.14255
1701.15336,0.14360
1699.22462,0.14405
1697.29587,0.14369
1695.36713,0.14266
1693.43838,0.14127
1691.50963,0.13985
1689.58089,0.13818
1687.65214,0.13628
1685.72340,0.13404
1683.79465,0.13094
1681.86591,0.12760
1679.93716,0.12450
1678.00842,0.12132
1676.07967,0.11784
1674.15093,0.11428
1672.22218,0.11118
1670.29344,0.10822
1668.36469,0.10521
1666.43595,0.10285
1664.50720,0.10110
1662.57845,0.09957
1660.64971,0.09850
1658.72096,0.09809
1656.79222,0.09813
1654.86347,0.09851
1652.93473,0.09908
1651.00598,0.09934
1649.07724,0.09941
1647.14849,0.09935
1645.21975,0.09907
1643.29100,0.09879
1641.36226,0.09864
1639.43351,0.09866
1637.50477,0.09866
1635.57602,0.09838
1633.64728,0.09822
1631.71853,0.09857
1629.78978,0.09911
1627.86104,0.09943
1625.93229,0.09951
1624.00355,0.09943
1622.07480,0.09921
1620.14606,0.09889
1618.21731,0.09841
1616.28857,0.09752
1614.35982,0.09631
1612.43108,0.09510
1610.50233,0.09402
1608.57359,0.09325
1606.64484,0.09281
1604.71610,0.09263
1602.78735,0.09266
1600.85861,0.09279
1598.92986,0.09299
1597.00111,0.09324
1595.07237,0.09355
1593.14362,0.09395
1591.21488,0.09462
1589.28613,0.09589
1587.35739,0.09782
1585.42864,0.10032
1583.49990,0.10335
1581.57115,0.10693
1579.64241,0.11091
1577.71366,0.11536
1575.78492,0.12037
1573.85617,0.12486
1571.92743,0.12849
1569.99868,0.13191
1568.06993,0.13505
1566.14119,0.13737
1564.21244,0.13896
1562.28370,0.14020
1560.35495,0.14114
1558.42621,0.14129
1556.49746,0.14052
1554.56872,0.13952
1552.63997,0.13859
1550.71123,0.13758
1548.78248,0.13620
1546.85374,0.13453
1544.92499,0.13280
1542.99625,0.13086
1541.06750,0.12821
1539.13876,0.12449
1537.21001,0.12090
1535.28126,0.11753
1533.35252,0.11323
1531.42377,0.10820
1529.49503,0.10319
1527.56628,0.09778
1525.63754,0.09184
1523.70879,0.08564
1521.78005,0.07857
1519.85130,0.07143
1517.92256,0.06589
1515.99381,0.06184
1514.06507,0.05918
1512.13632,0.05782
1510.20758,0.05736
1508.27883,0.05760
1506.35008,0.05826
1504.42134,0.05892
1502.49259,0.05969
1500.56385,0.06067
1498.63510,0.06151
1496.70636,0.06178
1494.77761,0.06147
1492.84887,0.06098
1490.92012,0.06028
1488.99138,0.05910
1487.06263,0.05746
1485.13389,0.05558
1483.20514,0.05364
1481.27640,0.05195
1479.34765,0.05063
1477.41891,0.04938
1475.49016,0.04789
1473.56141,0.04612
1471.63267,0.04430
1469.70392,0.04302
1467.77518,0.04228
1465.84643,0.04169
1463.91769,0.04097
1461.98894,0.04028
1460.06020,0.03983
1458.13145,0.03943
1456.20271,0.03895
1454.27396,0.03865
1452.34522,0.03858
1450.41647,0.03865
1448.48773,0.03880
1446.55898,0.03873
1444.63024,0.03831
1442.70149,0.03777
1440.77274,0.03723
1438.84400,0.03669
1436.91525,0.03613
1434.98651,0.03561
1433.05776,0.03531
1431.12902,0.03523
1429.20027,0.03530
1427.27153,0.03554
1425.34278,0.03602
1423.41404,0.03672
1421.48529,0.03752
1419.55655,0.03838
1417.62780,0.03916
1415.69906,0.03974
1413.77031,0.04011
1411.84156,0.04030
1409.91282,0.04040
1407.98407,0.04061
1406.05533,0.04088
1404.12658,0.04103
1402.19784,0.04108
1400.26909,0.04116
1398.34035,0.04130
1396.41160,0.04137
1394.48286,0.04124
1392.55411,0.04096
1390.62537,0.04072
1388.69662,0.04037
1386.76788,0.03973
1384.83913,0.03889
1382.91039,0.03815
1380.98164,0.03762
1379.05289,0.03725
1377.12415,0.03696
1375.19540,0.03678
1373.26666,0.03676
1371.33791,0.03703
1369.40917,0.03752
1367.48042,0.03811
1365.55168,0.03863
1363.62293,0.03904
1361.69419,0.03940
1359.76544,0.03969
1357.83670,0.04002
1355.90795,0.04050
1353.97921,0.04092
1352.05046,0.04113
1350.12172,0.04120
1348.19297,0.04123
1346.26422,0.04117
1344.33548,0.04101
1342.40673,0.04084
1340.47799,0.04077
1338.54924,0.04076
1336.62050,0.04082
1334.69175,0.04108
1332.76301,0.04154
1330.83426,0.04195
1328.90552,0.04211
1326.97677,0.04204
1325.04803,0.04172
1323.11928,0.04122
1321.19054,0.04090
1319.26179,0.04098
1317.33304,0.04131
1315.40430,0.04173
1313.47555,0.04227
1311.54681,0.04305
1309.61806,0.04404
1307.68932,0.04496
1305.76057,0.04563
1303.83183,0.04611
1301.90308,0.04653
1299.97434,0.04687
1298.04559,0.04705
1296.11685,0.04697
1294.18810,0.04662
1292.25936,0.04606
1290.33061,0.04527
1288.40187,0.04427
1286.47312,0.04324
1284.54437,0.04235
1282.61563,0.04180
1280.68688,0.04163
1278.75814,0.04164
1276.82939,0.04156
1274.90065,0.04143
1272.97190,0.04140
1271.04316,0.04142
1269.11441,0.04142
1267.18567,0.04150
1265.25692,0.04168
1263.32818,0.04184
1261.39943,0.04204
1259.47069,0.04237
1257.54194,0.04276
1255.61320,0.04309
1253.68445,0.04333
1251.75570,0.04355
1249.82696,0.04369
1247.89821,0.04376
1245.96947,0.04386
1244.04072,0.04384
1242.11198,0.04374
1240.18323,0.04363
1238.25449,0.04325
1236.32574,0.04260
1234.39700,0.04221
1232.46825,0.04237
1230.53951,0.04282
1228.61076,0.04329
1226.68202,0.04371
1224.75327,0.04396
1222.82452,0.04409
1220.89578,0.04425
1218.96703,0.04430
1217.03829,0.04409
1215.10954,0.04373
1213.18080,0.04331
1211.25205,0.04278
1209.32331,0.04225
1207.39456,0.04199
1205.46582,0.04212
1203.53707,0.04245
1201.60833,0.04271
1199.67958,0.04300
1197.75084,0.04329
1195.82209,0.04317
1193.89335,0.04254
1191.96460,0.04181
1190.03585,0.04110
1188.10711,0.03995
1186.17836,0.03841
1184.24962,0.03694
1182.32087,0.03553
1180.39213,0.03422
1178.46338,0.03311
1176.53464,0.03187
1174.60589,0.03048
1172.67715,0.02950
1170.74840,0.02927
1168.81966,0.02962
1166.89091,0.03026
1164.96217,0.03107
1163.03342,0.03190
1161.10467,0.03253
1159.17593,0.03287
1157.24718,0.03301
1155.31844,0.03305
1153.38969,0.03309
1151.46095,0.03316
1149.53220,0.03307
1147.60346,0.03263
1145.67471,0.03205
1143.74597,0.03146
1141.81722,0.03087
1139.88848,0.03046
1137.95973,0.03023
1136.03099,0.02987
1134.10224,0.02939
1132.17350,0.02908
1130.24475,0.02889
1128.31600,0.02866
1126.38726,0.02852
1124.45851,0.02864
1122.52977,0.02894
1120.60102,0.02929
1118.67228,0.02955
1116.74353,0.02962
1114.81479,0.02979
1112.88604,0.03035
1110.95730,0.03110
1109.02855,0.03161
1107.09981,0.03178
1105.17106,0.03175
1103.24232,0.03157
1101.31357,0.03129
1099.38483,0.03096
1097.45608,0.03068
1095.52733,0.03071
1093.59859,0.03108
1091.66984,0.03134
1089.74110,0.03119
1087.81235,0.03093
1085.88361,0.03077
1083.95486,0.03054
1082.02612,0.03049
1080.09737,0.03104
1078.16863,0.03194
1076.23988,0.03282
1074.31114,0.03334
1072.38239,0.03370
1070.45365,0.03438
1068.52490,0.03539
1066.59615,0.03669
1064.66741,0.03836
1062.73866,0.04021
1060.80992,0.04181
1058.88117,0.04275
1056.95243,0.04303
1055.02368,0.04319
1053.09494,0.04353
1051.16619,0.04368
1049.23745,0.04334
1047.30870,0.04273
1045.37996,0.04207
1043.45121,0.04164
1041.52247,0.04206
1039.59372,0.04330
1037.66498,0.04453
1035.73623,0.04556
1033.80748,0.04656
1031.87874,0.04730
1029.94999,0.04773
1028.02125,0.04809
1026.09250,0.04853
1024.16376,0.04908
1022.23501,0.04951
1020.30627,0.04967
1018.37752,0.04980
1016.44878,0.05022
1014.52003,0.05084
1012.59129,0.05153
1010.66254,0.05229
1008.73380,0.05298
1006.80505,0.05353
1004.87631,0.05405
1002.94756,0.05472
1001.01881,0.05572
999.09007,0.05702
997.16132,0.05825
995.23258,0.05920
993.30383,0.06005
991.37509,0.06090
989.44634,0.06175
987.51760,0.06289
985.58885,0.06490
983.66011,0.06782
981.73136,0.07079
979.80262,0.07327
977.87387,0.07538
975.94513,0.07705
974.01638,0.07832
972.08763,0.07949
970.15889,0.08076
968.23014,0.08230
966.30140,0.08414
964.37265,0.08597
962.44391,0.08773
960.51516,0.08971
958.58642,0.09205
956.65767,0.09459
954.72893,0.09677
952.80018,0.09817
950.87144,0.09919
948.94269,0.10044
947.01395,0.10184
945.08520,0.10294
943.15646,0.10357
941.22771,0.10385
939.29896,0.10419
937.37022,0.10483
935.44147,0.10552
933.51273,0.10612
931.58398,0.10674
929.65524,0.10751
927.72649,0.10801
925.79775,0.10773
923.86900,0.10693
921.94026,0.10595
920.01151,0.10463
918.08277,0.10305
916.15402,0.10142
914.22528,0.09972
912.29653,0.09794
910.36779,0.09630
908.43904,0.09533
906.51029,0.09475
904.58155,0.09349
902.65280,0.09172
900.72406,0.09069
898.79531,0.09062
896.86657,0.09124
894.93782,0.09268
893.00908,0.09486
891.08033,0.09740
889.15159,0.10001
887.22284,0.10219
885.29410,0.10340
883.36535,0.10388
881.43661,0.10405
879.50786,0.10402
877.57911,0.10363
875.65037,0.10322
873.72162,0.10397
871.79288,0.10641
869.86413,0.10943
867.93539,0.11175
866.00664,0.11312
864.07790,0.11391
862.14915,0.11448
860.22041,0.11488
858.29166,0.11478
856.36292,0.11447
854.43417,0.11496
852.50543,0.11648
850.57668,0.11816
848.64794,0.11933
846.71919,0.12000
844.79044,0.12025
842.86170,0.12018
840.93295,0.11997
839.00421,0.11941
837.07546,0.11835
835.14672,0.11704
833.21797,0.11544
831.28923,0.11358
829.36048,0.11184
827.43174,0.11029
825.50299,0.10889
823.57425,0.10729
821.64550,0.10504
819.71676,0.10275
817.78801,0.10123
815.85926,0.10014
813.93052,0.09897
812.00177,0.09783
810.07303,0.09689
808.14428,0.09612
806.21554,0.09566
804.28679,0.09551
802.35805,0.09561
800.42930,0.09599
798.50056,0.09628
796.57181,0.09635
794.64307,0.09636
792.71432,0.09610
790.78558,0.09537
788.85683,0.09462
786.92809,0.09421
784.99934,0.09393
783.07059,0.09355
781.14185,0.09284
779.21310,0.09175
777.28436,0.09076
775.35561,0.09009
773.42687,0.08934
771.49812,0.08839
769.56938,0.08739
767.64063,0.08619
765.71189,0.08485
763.78314,0.08373
761.85440,0.08279
759.92565,0.08191
757.99691,0.08114
756.06816,0.08056
754.13942,0.08007
752.21067,0.07929
750.28192,0.07839
748.35318,0.07778
746.42443,0.07730
744.49569,0.07666
742.56694,0.07578
740.63820,0.07478
738.70945,0.07364
736.78071,0.07218
734.85196,0.07066
732.92322,0.06932
730.99447,0.06804
729.06573,0.06666
727.13698,0.06527
725.20824,0.06409
723.27949,0.06327
721.35074,0.06251
719.42200,0.06123
717.49325,0.05965
715.56451,0.05860
713.63576,0.05828
711.70702,0.05822
709.77827,0.05795
707.84953,0.05730
705.92078,0.05632
703.99204,0.05546
702.06329,0.05510
700.13455,0.05502
698.20580,0.05497
696.27706,0.05486
694.34831,0.05462
692.41957,0.05416
690.49082,0.05353
688.56207,0.05306
686.63333,0.05299
684.70458,0.05301
682.77584,0.05238
680.84709,0.05089
678.91835,0.04939
676.98960,0.04865
675.06086,0.04834
673.13211,0.04778
671.20337,0.04700
669.27462,0.04665
667.34588,0.04701
665.41713,0.04775
663.48839,0.04832
661.55964,0.04863
659.63090,0.04909
657.70215,0.04958
655.77340,0.04973
653.84466,0.04978
651.91591,0.04966
649.98717,0.04900
648.05842,0.04812
646.12968,0.04739
644.20093,0.04681
642.27219,0.04647
640.34344,0.04660
638.41470,0.04663
636.48595,0.04546
634.55721,0.04360
632.62846,0.04289
630.69972,0.04382
628.77097,0.04507
626.84222,0.04531
624.91348,0.04499
622.98473,0.04482
621.05599,0.04450
619.12724,0.04419
617.19850,0.04387
615.26975,0.04312
613.34101,0.04259
611.41226,0.04324
609.48352,0.04454
607.55477,0.04540
605.62603,0.04622
603.69728,0.04716
601.76854,0.04750
599.83979,0.04751
