7497.03301,0.52589
7495.10426,0.52202
7493.17552,0.52109
7491.24677,0.52347
7489.31803,0.52474
7487.38928,0.52370
7485.46054,0.52104
7483.53179,0.51656
7481.60305,0.51443
7479.67430,0.51587
7477.74556,0.51693
7475.81681,0.51737
7473.88807,0.51842
7471.95932,0.51981
7470.03057,0.52115
7468.10183,0.52378
7466.17308,0.52866
7464.24434,0.53361
7462.31559,0.53687
7460.38685,0.53743
7458.45810,0.53466
7456.52936,0.52960
7454.60061,0.52434
7452.67187,0.52160
7450.74312,0.52139
7448.81438,0.52080
7446.88563,0.51755
7444.95689,0.51553
7443.02814,0.51854
7441.09940,0.52018
7439.17065,0.51929
7437.24190,0.52340
7435.31316,0.52839
7433.38441,0.52789
7431.45567,0.52809
7429.52692,0.53056
7427.59818,0.52785
7425.66943,0.52031
7423.74069,0.51595
7421.81194,0.51883
7419.88320,0.52391
7417.95445,0.52382
7416.02571,0.51962
7414.09696,0.51745
7412.16822,0.51912
7410.23947,0.52095
7408.31073,0.51984
7406.38198,0.51820
7404.45323,0.51932
7402.52449,0.52188
7400.59574,0.52340
7398.66700,0.52428
7396.73825,0.52346
7394.80951,0.51888
7392.88076,0.51366
7390.95202,0.51233
7389.02327,0.51342
7387.09453,0.51330
7385.16578,0.51343
7383.23704,0.51595
7381.30829,0.51883
7379.37955,0.52085
7377.45080,0.52205
7375.52205,0.52159
7373.59331,0.51948
7371.66456,0.51817
7369.73582,0.51989
7367.80707,0.52245
7365.87833,0.52298
7363.94958,0.52216
7362.02084,0.52019
7360.09209,0.51748
7358.16335,0.51832
7356.23460,0.52349
7354.30586,0.52602
7352.37711,0.52456
7350.44837,0.52443
7348.51962,0.52455
7346.59088,0.52354
7344.66213,0.52427
7342.73338,0.52430
7340.80464,0.52082
7338.87589,0.51867
7336.94715,0.52053
7335.01840,0.52255
7333.08966,0.52349
7331.16091,0.52406
7329.23217,0.52332
7327.30342,0.52159
7325.37468,0.52013
7323.44593,0.52106
7321.51719,0.52413
7319.58844,0.52435
7317.65970,0.52029
7315.73095,0.51572
7313.80221,0.51410
7311.87346,0.51613
7309.94471,0.51898
7308.01597,0.51992
7306.08722,0.52024
7304.15848,0.52153
7302.22973,0.52115
7300.30099,0.51694
7298.37224,0.51246
7296.44350,0.51102
7294.51475,0.51087
7292.58601,0.51067
7290.65726,0.51160
7288.72852,0.51378
7286.79977,0.51600
7284.87103,0.51660
7282.94228,0.51708
7281.01353,0.52039
7279.08479,0.52347
7277.15604,0.52381
7275.22730,0.52466
7273.29855,0.52527
7271.36981,0.52236
7269.44106,0.51903
7267.51232,0.51907
7265.58357,0.52134
7263.65483,0.52476
7261.72608,0.52727
7259.79734,0.52561
7257.86859,0.52297
7255.93985,0.52257
7254.01110,0.52082
7252.08236,0.51690
7250.15361,0.51457
7248.22486,0.51468
7246.29612,0.51448
7244.36737,0.51250
7242.43863,0.51115
7240.50988,0.51280
7238.58114,0.51594
7236.65239,0.51738
7234.72365,0.51655
7232.79490,0.51628
7230.86616,0.51720
7228.93741,0.51708
7227.00867,0.51624
7225.07992,0.51567
7223.15118,0.51523
7221.22243,0.51559
7219.29369,0.51738
7217.36494,0.51904
7215.43619,0.51818
7213.50745,0.51731
7211.57870,0.51872
7209.64996,0.52060
7207.72121,0.52417
7205.79247,0.52857
7203.86372,0.53053
7201.93498,0.53053
7200.00623,0.52676
7198.07749,0.51987
7196.14874,0.51525
7194.22000,0.51378
7192.29125,0.51403
7190.36251,0.51375
7188.43376,0.51084
7186.50501,0.51005
7184.57627,0.51542
7182.64752,0.52086
7180.71878,0.52013
7178.79003,0.51764
7176.86129,0.51874
7174.93254,0.52070
7173.00380,0.51989
7171.07505,0.51660
7169.14631,0.51371
7167.21756,0.51487
7165.28882,0.51735
7163.36007,0.51636
7161.43133,0.51606
7159.50258,0.52046
7157.57384,0.52485
7155.64509,0.52511
7153.71634,0.52290
7151.78760,0.51948
7149.85885,0.51552
7147.93011,0.51404
7146.00136,0.51489
7144.07262,0.51542
7142.14387,0.51665
7140.21513,0.51961
7138.28638,0.52149
7136.35764,0.52015
7134.42889,0.51727
7132.50015,0.51464
7130.57140,0.51254
7128.64266,0.51223
7126.71391,0.51464
7124.78516,0.51802
7122.85642,0.51936
7120.92767,0.51756
7118.99893,0.51515
7117.07018,0.51587
7115.14144,0.51834
7113.21269,0.51781
7111.28395,0.51455
7109.35520,0.51185
7107.42646,0.51044
7105.49771,0.50927
7103.56897,0.50790
7101.64022,0.50716
7099.71148,0.50792
7097.78273,0.51107
7095.85399,0.51552
7093.92524,0.51702
7091.99649,0.51525
7090.06775,0.51299
7088.13900,0.51022
7086.21026,0.50793
7084.28151,0.50769
7082.35277,0.50861
7080.42402,0.50885
7078.49528,0.50719
7076.56653,0.50555
7074.63779,0.50575
7072.70904,0.50622
7070.78030,0.50533
7068.85155,0.50245
7066.92281,0.49886
7064.99406,0.49817
7063.06532,0.50039
7061.13657,0.50185
7059.20782,0.50252
7057.27908,0.50372
7055.35033,0.50365
7053.42159,0.50246
7051.49284,0.50211
7049.56410,0.50222
7047.63535,0.50200
7045.70661,0.50103
7043.77786,0.49913
7041.84912,0.49836
7039.92037,0.50134
7037.99163,0.50463
7036.06288,0.50343
7034.13414,0.50188
7032.20539,0.50284
7030.27664,0.50203
7028.34790,0.50050
7026.41915,0.50062
7024.49041,0.49977
7022.56166,0.49875
7020.63292,0.49901
7018.70417,0.49756
7016.77543,0.49446
7014.84668,0.49210
7012.91794,0.49093
7010.98919,0.49243
7009.06045,0.49511
7007.13170,0.49466
7005.20296,0.49351
7003.27421,0.49345
7001.34547,0.49104
6999.41672,0.48875
6997.48797,0.49029
6995.55923,0.49245
6993.63048,0.49287
6991.70174,0.49497
6989.77299,0.50104
6987.84425,0.50532
6985.91550,0.50273
6983.98676,0.49724
6982.05801,0.49266
6980.12927,0.48856
6978.20052,0.48675
6976.27178,0.48883
6974.34303,0.49146
6972.41429,0.49157
6970.48554,0.49080
6968.55680,0.49213
6966.62805,0.49500
6964.69930,0.49606
6962.77056,0.49482
6960.84181,0.49321
6958.91307,0.49146
6956.98432,0.48980
6955.05558,0.48941
6953.12683,0.48992
6951.19809,0.49026
6949.26934,0.49094
6947.34060,0.49310
6945.41185,0.49598
6943.48311,0.49565
6941.55436,0.49119
6939.62562,0.48801
6937.69687,0.48853
6935.76812,0.48891
6933.83938,0.48641
6931.91063,0.48379
6929.98189,0.48420
6928.05314,0.48519
6926.12440,0.48377
6924.19565,0.48181
6922.26691,0.48251
6920.33816,0.48582
6918.40942,0.48873
6916.48067,0.49080
6914.55193,0.49350
6912.62318,0.49525
6910.69444,0.49488
6908.76569,0.49416
6906.83695,0.49403
6904.90820,0.49300
6902.97945,0.49054
6901.05071,0.48939
6899.12196,0.49085
6897.19322,0.49209
6895.26447,0.49152
6893.33573,0.49145
6891.40698,0.49262
6889.47824,0.49100
6887.54949,0.48579
6885.62075,0.48189
6883.69200,0.48158
6881.76326,0.48388
6879.83451,0.48692
6877.90577,0.48748
6875.97702,0.48650
6874.04828,0.48684
6872.11953,0.48666
6870.19078,0.48555
6868.26204,0.48589
6866.33329,0.48606
6864.40455,0.48452
6862.47580,0.48255
6860.54706,0.48138
6858.61831,0.48288
6856.68957,0.48656
6854.76082,0.48866
6852.83208,0.48762
6850.90333,0.48558
6848.97459,0.48533
6847.04584,0.48726
6845.11710,0.48938
6843.18835,0.48970
6841.25960,0.48790
6839.33086,0.48591
6837.40211,0.48541
6835.47337,0.48630
6833.54462,0.48822
6831.61588,0.48964
6829.68713,0.48888
6827.75839,0.48748
6825.82964,0.48704
6823.90090,0.48730
6821.97215,0.48844
6820.04341,0.48945
6818.11466,0.48860
6816.18592,0.48696
6814.25717,0.48630
6812.32843,0.48660
6810.39968,0.48756
6808.47093,0.48795
6806.54219,0.48659
6804.61344,0.48528
6802.68470,0.48534
6800.75595,0.48591
6798.82721,0.48658
6796.89846,0.48726
6794.96972,0.48777
6793.04097,0.48798
6791.11223,0.48857
6789.18348,0.48910
6787.25474,0.48696
6785.32599,0.48252
6783.39725,0.48013
6781.46850,0.48209
6779.53975,0.48583
6777.61101,0.48729
6775.68226,0.48522
6773.75352,0.48288
6771.82477,0.48305
6769.89603,0.48320
6767.96728,0.48195
6766.03854,0.48262
6764.10979,0.48545
6762.18105,0.48602
6760.25230,0.48356
6758.32356,0.48331
6756.39481,0.48728
6754.46607,0.49015
6752.53732,0.48733
6750.60858,0.48284
6748.67983,0.48308
6746.75108,0.48617
6744.82234,0.48761
6742.89359,0.48826
6740.96485,0.48944
6739.03610,0.48937
6737.10736,0.48738
6735.17861,0.48546
6733.24987,0.48407
6731.32112,0.48233
6729.39238,0.48102
6727.46363,0.48097
6725.53489,0.48139
6723.60614,0.48146
6721.67740,0.48155
6719.74865,0.48204
6717.81991,0.48212
6715.89116,0.48093
6713.96241,0.48012
6712.03367,0.48141
6710.10492,0.48370
6708.17618,0.48578
6706.24743,0.48665
6704.31869,0.48648
6702.38994,0.48693
6700.46120,0.48833
6698.53245,0.49012
6696.60371,0.49109
6694.67496,0.49019
6692.74622,0.48776
6690.81747,0.48435
6688.88873,0.48151
6686.95998,0.48093
6685.03123,0.48196
6683.10249,0.48348
6681.17374,0.48585
6679.24500,0.48890
6677.31625,0.49054
6675.38751,0.48984
6673.45876,0.48929
6671.53002,0.48963
6669.60127,0.48950
6667.67253,0.48996
6665.74378,0.49061
6663.81504,0.48965
6661.88629,0.48761
6659.95755,0.48534
6658.02880,0.48472
6656.10006,0.48643
6654.17131,0.48728
6652.24256,0.48606
6650.31382,0.48378
6648.38507,0.48167
6646.45633,0.48264
6644.52758,0.48600
6642.59884,0.48816
6640.67009,0.48907
6638.74135,0.48947
6636.81260,0.48990
6634.88386,0.49079
6632.95511,0.49047
6631.02637,0.48888
6629.09762,0.48785
6627.16888,0.48795
6625.24013,0.48852
6623.31139,0.48943
6621.38264,0.49079
6619.45389,0.49075
6617.52515,0.48892
6615.59640,0.48823
6613.66766,0.48924
6611.73891,0.49027
6609.81017,0.48978
6607.88142,0.48785
6605.95268,0.48770
6604.02393,0.48988
6602.09519,0.49064
6600.16644,0.48943
6598.23770,0.48848
6596.30895,0.48817
6594.38021,0.48819
6592.45146,0.48923
6590.52271,0.49142
6588.59397,0.49367
6586.66522,0.49409
6584.73648,0.49115
6582.80773,0.48753
6580.87899,0.48744
6578.95024,0.48994
6577.02150,0.49181
6575.09275,0.49167
6573.16401,0.49022
6571.23526,0.49021
6569.30652,0.49158
6567.37777,0.49145
6565.44903,0.49018
6563.52028,0.48972
6561.59154,0.49021
6559.66279,0.49119
6557.73404,0.49235
6555.80530,0.49324
6553.87655,0.49243
6551.94781,0.48999
6550.01906,0.48950
6548.09032,0.49147
6546.16157,0.49344
6544.23283,0.49525
6542.30408,0.49624
6540.37534,0.49530
6538.44659,0.49323
6536.51785,0.49094
6534.58910,0.48906
6532.66036,0.48797
6530.73161,0.48790
6528.80287,0.48959
6526.87412,0.49318
6524.94537,0.49581
6523.01663,0.49455
6521.08788,0.49184
6519.15914,0.49051
6517.23039,0.48845
6515.30165,0.48501
6513.37290,0.48347
6511.44416,0.48475
6509.51541,0.48705
6507.58667,0.48951
6505.65792,0.49147
6503.72918,0.49205
6501.80043,0.49236
6499.87169,0.49326
6497.94294,0.49217
6496.01419,0.48873
6494.08545,0.48695
6492.15670,0.48773
6490.22796,0.48899
6488.29921,0.48941
6486.37047,0.48744
6484.44172,0.48438
6482.51298,0.48371
6480.58423,0.48559
6478.65549,0.48842
6476.72674,0.49124
6474.79800,0.49294
6472.86925,0.49296
6470.94051,0.49123
6469.01176,0.48843
6467.08302,0.48658
6465.15427,0.48649
6463.22552,0.48756
6461.29678,0.48920
6459.36803,0.49013
6457.43929,0.49027
6455.51054,0.48961
6453.58180,0.48720
6451.65305,0.48655
6449.72431,0.49007
6447.79556,0.49254
6445.86682,0.49125
6443.93807,0.49027
6442.00933,0.49043
6440.08058,0.48933
6438.15184,0.48826
6436.22309,0.48841
6434.29434,0.48860
6432.36560,0.48913
6430.43685,0.49068
6428.50811,0.49347
6426.57936,0.49563
6424.65062,0.49415
6422.72187,0.49035
6420.79313,0.48792
6418.86438,0.48822
6416.93564,0.48969
6415.00689,0.49156
6413.07815,0.49472
6411.14940,0.49675
6409.22066,0.49487
6407.29191,0.49062
6405.36317,0.48802
6403.43442,0.49017
6401.50567,0.49337
6399.57693,0.49193
6397.64818,0.48906
6395.71944,0.48963
6393.79069,0.49182
6391.86195,0.49306
6389.93320,0.49373
6388.00446,0.49384
6386.07571,0.49264
6384.14697,0.49123
6382.21822,0.49101
6380.28948,0.49171
6378.36073,0.49179
6376.43199,0.49071
6374.50324,0.49095
6372.57450,0.49248
6370.64575,0.49187
6368.71700,0.48967
6366.78826,0.48950
6364.85951,0.49158
6362.93077,0.49228
6361.00202,0.49034
6359.07328,0.48940
6357.14453,0.49077
6355.21579,0.49108
6353.28704,0.49007
6351.35830,0.49018
6349.42955,0.49093
6347.50081,0.49198
6345.57206,0.49320
6343.64332,0.49247
6341.71457,0.49075
6339.78582,0.49185
6337.85708,0.49498
6335.92833,0.49631
6333.99959,0.49614
6332.07084,0.49585
6330.14210,0.49505
6328.21335,0.49521
6326.28461,0.49643
6324.35586,0.49565
6322.42712,0.49287
6320.49837,0.49125
6318.56963,0.49152
6316.64088,0.49213
6314.71214,0.49252
6312.78339,0.49322
6310.85465,0.49425
6308.92590,0.49396
6306.99715,0.49190
6305.06841,0.49063
6303.13966,0.49155
6301.21092,0.49294
6299.28217,0.49351
6297.35343,0.49421
6295.42468,0.49469
6293.49594,0.49423
6291.56719,0.49349
6289.63845,0.49200
6287.70970,0.49147
6285.78096,0.49365
6283.85221,0.49533
6281.92347,0.49569
6279.99472,0.49690
6278.06598,0.49832
6276.13723,0.49886
6274.20848,0.49819
6272.27974,0.49648
6270.35099,0.49501
6268.42225,0.49463
6266.49350,0.49535
6264.56476,0.49635
6262.63601,0.49710
6260.70727,0.49844
6258.77852,0.49997
6256.84978,0.49962
6254.92103,0.49769
6252.99229,0.49677
6251.06354,0.49776
6249.13480,0.49878
6247.20605,0.49838
6245.27730,0.49747
6243.34856,0.49696
6241.41981,0.49685
6239.49107,0.49752
6237.56232,0.49833
6235.63358,0.49818
6233.70483,0.49907
6231.77609,0.50214
6229.84734,0.50382
6227.91860,0.50228
6225.98985,0.49984
6224.06111,0.49911
6222.13236,0.50100
6220.20362,0.50365
6218.27487,0.50462
6216.34613,0.50424
6214.41738,0.50348
6212.48863,0.50209
6210.55989,0.50069
6208.63114,0.50011
6206.70240,0.49995
6204.77365,0.50057
6202.84491,0.50265
6200.91616,0.50483
6198.98742,0.50530
6197.05867,0.50468
6195.12993,0.50408
6193.20118,0.50390
6191.27244,0.50500
6189.34369,0.50583
6187.41495,0.50439
6185.48620,0.50332
6183.55746,0.50467
6181.62871,0.50596
6179.69996,0.50561
6177.77122,0.50516
6175.84247,0.50493
6173.91373,0.50406
6171.98498,0.50457
6170.05624,0.50754
6168.12749,0.50966
6166.19875,0.50876
6164.27000,0.50718
6162.34126,0.50692
6160.41251,0.50703
6158.48377,0.50704
6156.55502,0.50732
6154.62628,0.50779
6152.69753,0.50870
6150.76878,0.50960
6148.84004,0.50955
6146.91129,0.50871
6144.98255,0.50772
6143.05380,0.50651
6141.12506,0.50577
6139.19631,0.50665
6137.26757,0.50770
6135.33882,0.50740
6133.41008,0.50794
6131.48133,0.51049
6129.55259,0.51212
6127.62384,0.51099
6125.69510,0.50908
6123.76635,0.50840
6121.83761,0.50849
6119.90886,0.50782
6117.98011,0.50611
6116.05137,0.50562
6114.12262,0.50799
6112.19388,0.51147
6110.26513,0.51351
6108.33639,0.51268
6106.40764,0.51012
6104.47890,0.50924
6102.55015,0.51113
6100.62141,0.51342
6098.69266,0.51389
6096.76392,0.51269
6094.83517,0.51132
6092.90643,0.51069
6090.97768,0.51089
6089.04893,0.51130
6087.12019,0.51114
6085.19144,0.51049
6083.26270,0.51011
6081.33395,0.51062
6079.40521,0.51169
6077.47646,0.51210
6075.54772,0.51177
6073.61897,0.51128
6071.69023,0.51049
6069.76148,0.51012
6067.83274,0.51111
6065.90399,0.51288
6063.97525,0.51398
6062.04650,0.51346
6060.11776,0.51211
6058.18901,0.51093
6056.26026,0.51040
6054.33152,0.51102
6052.40277,0.51170
6050.47403,0.51148
6048.54528,0.51103
6046.61654,0.51062
6044.68779,0.51064
6042.75905,0.51165
6040.83030,0.51294
6038.90156,0.51391
6036.97281,0.51397
6035.04407,0.51281
6033.11532,0.51170
6031.18658,0.51132
6029.25783,0.51172
6027.32909,0.51323
6025.40034,0.51496
6023.47159,0.51559
6021.54285,0.51439
6019.61410,0.51255
6017.68536,0.51204
6015.75661,0.51194
6013.82787,0.51111
6011.89912,0.51062
6009.97038,0.51088
6008.04163,0.51153
6006.11289,0.51280
6004.18414,0.51380
6002.25540,0.51358
6000.32665,0.51278
5998.39791,0.51115
5996.46916,0.50937
5994.54041,0.50994
5992.61167,0.51208
5990.68292,0.51318
5988.75418,0.51354
5986.82543,0.51453
5984.89669,0.51547
5982.96794,0.51552
5981.03920,0.51496
5979.11045,0.51388
5977.18171,0.51330
5975.25296,0.51399
5973.32422,0.51446
5971.39547,0.51395
5969.46673,0.51353
5967.53798,0.51343
5965.60924,0.51311
5963.68049,0.51304
5961.75174,0.51370
5959.82300,0.51387
5957.89425,0.51251
5955.96551,0.51113
5954.03676,0.51135
5952.10802,0.51235
5950.17927,0.51259
5948.25053,0.51179
5946.32178,0.51122
5944.39304,0.51244
5942.46429,0.51508
5940.53555,0.51698
5938.60680,0.51717
5936.67806,0.51666
5934.74931,0.51604
5932.82057,0.51512
5930.89182,0.51434
5928.96307,0.51395
5927.03433,0.51317
5925.10558,0.51194
5923.17684,0.51161
5921.24809,0.51266
5919.31935,0.51340
5917.39060,0.51276
5915.46186,0.51194
5913.53311,0.51136
5911.60437,0.51072
5909.67562,0.51089
5907.74688,0.51205
5905.81813,0.51309
5903.88939,0.51297
5901.96064,0.51172
5900.03189,0.51097
5898.10315,0.51126
5896.17440,0.51106
5894.24566,0.51015
5892.31691,0.51040
5890.38817,0.51180
5888.45942,0.51189
5886.53068,0.51045
5884.60193,0.50947
5882.67319,0.50908
5880.74444,0.50862
5878.81570,0.50908
5876.88695,0.51082
5874.95821,0.51240
5873.02946,0.51282
5871.10072,0.51228
5869.17197,0.51143
5867.24322,0.51103
5865.31448,0.51124
5863.38573,0.51121
5861.45699,0.51134
5859.52824,0.51270
5857.59950,0.51349
5855.67075,0.51164
5853.74201,0.50880
5851.81326,0.50803
5849.88452,0.50963
5847.95577,0.51083
5846.02703,0.51014
5844.09828,0.50930
5842.16954,0.50961
5840.24079,0.51007
5838.31205,0.51056
5836.38330,0.51208
5834.45455,0.51304
5832.52581,0.51179
5830.59706,0.51000
5828.66832,0.50997
5826.73957,0.51134
5824.81083,0.51182
5822.88208,0.51124
5820.95334,0.51106
5819.02459,0.51059
5817.09585,0.50938
5815.16710,0.50904
5813.23836,0.50950
5811.30961,0.50978
5809.38087,0.51025
5807.45212,0.51073
5805.52337,0.51050
5803.59463,0.51032
5801.66588,0.51108
5799.73714,0.51197
5797.80839,0.51186
5795.87965,0.51136
5793.95090,0.51100
5792.02216,0.51012
5790.09341,0.50881
5788.16467,0.50782
5786.23592,0.50752
5784.30718,0.50826
5782.37843,0.50991
5780.44969,0.51187
5778.52094,0.51324
5776.59220,0.51264
5774.66345,0.51069
5772.73470,0.50977
5770.80596,0.50991
5768.87721,0.50963
5766.94847,0.50916
5765.01972,0.50947
5763.09098,0.51005
5761.16223,0.50981
5759.23349,0.50904
5757.30474,0.50847
5755.37600,0.50871
5753.44725,0.51018
5751.51851,0.51184
5749.58976,0.51226
5747.66102,0.51168
5745.73227,0.51102
5743.80352,0.51083
5741.87478,0.51087
5739.94603,0.51083
5738.01729,0.51095
5736.08854,0.51124
5734.15980,0.51115
5732.23105,0.51053
5730.30231,0.51042
5728.37356,0.51166
5726.44482,0.51267
5724.51607,0.51222
5722.58733,0.51157
5720.65858,0.51129
5718.72984,0.51073
5716.80109,0.51003
5714.87235,0.51005
5712.94360,0.51064
5711.01485,0.51089
5709.08611,0.51100
5707.15736,0.51129
5705.22862,0.51122
5703.29987,0.51087
5701.37113,0.51111
5699.44238,0.51207
5697.51364,0.51242
5695.58489,0.51105
5693.65615,0.50946
5691.72740,0.50971
5689.79866,0.51134
5687.86991,0.51242
5685.94117,0.51174
5684.01242,0.51028
5682.08368,0.50992
5680.15493,0.51054
5678.22618,0.51125
5676.29744,0.51213
5674.36869,0.51299
5672.43995,0.51341
5670.51120,0.51303
5668.58246,0.51137
5666.65371,0.50999
5664.72497,0.51077
5662.79622,0.51177
5660.86748,0.51113
5658.93873,0.51043
5657.00999,0.51052
5655.08124,0.51060
5653.15250,0.51074
5651.22375,0.51093
5649.29500,0.51113
5647.36626,0.51150
5645.43751,0.51153
5643.50877,0.51133
5641.58002,0.51153
5639.65128,0.51156
5637.72253,0.51051
5635.79379,0.50904
5633.86504,0.50843
5631.93630,0.50909
5630.00755,0.51034
5628.07881,0.51076
5626.15006,0.51041
5624.22132,0.51067
5622.29257,0.51161
5620.36383,0.51238
5618.43508,0.51221
5616.50633,0.51114
5614.57759,0.51004
5612.64884,0.50942
5610.72010,0.50925
5608.79135,0.50987
5606.86261,0.51190
5604.93386,0.51383
5603.00512,0.51334
5601.07637,0.51125
5599.14763,0.51006
5597.21888,0.51012
5595.29014,0.51027
5593.36139,0.51037
5591.43265,0.51049
5589.50390,0.51068
5587.57516,0.51139
5585.64641,0.51207
5583.71766,0.51216
5581.78892,0.51240
5579.86017,0.51329
5577.93143,0.51427
5576.00268,0.51459
5574.07394,0.51418
5572.14519,0.51333
5570.21645,0.51250
5568.28770,0.51197
5566.35896,0.51145
5564.43021,0.51075
5562.50147,0.51057
5560.57272,0.51155
5558.64398,0.51261
5556.71523,0.51227
5554.78648,0.51119
5552.85774,0.51083
5550.92899,0.51109
5549.00025,0.51156
5547.07150,0.51234
5545.14276,0.51324
5543.21401,0.51398
5541.28527,0.51405
5539.35652,0.51303
5537.42778,0.51175
5535.49903,0.51130
5533.57029,0.51178
5531.64154,0.51279
5529.71280,0.51363
5527.78405,0.51333
5525.85531,0.51221
5523.92656,0.51176
5521.99781,0.51227
5520.06907,0.51264
5518.14032,0.51273
5516.21158,0.51302
5514.28283,0.51318
5512.35409,0.51368
5510.42534,0.51479
5508.49660,0.51507
5506.56785,0.51432
5504.63911,0.51324
5502.71036,0.51229
5500.78162,0.51236
5498.85287,0.51318
5496.92413,0.51387
5494.99538,0.51433
5493.06664,0.51447
5491.13789,0.51444
5489.20914,0.51476
5487.28040,0.51508
5485.35165,0.51466
5483.42291,0.51384
5481.49416,0.51357
5479.56542,0.51422
5477.63667,0.51554
5475.70793,0.51676
5473.77918,0.51673
5471.85044,0.51566
5469.92169,0.51492
5467.99295,0.51448
5466.06420,0.51393
5464.13546,0.51386
5462.20671,0.51434
5460.27796,0.51471
5458.34922,0.51502
5456.42047,0.51543
5454.49173,0.51589
5452.56298,0.51659
5450.63424,0.51675
5448.70549,0.51581
5446.77675,0.51495
5444.84800,0.51486
5442.91926,0.51537
5440.99051,0.51612
5439.06177,0.51644
5437.13302,0.51650
5435.20428,0.51694
5433.27553,0.51745
5431.34679,0.51768
5429.41804,0.51763
5427.48929,0.51711
5425.56055,0.51628
5423.63180,0.51560
5421.70306,0.51543
5419.77431,0.51622
5417.84557,0.51763
5415.91682,0.51865
5413.98808,0.51906
5412.05933,0.51942
5410.13059,0.51989
5408.20184,0.51996
5406.27310,0.51925
5404.34435,0.51824
5402.41561,0.51817
5400.48686,0.51897
5398.55811,0.51935
5396.62937,0.51924
5394.70062,0.51893
5392.77188,0.51845
5390.84313,0.51805
5388.91439,0.51766
5386.98564,0.51759
5385.05690,0.51819
5383.12815,0.51883
5381.19941,0.51906
5379.27066,0.51909
5377.34192,0.51861
5375.41317,0.51768
5373.48443,0.51729
5371.55568,0.51783
5369.62694,0.51879
5367.69819,0.51950
5365.76944,0.51960
5363.84070,0.51908
5361.91195,0.51862
5359.98321,0.51907
5358.05446,0.52018
5356.12572,0.52076
5354.19697,0.52026
5352.26823,0.51935
5350.33948,0.51857
5348.41074,0.51804
5346.48199,0.51816
5344.55325,0.51863
5342.62450,0.51872
5340.69576,0.51864
5338.76701,0.51859
5336.83827,0.51837
5334.90952,0.51839
5332.98077,0.51881
5331.05203,0.51906
5329.12328,0.51907
5327.19454,0.51906
5325.26579,0.51879
5323.33705,0.51804
5321.40830,0.51705
5319.47956,0.51632
5317.55081,0.51629
5315.62207,0.51684
5313.69332,0.51718
5311.76458,0.51668
5309.83583,0.51563
5307.90709,0.51498
5305.97834,0.51513
5304.04959,0.51534
5302.12085,0.51502
5300.19210,0.51443
5298.26336,0.51375
5296.33461,0.51269
5294.40587,0.51146
5292.47712,0.51073
5290.54838,0.51037
5288.61963,0.50974
5286.69089,0.50865
5284.76214,0.50765
5282.83340,0.50713
5280.90465,0.50683
5278.97591,0.50629
5277.04716,0.50525
5275.11842,0.50390
5273.18967,0.50279
5271.26092,0.50186
5269.33218,0.50093
5267.40343,0.50020
5265.47469,0.49914
5263.54594,0.49767
5261.61720,0.49687
5259.68845,0.49650
5257.75971,0.49536
5255.83096,0.49371
5253.90222,0.49256
5251.97347,0.49170
5250.04473,0.49031
5248.11598,0.48878
5246.18724,0.48730
5244.25849,0.48550
5242.32975,0.48431
5240.40100,0.48426
5238.47225,0.48408
5236.54351,0.48304
5234.61476,0.48171
5232.68602,0.48074
5230.75727,0.48016
5228.82853,0.47948
5226.89978,0.47874
5224.97104,0.47825
5223.04229,0.47741
5221.11355,0.47591
5219.18480,0.47457
5217.25606,0.47417
5215.32731,0.47444
5213.39857,0.47448
5211.46982,0.47431
5209.54107,0.47433
5207.61233,0.47401
5205.68358,0.47359
5203.75484,0.47397
5201.82609,0.47452
5199.89735,0.47418
5197.96860,0.47329
5196.03986,0.47304
5194.11111,0.47393
5192.18237,0.47521
5190.25362,0.47544
5188.32488,0.47403
5186.39613,0.47241
5184.46739,0.47226
5182.53864,0.47321
5180.60990,0.47408
5178.68115,0.47443
5176.75240,0.47442
5174.82366,0.47456
5172.89491,0.47487
5170.96617,0.47479
5169.03742,0.47429
5167.10868,0.47361
5165.17993,0.47273
5163.25119,0.47253
5161.32244,0.47350
5159.39370,0.47459
5157.46495,0.47527
5155.53621,0.47577
5153.60746,0.47590
5151.67872,0.47593
5149.74997,0.47655
5147.82123,0.47775
5145.89248,0.47874
5143.96373,0.47898
5142.03499,0.47847
5140.10624,0.47791
5138.17750,0.47810
5136.24875,0.47882
5134.32001,0.47965
5132.39126,0.48077
5130.46252,0.48199
5128.53377,0.48270
5126.60503,0.48286
5124.67628,0.48297
5122.74754,0.48311
5120.81879,0.48316
5118.89005,0.48317
5116.96130,0.48321
5115.03255,0.48356
5113.10381,0.48406
5111.17506,0.48425
5109.24632,0.48455
5107.31757,0.48499
5105.38883,0.48518
5103.46008,0.48538
5101.53134,0.48573
5099.60259,0.48615
5097.67385,0.48686
5095.74510,0.48778
5093.81636,0.48827
5091.88761,0.48790
5089.95887,0.48720
5088.03012,0.48706
5086.10138,0.48748
5084.17263,0.48773
5082.24388,0.48737
5080.31514,0.48674
5078.38639,0.48665
5076.45765,0.48740
5074.52890,0.48824
5072.60016,0.48849
5070.67141,0.48839
5068.74267,0.48835
5066.81392,0.48822
5064.88518,0.48806
5062.95643,0.48863
5061.02769,0.48977
5059.09894,0.49044
5057.17020,0.49027
5055.24145,0.48936
5053.31270,0.48802
5051.38396,0.48722
5049.45521,0.48760
5047.52647,0.48857
5045.59772,0.48911
5043.66898,0.48895
5041.74023,0.48856
5039.81149,0.48808
5037.88274,0.48738
5035.95400,0.48688
5034.02525,0.48681
5032.09651,0.48694
5030.16776,0.48742
5028.23902,0.48820
5026.31027,0.48865
5024.38153,0.48862
5022.45278,0.48850
5020.52403,0.48812
5018.59529,0.48683
5016.66654,0.48507
5014.73780,0.48421
5012.80905,0.48442
5010.88031,0.48470
5008.95156,0.48471
5007.02282,0.48461
5005.09407,0.48446
5003.16533,0.48438
5001.23658,0.48415
4999.30784,0.48331
4997.37909,0.48190
4995.45035,0.48054
4993.52160,0.47997
4991.59286,0.47999
4989.66411,0.47984
4987.73536,0.47929
4985.80662,0.47860
4983.87787,0.47804
4981.94913,0.47779
4980.02038,0.47769
4978.09164,0.47704
4976.16289,0.47582
4974.23415,0.47487
4972.30540,0.47468
4970.37666,0.47481
4968.44791,0.47427
4966.51917,0.47310
4964.59042,0.47229
4962.66168,0.47180
4960.73293,0.47111
4958.80418,0.47031
4956.87544,0.46952
4954.94669,0.46885
4953.01795,0.46859
4951.08920,0.46859
4949.16046,0.46816
4947.23171,0.46697
4945.30297,0.46578
4943.37422,0.46498
4941.44548,0.46415
4939.51673,0.46340
4937.58799,0.46260
4935.65924,0.46144
4933.73050,0.46033
4931.80175,0.45936
4929.87301,0.45827
4927.94426,0.45724
4926.01551,0.45677
4924.08677,0.45669
4922.15802,0.45619
4920.22928,0.45532
4918.30053,0.45449
4916.37179,0.45349
4914.44304,0.45208
4912.51430,0.45050
4910.58555,0.44947
4908.65681,0.44917
4906.72806,0.44881
4904.79932,0.44813
4902.87057,0.44768
4900.94183,0.44740
4899.01308,0.44679
4897.08434,0.44576
4895.15559,0.44457
4893.22684,0.44337
4891.29810,0.44210
4889.36935,0.44089
4887.44061,0.43989
4885.51186,0.43878
4883.58312,0.43724
4881.65437,0.43569
4879.72563,0.43483
4877.79688,0.43446
4875.86814,0.43430
4873.93939,0.43430
4872.01065,0.43390
4870.08190,0.43298
4868.15316,0.43183
4866.22441,0.43044
4864.29566,0.42910
4862.36692,0.42801
4860.43817,0.42720
4858.50943,0.42697
4856.58068,0.42716
4854.65194,0.42709
4852.72319,0.42621
4850.79445,0.42497
4848.86570,0.42429
4846.93696,0.42375
4845.00821,0.42249
4843.07947,0.42103
4841.15072,0.42013
4839.22198,0.41952
4837.29323,0.41892
4835.36449,0.41823
4833.43574,0.41756
4831.50699,0.41711
4829.57825,0.41622
4827.64950,0.41483
4825.72076,0.41414
4823.79201,0.41415
4821.86327,0.41383
4819.93452,0.41336
4818.00578,0.41309
4816.07703,0.41219
4814.14829,0.41058
4812.21954,0.40925
4810.29080,0.40831
4808.36205,0.40782
4806.43331,0.40803
4804.50456,0.40820
4802.57582,0.40757
4800.64707,0.40686
4798.71832,0.40687
4796.78958,0.40704
4794.86083,0.40676
4792.93209,0.40637
4791.00334,0.40616
4789.07460,0.40566
4787.14585,0.40458
4785.21711,0.40366
4783.28836,0.40325
4781.35962,0.40277
4779.43087,0.40230
4777.50213,0.40231
4775.57338,0.40244
4773.64464,0.40238
4771.71589,0.40201
4769.78714,0.40117
4767.85840,0.40016
4765.92965,0.39959
4764.00091,0.39954
4762.07216,0.39938
4760.14342,0.39878
4758.21467,0.39830
4756.28593,0.39842
4754.35718,0.39872
4752.42844,0.39851
4750.49969,0.39812
4748.57095,0.39819
4746.64220,0.39829
4744.71346,0.39797
4742.78471,0.39761
4740.85597,0.39739
4738.92722,0.39734
4736.99847,0.39764
4735.06973,0.39807
4733.14098,0.39817
4731.21224,0.39793
4729.28349,0.39754
4727.35475,0.39717
4725.42600,0.39707
4723.49726,0.39717
4721.56851,0.39733
4719.63977,0.39778
4717.71102,0.39846
4715.78228,0.39871
4713.85353,0.39823
4711.92479,0.39763
4709.99604,0.39752
4708.06729,0.39778
4706.13855,0.39790
4704.20980,0.39785
4702.28106,0.39827
4700.35231,0.39904
4698.42357,0.39944
4696.49482,0.39953
4694.56608,0.39965
4692.63733,0.39991
4690.70859,0.40042
4688.77984,0.40085
4686.85110,0.40090
4684.92235,0.40081
4682.99361,0.40096
4681.06486,0.40151
4679.13612,0.40196
4677.20737,0.40204
4675.27862,0.40222
4673.34988,0.40262
4671.42113,0.40294
4669.49239,0.40316
4667.56364,0.40355
4665.63490,0.40411
4663.70615,0.40434
4661.77741,0.40397
4659.84866,0.40334
4657.91992,0.40331
4655.99117,0.40409
4654.06243,0.40474
4652.13368,0.40505
4650.20494,0.40547
4648.27619,0.40563
4646.34745,0.40545
4644.41870,0.40577
4642.48995,0.40676
4640.56121,0.40745
4638.63246,0.40785
4636.70372,0.40869
4634.77497,0.40955
4632.84623,0.40972
4630.91748,0.40972
4628.98874,0.41032
4627.05999,0.41119
4625.13125,0.41164
4623.20250,0.41179
4621.27376,0.41225
4619.34501,0.41307
4617.41627,0.41366
4615.48752,0.41387
4613.55877,0.41413
4611.63003,0.41445
4609.70128,0.41500
4607.77254,0.41606
4605.84379,0.41715
4603.91505,0.41792
4601.98630,0.41855
4600.05756,0.41901
4598.12881,0.41922
4596.20007,0.41970
4594.27132,0.42072
4592.34258,0.42155
4590.41383,0.42168
4588.48509,0.42173
4586.55634,0.42212
4584.62760,0.42256
4582.69885,0.42307
4580.77010,0.42352
4578.84136,0.42368
4576.91261,0.42386
4574.98387,0.42416
4573.05512,0.42462
4571.12638,0.42557
4569.19763,0.42657
4567.26889,0.42727
4565.34014,0.42804
4563.41140,0.42877
4561.48265,0.42900
4559.55391,0.42886
4557.62516,0.42895
4555.69642,0.42963
4553.76767,0.43050
4551.83893,0.43111
4549.91018,0.43142
4547.98143,0.43157
4546.05269,0.43187
4544.12394,0.43263
4542.19520,0.43331
4540.26645,0.43330
4538.33771,0.43299
4536.40896,0.43308
4534.48022,0.43383
4532.55147,0.43481
4530.62273,0.43512
4528.69398,0.43464
4526.76524,0.43414
4524.83649,0.43421
4522.90775,0.43476
4520.97900,0.43565
4519.05025,0.43682
4517.12151,0.43791
4515.19276,0.43861
4513.26402,0.43902
4511.33527,0.43926
4509.40653,0.43961
4507.47778,0.44004
4505.54904,0.44004
4503.62029,0.43964
4501.69155,0.43956
4499.76280,0.43994
4497.83406,0.44032
4495.90531,0.44051
4493.97657,0.44048
4492.04782,0.44020
4490.11908,0.43987
4488.19033,0.43989
4486.26158,0.44001
4484.33284,0.43977
4482.40409,0.43936
4480.47535,0.43890
4478.54660,0.43827
4476.61786,0.43759
4474.68911,0.43703
4472.76037,0.43653
4470.83162,0.43596
4468.90288,0.43529
4466.97413,0.43465
4465.04539,0.43414
4463.11664,0.43359
4461.18790,0.43281
4459.25915,0.43176
4457.33041,0.43070
4455.40166,0.42972
4453.47291,0.42871
4451.54417,0.42791
4449.61542,0.42743
4447.68668,0.42680
4445.75793,0.42546
4443.82919,0.42367
4441.90044,0.42249
4439.97170,0.42200
4438.04295,0.42107
4436.11421,0.41945
4434.18546,0.41808
4432.25672,0.41731
4430.32797,0.41645
4428.39923,0.41507
4426.47048,0.41353
4424.54173,0.41211
4422.61299,0.41049
4420.68424,0.40869
4418.75550,0.40709
4416.82675,0.40555
4414.89801,0.40400
4412.96926,0.40258
4411.04052,0.40140
4409.11177,0.40057
4407.18303,0.39997
4405.25428,0.39925
4403.32554,0.39831
4401.39679,0.39742
4399.46805,0.39675
4397.53930,0.39624
4395.61056,0.39617
4393.68181,0.39671
4391.75306,0.39733
4389.82432,0.39789
4387.89557,0.39873
4385.96683,0.39960
4384.03808,0.39998
4382.10934,0.39992
4380.18059,0.40012
4378.25185,0.40105
4376.32310,0.40233
4374.39436,0.40329
4372.46561,0.40364
4370.53687,0.40391
4368.60812,0.40450
4366.67938,0.40518
4364.75063,0.40590
4362.82189,0.40668
4360.89314,0.40704
4358.96439,0.40664
4357.03565,0.40599
4355.10690,0.40574
4353.17816,0.40584
4351.24941,0.40587
4349.32067,0.40579
4347.39192,0.40568
4345.46318,0.40537
4343.53443,0.40498
4341.60569,0.40448
4339.67694,0.40351
4337.74820,0.40241
4335.81945,0.40185
4333.89071,0.40181
4331.96196,0.40156
4330.03321,0.40071
4328.10447,0.39988
4326.17572,0.39939
4324.24698,0.39886
4322.31823,0.39831
4320.38949,0.39793
4318.46074,0.39747
4316.53200,0.39688
4314.60325,0.39632
4312.67451,0.39575
4310.74576,0.39523
4308.81702,0.39480
4306.88827,0.39422
4304.95953,0.39346
4303.03078,0.39283
4301.10204,0.39238
4299.17329,0.39198
4297.24454,0.39157
4295.31580,0.39113
4293.38705,0.39075
4291.45831,0.39055
4289.52956,0.39031
4287.60082,0.38973
4285.67207,0.38887
4283.74333,0.38827
4281.81458,0.38827
4279.88584,0.38853
4277.95709,0.38859
4276.02835,0.38859
4274.09960,0.38881
4272.17086,0.38914
4270.24211,0.38938
4268.31336,0.38955
4266.38462,0.38970
4264.45587,0.38968
4262.52713,0.38973
4260.59838,0.39029
4258.66964,0.39118
4256.74089,0.39211
4254.81215,0.39269
4252.88340,0.39253
4250.95466,0.39210
4249.02591,0.39194
4247.09717,0.39208
4245.16842,0.39255
4243.23968,0.39309
4241.31093,0.39352
4239.38219,0.39389
4237.45344,0.39395
4235.52469,0.39381
4233.59595,0.39421
4231.66720,0.39497
4229.73846,0.39540
4227.80971,0.39549
4225.88097,0.39541
4223.95222,0.39542
4222.02348,0.39552
4220.09473,0.39543
4218.16599,0.39552
4216.23724,0.39599
4214.30850,0.39638
4212.37975,0.39646
4210.45101,0.39628
4208.52226,0.39599
4206.59352,0.39579
4204.66477,0.39591
4202.73602,0.39626
4200.80728,0.39675
4198.87853,0.39737
4196.94979,0.39780
4195.02104,0.39790
4193.09230,0.39790
4191.16355,0.39796
4189.23481,0.39810
4187.30606,0.39833
4185.37732,0.39859
4183.44857,0.39889
4181.51983,0.39922
4179.59108,0.39950
4177.66234,0.39979
4175.73359,0.40023
4173.80484,0.40076
4171.87610,0.40115
4169.94735,0.40134
4168.01861,0.40149
4166.08986,0.40170
4164.16112,0.40210
4162.23237,0.40273
4160.30363,0.40320
4158.37488,0.40318
4156.44614,0.40281
4154.51739,0.40228
4152.58865,0.40162
4150.65990,0.40089
4148.73116,0.40028
4146.80241,0.39992
4144.87367,0.39967
4142.94492,0.39923
4141.01617,0.39864
4139.08743,0.39824
4137.15868,0.39807
4135.22994,0.39769
4133.30119,0.39683
4131.37245,0.39584
4129.44370,0.39515
4127.51496,0.39451
4125.58621,0.39377
4123.65747,0.39319
4121.72872,0.39257
4119.79998,0.39151
4117.87123,0.39017
4115.94249,0.38878
4114.01374,0.38731
4112.08500,0.38602
4110.15625,0.38514
4108.22750,0.38438
4106.29876,0.38342
4104.37001,0.38238
4102.44127,0.38139
4100.51252,0.38015
4098.58378,0.37849
4096.65503,0.37676
4094.72629,0.37514
4092.79754,0.37356
4090.86880,0.37213
4088.94005,0.37088
4087.01131,0.36959
4085.08256,0.36806
4083.15382,0.36638
4081.22507,0.36470
4079.29632,0.36326
4077.36758,0.36210
4075.43883,0.36055
4073.51009,0.35853
4071.58134,0.35682
4069.65260,0.35560
4067.72385,0.35447
4065.79511,0.35322
4063.86636,0.35177
4061.93762,0.35001
4060.00887,0.34806
4058.08013,0.34625
4056.15138,0.34465
4054.22264,0.34307
4052.29389,0.34153
4050.36515,0.33995
4048.43640,0.33818
4046.50765,0.33661
4044.57891,0.33543
4042.65016,0.33434
4040.72142,0.33311
4038.79267,0.33162
4036.86393,0.33001
4034.93518,0.32884
4033.00644,0.32825
4031.07769,0.32761
4029.14895,0.32651
4027.22020,0.32541
4025.29146,0.32493
4023.36271,0.32496
4021.43397,0.32480
4019.50522,0.32427
4017.57648,0.32388
4015.64773,0.32381
4013.71898,0.32385
4011.79024,0.32403
4009.86149,0.32448
4007.93275,0.32506
4006.00400,0.32543
4004.07526,0.32556
4002.14651,0.32575
4000.21777,0.32629
3998.28902,0.32702
3996.36028,0.32757
3994.43153,0.32781
3992.50279,0.32803
3990.57404,0.32865
3988.64530,0.32952
3986.71655,0.33018
3984.78780,0.33070
3982.85906,0.33128
3980.93031,0.33183
3979.00157,0.33225
3977.07282,0.33266
3975.14408,0.33331
3973.21533,0.33417
3971.28659,0.33481
3969.35784,0.33509
3967.42910,0.33544
3965.50035,0.33621
3963.57161,0.33717
3961.64286,0.33800
3959.71412,0.33867
3957.78537,0.33935
3955.85663,0.34015
3953.92788,0.34081
3951.99913,0.34117
3950.07039,0.34168
3948.14164,0.34266
3946.21290,0.34386
3944.28415,0.34483
3942.35541,0.34547
3940.42666,0.34591
3938.49792,0.34643
3936.56917,0.34737
3934.64043,0.34857
3932.71168,0.34962
3930.78294,0.35052
3928.85419,0.35128
3926.92545,0.35195
3924.99670,0.35265
3923.06795,0.35338
3921.13921,0.35399
3919.21046,0.35448
3917.28172,0.35525
3915.35297,0.35621
3913.42423,0.35676
3911.49548,0.35701
3909.56674,0.35743
3907.63799,0.35819
3905.70925,0.35914
3903.78050,0.35981
3901.85176,0.36025
3899.92301,0.36081
3897.99427,0.36138
3896.06552,0.36175
3894.13678,0.36206
3892.20803,0.36270
3890.27928,0.36379
3888.35054,0.36486
3886.42179,0.36543
3884.49305,0.36558
3882.56430,0.36575
3880.63556,0.36616
3878.70681,0.36666
3876.77807,0.36706
3874.84932,0.36751
3872.92058,0.36811
3870.99183,0.36876
3869.06309,0.36947
3867.13434,0.37044
3865.20560,0.37158
3863.27685,0.37240
3861.34811,0.37287
3859.41936,0.37350
3857.49061,0.37424
3855.56187,0.37480
3853.63312,0.37546
3851.70438,0.37642
3849.77563,0.37722
3847.84689,0.37773
3845.91814,0.37823
3843.98940,0.37883
3842.06065,0.37954
3840.13191,0.38025
3838.20316,0.38069
3836.27442,0.38085
3834.34567,0.38101
3832.41693,0.38122
3830.48818,0.38137
3828.55943,0.38141
3826.63069,0.38133
3824.70194,0.38123
3822.77320,0.38111
3820.84445,0.38101
3818.91571,0.38110
3816.98696,0.38120
3815.05822,0.38098
3813.12947,0.38064
3811.20073,0.38066
3809.27198,0.38084
3807.34324,0.38058
3805.41449,0.38018
3803.48575,0.38016
3801.55700,0.38019
3799.62826,0.38004
3797.69951,0.37998
3795.77076,0.38001
3793.84202,0.37999
3791.91327,0.37986
3789.98453,0.37968
3788.05578,0.37944
3786.12704,0.37911
3784.19829,0.37877
3782.26955,0.37851
3780.34080,0.37837
3778.41206,0.37815
3776.48331,0.37760
3774.55457,0.37692
3772.62582,0.37643
3770.69708,0.37609
3768.76833,0.37557
3766.83959,0.37467
3764.91084,0.37366
3762.98209,0.37296
3761.05335,0.37247
3759.12460,0.37182
3757.19586,0.37124
3755.26711,0.37079
3753.33837,0.37015
3751.40962,0.36911
3749.48088,0.36764
3747.55213,0.36621
3745.62339,0.36479
3743.69464,0.36304
3741.76590,0.36151
3739.83715,0.36033
3737.90841,0.35918
3735.97966,0.35782
3734.05091,0.35595
3732.12217,0.35360
3730.19342,0.35131
3728.26468,0.34919
3726.33593,0.34681
3724.40719,0.34404
3722.47844,0.34079
3720.54970,0.33682
3718.62095,0.33217
3716.69221,0.32731
3714.76346,0.32240
3712.83472,0.31685
3710.90597,0.31017
3708.97723,0.30289
3707.04848,0.29508
3705.11974,0.28635
3703.19099,0.27644
3701.26224,0.26558
3699.33350,0.25526
3697.40475,0.24727
3695.47601,0.24230
3693.54726,0.24025
3691.61852,0.24076
3689.68977,0.24326
3687.76103,0.24634
3685.83228,0.24823
3683.90354,0.24891
3681.97479,0.24876
3680.04605,0.24751
3678.11730,0.24475
3676.18856,0.24000
3674.25981,0.23383
3672.33107,0.22771
3670.40232,0.22166
3668.47357,0.21628
3666.54483,0.21227
3664.61608,0.20869
3662.68734,0.20463
3660.75859,0.19989
3658.82985,0.19465
3656.90110,0.18888
3654.97236,0.18316
3653.04361,0.17865
3651.11487,0.17530
3649.18612,0.17240
3647.25738,0.16974
3645.32863,0.16727
3643.39989,0.16475
3641.47114,0.16194
3639.54239,0.15876
3637.61365,0.15534
3635.68490,0.15176
3633.75616,0.14800
3631.82741,0.14414
3629.89867,0.13966
3627.96992,0.13419
3626.04118,0.12885
3624.11243,0.12391
3622.18369,0.11903
3620.25494,0.11498
3618.32620,0.11312
3616.39745,0.11323
3614.46871,0.11346
3612.53996,0.11270
3610.61122,0.11100
3608.68247,0.10849
3606.75372,0.10538
3604.82498,0.10240
3602.89623,0.09988
3600.96749,0.09749
3599.03874,0.09520
3597.11000,0.09332
3595.18125,0.09163
3593.25251,0.08967
3591.32376,0.08769
3589.39502,0.08591
3587.46627,0.08397
3585.53753,0.08196
3583.60878,0.08008
3581.68004,0.07819
3579.75129,0.07643
3577.82254,0.07486
3575.89380,0.07318
3573.96505,0.07151
3572.03631,0.07024
3570.10756,0.06916
3568.17882,0.06778
3566.25007,0.06620
3564.32133,0.06471
3562.39258,0.06326
3560.46384,0.06197
3558.53509,0.06108
3556.60635,0.06041
3554.67760,0.05951
3552.74886,0.05828
3550.82011,0.05721
3548.89137,0.05649
3546.96262,0.05574
3545.03387,0.05474
3543.10513,0.05375
3541.17638,0.05305
3539.24764,0.05258
3537.31889,0.05199
3535.39015,0.05119
3533.46140,0.05046
3531.53266,0.04988
3529.60391,0.04926
3527.67517,0.04844
3525.74642,0.04745
3523.81768,0.04674
3521.88893,0.04652
3519.96019,0.04632
3518.03144,0.04580
3516.10270,0.04521
3514.17395,0.04465
3512.24520,0.04407
3510.31646,0.04360
3508.38771,0.04310
3506.45897,0.04257
3504.53022,0.04214
3502.60148,0.04168
3500.67273,0.04131
3498.74399,0.04106
3496.81524,0.04061
3494.88650,0.03994
3492.95775,0.03940
3491.02901,0.03914
3489.10026,0.03913
3487.17152,0.03931
3485.24277,0.03925
3483.31402,0.03865
3481.38528,0.03782
3479.45653,0.03719
3477.52779,0.03686
3475.59904,0.03673
3473.67030,0.03659
3471.74155,0.03624
3469.81281,0.03585
3467.88406,0.03560
3465.95532,0.03539
3464.02657,0.03514
3462.09783,0.03494
3460.16908,0.03480
3458.24034,0.03462
3456.31159,0.03448
3454.38285,0.03459
3452.45410,0.03465
3450.52535,0.03437
3448.59661,0.03410
3446.66786,0.03405
3444.73912,0.03405
3442.81037,0.03416
3440.88163,0.03424
3438.95288,0.03397
3437.02414,0.03356
3435.09539,0.03337
3433.16665,0.03329
3431.23790,0.03312
3429.30916,0.03299
3427.38041,0.03301
3425.45167,0.03300
3423.52292,0.03312
3421.59418,0.03344
3419.66543,0.03363
3417.73668,0.03362
3415.80794,0.03346
3413.87919,0.03319
3411.95045,0.03300
3410.02170,0.03274
3408.09296,0.03230
3406.16421,0.03217
3404.23547,0.03249
3402.30672,0.03275
3400.37798,0.03262
3398.44923,0.03229
3396.52049,0.03203
3394.59174,0.03199
3392.66300,0.03210
3390.73425,0.03225
3388.80550,0.03228
3386.87676,0.03210
3384.94801,0.03203
3383.01927,0.03249
3381.09052,0.03301
3379.16178,0.03288
3377.23303,0.03251
3375.30429,0.03243
3373.37554,0.03237
3371.44680,0.03224
3369.51805,0.03242
3367.58931,0.03282
3365.66056,0.03307
3363.73182,0.03313
3361.80307,0.03313
3359.87433,0.03294
3357.94558,0.03283
3356.01683,0.03313
3354.08809,0.03333
3352.15934,0.03302
3350.23060,0.03257
3348.30185,0.03239
3346.37311,0.03236
3344.44436,0.03228
3342.51562,0.03257
3340.58687,0.03321
3338.65813,0.03359
3336.72938,0.03384
3334.80064,0.03426
3332.87189,0.03452
3330.94315,0.03461
3329.01440,0.03494
3327.08566,0.03551
3325.15691,0.03582
3323.22816,0.03577
3321.29942,0.03573
3319.37067,0.03590
3317.44193,0.03611
3315.51318,0.03631
3313.58444,0.03677
3311.65569,0.03722
3309.72695,0.03711
3307.79820,0.03659
3305.86946,0.03621
3303.94071,0.03632
3302.01197,0.03683
3300.08322,0.03747
3298.15448,0.03814
3296.22573,0.03873
3294.29698,0.03888
3292.36824,0.03859
3290.43949,0.03847
3288.51075,0.03879
3286.58200,0.03928
3284.65326,0.03979
3282.72451,0.04029
3280.79577,0.04054
3278.86702,0.04057
3276.93828,0.04082
3275.00953,0.04128
3273.08079,0.04156
3271.15204,0.04165
3269.22330,0.04195
3267.29455,0.04242
3265.36581,0.04272
3263.43706,0.04314
3261.50831,0.04390
3259.57957,0.04461
3257.65082,0.04504
3255.72208,0.04550
3253.79333,0.04613
3251.86459,0.04674
3249.93584,0.04730
3248.00710,0.04783
3246.07835,0.04827
3244.14961,0.04861
3242.22086,0.04909
3240.29212,0.04982
3238.36337,0.05047
3236.43463,0.05075
3234.50588,0.05077
3232.57713,0.05089
3230.64839,0.05151
3228.71964,0.05244
3226.79090,0.05321
3224.86215,0.05385
3222.93341,0.05446
3221.00466,0.05486
3219.07592,0.05532
3217.14717,0.05610
3215.21843,0.05676
3213.28968,0.05717
3211.36094,0.05778
3209.43219,0.05853
3207.50345,0.05914
3205.57470,0.05967
3203.64596,0.06022
3201.71721,0.06082
3199.78846,0.06133
3197.85972,0.06179
3195.93097,0.06249
3194.00223,0.06339
3192.07348,0.06395
3190.14474,0.06407
3188.21599,0.06431
3186.28725,0.06509
3184.35850,0.06611
3182.42976,0.06691
3180.50101,0.06745
3178.57227,0.06793
3176.64352,0.06857
3174.71478,0.06938
3172.78603,0.07008
3170.85729,0.07074
3168.92854,0.07152
3166.99979,0.07225
3165.07105,0.07301
3163.14230,0.07386
3161.21356,0.07450
3159.28481,0.07481
3157.35607,0.07518
3155.42732,0.07584
3153.49858,0.07668
3151.56983,0.07749
3149.64109,0.07817
3147.71234,0.07883
3145.78360,0.07948
3143.85485,0.07987
3141.92611,0.08006
3139.99736,0.08061
3138.06861,0.08172
3136.13987,0.08286
3134.21112,0.08369
3132.28238,0.08437
3130.35363,0.08504
3128.42489,0.08557
3126.49614,0.08605
3124.56740,0.08668
3122.63865,0.08731
3120.70991,0.08787
3118.78116,0.08852
3116.85242,0.08927
3114.92367,0.08992
3112.99493,0.09045
3111.06618,0.09109
3109.13744,0.09190
3107.20869,0.09256
3105.27994,0.09289
3103.35120,0.09329
3101.42245,0.09410
3099.49371,0.09494
3097.56496,0.09559
3095.63622,0.09636
3093.70747,0.09721
3091.77873,0.09779
3089.84998,0.09821
3087.92124,0.09858
3085.99249,0.09893
3084.06375,0.09952
3082.13500,0.10039
3080.20626,0.10101
3078.27751,0.10121
3076.34877,0.10144
3074.42002,0.10194
3072.49127,0.10254
3070.56253,0.10316
3068.63378,0.10382
3066.70504,0.10440
3064.77629,0.10497
3062.84755,0.10566
3060.91880,0.10628
3058.99006,0.10660
3057.06131,0.10691
3055.13257,0.10761
3053.20382,0.10846
3051.27508,0.10902
3049.34633,0.10938
3047.41759,0.10993
3045.48884,0.11065
3043.56009,0.11123
3041.63135,0.11165
3039.70260,0.11213
3037.77386,0.11262
3035.84511,0.11305
3033.91637,0.11339
3031.98762,0.11353
3030.05888,0.11348
3028.13013,0.11345
3026.20139,0.11368
3024.27264,0.11402
3022.34390,0.11411
3020.41515,0.11392
3018.48641,0.11368
3016.55766,0.11353
3014.62892,0.11348
3012.70017,0.11338
3010.77142,0.11301
3008.84268,0.11236
3006.91393,0.11161
3004.98519,0.11079
3003.05644,0.10998
3001.12770,0.10949
2999.19895,0.10940
2997.27021,0.10928
2995.34146,0.10862
2993.41272,0.10753
2991.48397,0.10658
2989.55523,0.10575
2987.62648,0.10446
2985.69774,0.10256
2983.76899,0.10044
2981.84025,0.09825
2979.91150,0.09587
2977.98275,0.09323
2976.05401,0.09041
2974.12526,0.08751
2972.19652,0.08466
2970.26777,0.08205
2968.33903,0.07985
2966.41028,0.07805
2964.48154,0.07673
2962.55279,0.07600
2960.62405,0.07550
2958.69530,0.07466
2956.76656,0.07350
2954.83781,0.07224
2952.90907,0.07096
2950.98032,0.06976
2949.05157,0.06855
2947.12283,0.06732
2945.19408,0.06609
2943.26534,0.06495
2941.33659,0.06415
2939.40785,0.06370
2937.47910,0.06326
2935.55036,0.06282
2933.62161,0.06248
2931.69287,0.06215
2929.76412,0.06189
2927.83538,0.06177
2925.90663,0.06141
2923.97789,0.06080
2922.04914,0.06041
2920.12040,0.06014
2918.19165,0.05978
2916.26290,0.05951
2914.33416,0.05940
2912.40541,0.05934
2910.47667,0.05917
2908.54792,0.05891
2906.61918,0.05886
2904.69043,0.05912
2902.76169,0.05928
2900.83294,0.05924
2898.90420,0.05949
2896.97545,0.06017
2895.04671,0.06096
2893.11796,0.06160
2891.18922,0.06200
2889.26047,0.06241
2887.33172,0.06322
2885.40298,0.06418
2883.47423,0.06481
2881.54549,0.06519
2879.61674,0.06552
2877.68800,0.06577
2875.75925,0.06597
2873.83051,0.06627
2871.90176,0.06674
2869.97302,0.06750
2868.04427,0.06849
2866.11553,0.06940
2864.18678,0.07014
2862.25804,0.07087
2860.32929,0.07164
2858.40055,0.07250
2856.47180,0.07359
2854.54305,0.07503
2852.61431,0.07665
2850.68556,0.07827
2848.75682,0.07985
2846.82807,0.08139
2844.89933,0.08316
2842.97058,0.08520
2841.04184,0.08719
2839.11309,0.08918
2837.18435,0.09131
2835.25560,0.09359
2833.32686,0.09591
2831.39811,0.09817
2829.46937,0.10039
2827.54062,0.10263
2825.61188,0.10487
2823.68313,0.10704
2821.75438,0.10909
2819.82564,0.11094
2817.89689,0.11278
2815.96815,0.11471
2814.03940,0.11650
2812.11066,0.11823
2810.18191,0.12002
2808.25317,0.12168
2806.32442,0.12318
2804.39568,0.12465
2802.46693,0.12602
2800.53819,0.12717
2798.60944,0.12817
2796.68070,0.12933
2794.75195,0.13074
2792.82320,0.13203
2790.89446,0.13299
2788.96571,0.13373
2787.03697,0.13426
2785.10822,0.13465
2783.17948,0.13515
2781.25073,0.13575
2779.32199,0.13626
2777.39324,0.13684
2775.46450,0.13763
2773.53575,0.13840
2771.60701,0.13894
2769.67826,0.13927
2767.74952,0.13969
2765.82077,0.14031
2763.89203,0.14080
2761.96328,0.14106
2760.03453,0.14134
2758.10579,0.14182
2756.17704,0.14248
2754.24830,0.14304
2752.31955,0.14333
2750.39081,0.14352
2748.46206,0.14379
2746.53332,0.14410
2744.60457,0.14422
2742.67583,0.14412
2740.74708,0.14411
2738.81834,0.14440
2736.88959,0.14484
2734.96085,0.14523
2733.03210,0.14566
2731.10336,0.14639
2729.17461,0.14729
2727.24586,0.14807
2725.31712,0.14864
2723.38837,0.14904
2721.45963,0.14947
2719.53088,0.15018
2717.60214,0.15111
2715.67339,0.15196
2713.74465,0.15276
2711.81590,0.15369
2709.88716,0.15464
2707.95841,0.15555
2706.02967,0.15655
2704.10092,0.15757
2702.17218,0.15855
2700.24343,0.15949
2698.31468,0.16051
2696.38594,0.16163
2694.45719,0.16269
2692.52845,0.16359
2690.59970,0.16449
2688.67096,0.16548
2686.74221,0.16645
2684.81347,0.16740
2682.88472,0.16844
2680.95598,0.16951
2679.02723,0.17053
2677.09849,0.17140
2675.16974,0.17204
2673.24100,0.17257
2671.31225,0.17314
2669.38351,0.17380
2667.45476,0.17452
2665.52601,0.17517
2663.59727,0.17559
2661.66852,0.17597
2659.73978,0.17652
2657.81103,0.17721
2655.88229,0.17796
2653.95354,0.17866
2652.02480,0.17931
2650.09605,0.17997
2648.16731,0.18060
2646.23856,0.18118
2644.30982,0.18186
2642.38107,0.18253
2640.45233,0.18308
2638.52358,0.18374
2636.59484,0.18457
2634.66609,0.18535
2632.73734,0.18610
2630.80860,0.18686
2628.87985,0.18750
2626.95111,0.18804
2625.02236,0.18865
2623.09362,0.18941
2621.16487,0.19026
2619.23613,0.19111
2617.30738,0.19187
2615.37864,0.19250
2613.44989,0.19309
2611.52115,0.19363
2609.59240,0.19408
2607.66366,0.19437
2605.73491,0.19457
2603.80616,0.19505
2601.87742,0.19586
2599.94867,0.19671
2598.01993,0.19742
2596.09118,0.19811
2594.16244,0.19888
2592.23369,0.19951
2590.30495,0.19987
2588.37620,0.20014
2586.44746,0.20049
2584.51871,0.20089
2582.58997,0.20126
2580.66122,0.20160
2578.73248,0.20203
2576.80373,0.20248
2574.87499,0.20278
2572.94624,0.20293
2571.01749,0.20313
2569.08875,0.20334
2567.16000,0.20343
2565.23126,0.20338
2563.30251,0.20329
2561.37377,0.20336
2559.44502,0.20362
2557.51628,0.20386
2555.58753,0.20393
2553.65879,0.20392
2551.73004,0.20396
2549.80130,0.20402
2547.87255,0.20395
2545.94381,0.20386
2544.01506,0.20389
2542.08631,0.20396
2540.15757,0.20409
2538.22882,0.20439
2536.30008,0.20473
2534.37133,0.20489
2532.44259,0.20506
2530.51384,0.20548
2528.58510,0.20589
2526.65635,0.20614
2524.72761,0.20650
2522.79886,0.20704
2520.87012,0.20748
2518.94137,0.20773
2517.01263,0.20800
2515.08388,0.20846
2513.15514,0.20918
2511.22639,0.21012
2509.29764,0.21124
2507.36890,0.21247
2505.44015,0.21364
2503.51141,0.21481
2501.58266,0.21617
2499.65392,0.21761
2497.72517,0.21896
2495.79643,0.22024
2493.86768,0.22158
2491.93894,0.22286
2490.01019,0.22400
2488.08145,0.22510
2486.15270,0.22610
2484.22396,0.22705
2482.29521,0.22802
2480.36647,0.22892
2478.43772,0.22967
2476.50897,0.23033
2474.58023,0.23112
2472.65148,0.23223
2470.72274,0.23347
2468.79399,0.23444
2466.86525,0.23495
2464.93650,0.23538
2463.00776,0.23604
2461.07901,0.23662
2459.15027,0.23686
2457.22152,0.23726
2455.29278,0.23821
2453.36403,0.23934
2451.43529,0.24024
2449.50654,0.24091
2447.57779,0.24155
2445.64905,0.24232
2443.72030,0.24322
2441.79156,0.24414
2439.86281,0.24507
2437.93407,0.24598
2436.00532,0.24678
2434.07658,0.24763
2432.14783,0.24863
2430.21909,0.24963
2428.29034,0.25063
2426.36160,0.25168
2424.43285,0.25262
2422.50411,0.25344
2420.57536,0.25429
2418.64662,0.25527
2416.71787,0.25627
2414.78912,0.25720
2412.86038,0.25804
2410.93163,0.25883
2409.00289,0.25970
2407.07414,0.26063
2405.14540,0.26146
2403.21665,0.26213
2401.28791,0.26271
2399.35916,0.26319
2397.43042,0.26368
2395.50167,0.26445
2393.57293,0.26537
2391.64418,0.26611
2389.71544,0.26678
2387.78669,0.26756
2385.85795,0.26827
2383.92920,0.26878
2382.00045,0.26929
2380.07171,0.26989
2378.14296,0.27047
2376.21422,0.27104
2374.28547,0.27166
2372.35673,0.27230
2370.42798,0.27291
2368.49924,0.27334
2366.57049,0.27354
2364.64175,0.27376
2362.71300,0.27416
2360.78426,0.27455
2358.85551,0.27474
2356.92677,0.27491
2354.99802,0.27531
2353.06927,0.27598
2351.14053,0.27671
2349.21178,0.27727
2347.28304,0.27777
2345.35429,0.27841
2343.42555,0.27903
2341.49680,0.27950
2339.56806,0.27991
2337.63931,0.28023
2335.71057,0.28045
2333.78182,0.28067
2331.85308,0.28098
2329.92433,0.28135
2327.99559,0.28175
2326.06684,0.28202
2324.13810,0.28213
2322.20935,0.28224
2320.28060,0.28239
2318.35186,0.28248
2316.42311,0.28250
2314.49437,0.28242
2312.56562,0.28234
2310.63688,0.28229
2308.70813,0.28210
2306.77939,0.28178
2304.85064,0.28151
2302.92190,0.28127
2300.99315,0.28095
2299.06441,0.28058
2297.13566,0.28018
2295.20692,0.27973
2293.27817,0.27935
2291.34943,0.27908
2289.42068,0.27879
2287.49193,0.27843
2285.56319,0.27822
2283.63444,0.27812
2281.70570,0.27782
2279.77695,0.27727
2277.84821,0.27665
2275.91946,0.27590
2273.99072,0.27495
2272.06197,0.27401
2270.13323,0.27323
2268.20448,0.27249
2266.27574,0.27164
2264.34699,0.27065
2262.41825,0.26964
2260.48950,0.26885
2258.56075,0.26829
2256.63201,0.26779
2254.70326,0.26751
2252.77452,0.26750
2250.84577,0.26753
2248.91703,0.26752
2246.98828,0.26745
2245.05954,0.26739
2243.13079,0.26735
2241.20205,0.26725
2239.27330,0.26713
2237.34456,0.26708
2235.41581,0.26695
2233.48707,0.26669
2231.55832,0.26649
2229.62958,0.26650
2227.70083,0.26654
2225.77208,0.26657
2223.84334,0.26678
2221.91459,0.26696
2219.98585,0.26696
2218.05710,0.26720
2216.12836,0.26768
2214.19961,0.26793
2212.27087,0.26787
2210.34212,0.26770
2208.41338,0.26764
2206.48463,0.26762
2204.55589,0.26739
2202.62714,0.26692
2200.69840,0.26654
2198.76965,0.26638
2196.84090,0.26615
2194.91216,0.26573
2192.98341,0.26519
2191.05467,0.26435
2189.12592,0.26317
2187.19718,0.26198
2185.26843,0.26108
2183.33969,0.26037
2181.41094,0.25962
2179.48220,0.25867
2177.55345,0.25740
2175.62471,0.25595
2173.69596,0.25466
2171.76722,0.25360
2169.83847,0.25258
2167.90973,0.25161
2165.98098,0.25073
2164.05223,0.24985
2162.12349,0.24883
2160.19474,0.24781
2158.26600,0.24711
2156.33725,0.24672
2154.40851,0.24642
2152.47976,0.24603
2150.55102,0.24544
2148.62227,0.24469
2146.69353,0.24395
2144.76478,0.24333
2142.83604,0.24278
2140.90729,0.24234
2138.97855,0.24203
2137.04980,0.24170
2135.12106,0.24142
2133.19231,0.24142
2131.26356,0.24164
2129.33482,0.24203
2127.40607,0.24251
2125.47733,0.24291
2123.54858,0.24312
2121.61984,0.24312
2119.69109,0.24311
2117.76235,0.24340
2115.83360,0.24386
2113.90486,0.24420
2111.97611,0.24457
2110.04737,0.24504
2108.11862,0.24544
2106.18988,0.24568
2104.26113,0.24583
2102.33238,0.24610
2100.40364,0.24658
2098.47489,0.24700
2096.54615,0.24711
2094.61740,0.24711
2092.68866,0.24722
2090.75991,0.24738
2088.83117,0.24749
2086.90242,0.24752
2084.97368,0.24752
2083.04493,0.24746
2081.11619,0.24725
2079.18744,0.24692
2077.25870,0.24654
2075.32995,0.24604
2073.40121,0.24541
2071.47246,0.24483
2069.54371,0.24434
2067.61497,0.24386
2065.68622,0.24344
2063.75748,0.24319
2061.82873,0.24291
2059.89999,0.24248
2057.97124,0.24218
2056.04250,0.24208
2054.11375,0.24202
2052.18501,0.24194
2050.25626,0.24196
2048.32752,0.24230
2046.39877,0.24277
2044.47003,0.24315
2042.54128,0.24355
2040.61254,0.24407
2038.68379,0.24476
2036.75504,0.24566
2034.82630,0.24663
2032.89755,0.24764
2030.96881,0.24878
2029.04006,0.25003
2027.11132,0.25123
2025.18257,0.25236
2023.25383,0.25355
2021.32508,0.25497
2019.39634,0.25653
2017.46759,0.25791
2015.53885,0.25897
2013.61010,0.25992
2011.68136,0.26077
2009.75261,0.26146
2007.82386,0.26219
2005.89512,0.26296
2003.96637,0.26351
2002.03763,0.26380
2000.10888,0.26414
1998.18014,0.26483
1996.25139,0.26580
1994.32265,0.26673
1992.39390,0.26750
1990.46516,0.26819
1988.53641,0.26893
1986.60767,0.26968
1984.67892,0.27038
1982.75018,0.27095
1980.82143,0.27139
1978.89269,0.27187
1976.96394,0.27240
1975.03519,0.27280
1973.10645,0.27301
1971.17770,0.27315
1969.24896,0.27339
1967.32021,0.27376
1965.39147,0.27417
1963.46272,0.27459
1961.53398,0.27502
1959.60523,0.27544
1957.67649,0.27593
1955.74774,0.27654
1953.81900,0.27721
1951.89025,0.27786
1949.96151,0.27856
1948.03276,0.27929
1946.10402,0.28001
1944.17527,0.28084
1942.24652,0.28169
1940.31778,0.28237
1938.38903,0.28289
1936.46029,0.28338
1934.53154,0.28395
1932.60280,0.28459
1930.67405,0.28511
1928.74531,0.28548
1926.81656,0.28581
1924.88782,0.28603
1922.95907,0.28614
1921.03033,0.28632
1919.10158,0.28664
1917.17284,0.28700
1915.24409,0.28733
1913.31534,0.28750
1911.38660,0.28749
1909.45785,0.28744
1907.52911,0.28744
1905.60036,0.28733
1903.67162,0.28709
1901.74287,0.28688
1899.81413,0.28669
1897.88538,0.28648
1895.95664,0.28637
1894.02789,0.28635
1892.09915,0.28619
1890.17040,0.28576
1888.24166,0.28521
1886.31291,0.28468
1884.38417,0.28434
1882.45542,0.28421
1880.52667,0.28417
1878.59793,0.28388
1876.66918,0.28317
1874.74044,0.28243
1872.81169,0.28205
1870.88295,0.28183
1868.95420,0.28151
1867.02546,0.28112
1865.09671,0.28058
1863.16797,0.27987
1861.23922,0.27924
1859.31048,0.27882
1857.38173,0.27831
1855.45299,0.27748
1853.52424,0.27650
1851.59549,0.27563
1849.66675,0.27500
1847.73800,0.27448
1845.80926,0.27376
1843.88051,0.27273
1841.95177,0.27171
1840.02302,0.27088
1838.09428,0.27003
1836.16553,0.26912
1834.23679,0.26828
1832.30804,0.26743
1830.37930,0.26640
1828.45055,0.26521
1826.52181,0.26413
1824.59306,0.26309
1822.66432,0.26197
1820.73557,0.26084
1818.80682,0.25967
1816.87808,0.25845
1814.94933,0.25734
1813.02059,0.25632
1811.09184,0.25504
1809.16310,0.25335
1807.23435,0.25139
1805.30561,0.24911
1803.37686,0.24640
1801.44812,0.24330
1799.51937,0.24018
1797.59063,0.23759
1795.66188,0.23567
1793.73314,0.23413
1791.80439,0.23276
1789.87565,0.23158
1787.94690,0.23028
1786.01815,0.22848
1784.08941,0.22610
1782.16066,0.22334
1780.23192,0.22029
1778.30317,0.21688
1776.37443,0.21315
1774.44568,0.20896
1772.51694,0.20382
1770.58819,0.19785
1768.65945,0.19157
1766.73070,0.18485
1764.80196,0.17792
1762.87321,0.17070
1760.94447,0.16317
1759.01572,0.15607
1757.08697,0.14921
1755.15823,0.14257
1753.22948,0.13664
1751.30074,0.13136
1749.37199,0.12698
1747.44325,0.12378
1745.51450,0.12127
1743.58576,0.11910
1741.65701,0.11733
1739.72827,0.11595
1737.79952,0.11505
1735.87078,0.11492
1733.94203,0.11548
1732.01329,0.11619
1730.08454,0.11691
1728.15580,0.11785
1726.22705,0.11904
1724.29830,0.12064
1722.36956,0.12258
1720.44081,0.12460
1718.51207,0.12686
1716.58332,0.12960
1714.65458,0.13251
1712.72583,0.13517
1710.79709,0.13750
1708.86834,0.13948
1706.93960,0.14120
1705.01085,0.14289
1703.08211,0.14448
1701.15336,0.14557
1699.22462,0.14580
1697.29587,0.14523
1695.36713,0.14412
1693.43838,0.14283
1691.50963,0.14170
1689.58089,0.14030
1687.65214,0.13843
1685.72340,0.13601
1683.79465,0.13272
1681.86591,0.12930
1679.93716,0.12616
1678.00842,0.12302
1676.07967,0.11974
1674.15093,0.11629
1672.22218,0.11302
1670.29344,0.10995
1668.36469,0.10713
1666.43595,0.10500
1664.50720,0.10343
1662.57845,0.10222
1660.64971,0.10141
1658.72096,0.10108
1656.79222,0.10117
1654.86347,0.10150
1652.93473,0.10169
1651.00598,0.10168
1649.07724,0.10181
1647.14849,0.10188
1645.21975,0.10166
1643.29100,0.10141
1641.36226,0.10119
1639.43351,0.10096
1637.50477,0.10081
1635.57602,0.10086
1633.64728,0.10119
1631.71853,0.10163
1629.78978,0.10199
1627.86104,0.10213
1625.93229,0.10198
1624.00355,0.10164
1622.07480,0.10134
1620.14606,0.10112
1618.21731,0.10056
1616.28857,0.09937
1614.35982,0.09802
1612.43108,0.09689
1610.50233,0.09574
1608.57359,0.09455
1606.64484,0.09371
1604.71610,0.09340
1602.78735,0.09349
1600.85861,0.09374
1598.92986,0.09396
1597.00111,0.09418
1595.07237,0.09445
1593.14362,0.09477
1591.21488,0.09543
1589.28613,0.09674
1587.35739,0.09870
1585.42864,0.10118
1583.49990,0.10417
1581.57115,0.10781
1579.64241,0.11187
1577.71366,0.11634
1575.78492,0.12143
1573.85617,0.12611
1571.92743,0.12999
1569.99868,0.13362
1568.06993,0.13654
1566.14119,0.13849
1564.21244,0.14002
1562.28370,0.14126
1560.35495,0.14218
1558.42621,0.14255
1556.49746,0.14202
1554.56872,0.14109
1552.63997,0.13999
1550.71123,0.13867
1548.78248,0.13717
1546.85374,0.13552
1544.92499,0.13368
1542.99625,0.13161
1541.06750,0.12894
1539.13876,0.12525
1537.21001,0.12163
1535.28126,0.11814
1533.35252,0.11375
1531.42377,0.10871
1529.49503,0.10368
1527.56628,0.09822
1525.63754,0.09205
1523.70879,0.08539
1521.78005,0.07810
1519.85130,0.07129
1517.92256,0.06619
1515.99381,0.06232
1514.06507,0.05952
1512.13632,0.05788
1510.20758,0.05729
1508.27883,0.05759
1506.35008,0.05828
1504.42134,0.05896
1502.49259,0.05981
1500.56385,0.06083
1498.63510,0.06158
1496.70636,0.06189
1494.77761,0.06186
1492.84887,0.06145
1490.92012,0.06046
1488.99138,0.05888
1487.06263,0.05708
1485.13389,0.05537
1483.20514,0.05380
1481.27640,0.05230
1479.34765,0.05084
1477.41891,0.04935
1475.49016,0.04778
1473.56141,0.04596
1471.63267,0.04410
1469.70392,0.04286
1467.77518,0.04217
1465.84643,0.04145
1463.91769,0.04064
1461.98894,0.04020
1460.06020,0.04013
1458.13145,0.04002
1456.20271,0.03959
1454.27396,0.03908
1452.34522,0.03874
1450.41647,0.03855
1448.48773,0.03850
1446.55898,0.03838
1444.63024,0.03810
1442.70149,0.03781
1440.77274,0.03754
1438.84400,0.03706
1436.91525,0.03624
1434.98651,0.03541
1433.05776,0.03503
1431.12902,0.03506
1429.20027,0.03526
1427.27153,0.03552
1425.34278,0.03585
1423.41404,0.03628
1421.48529,0.03693
1419.55655,0.03785
1417.62780,0.03865
1415.69906,0.03925
1413.77031,0.03981
1411.84156,0.04030
1409.91282,0.04064
1407.98407,0.04081
1406.05533,0.04085
1404.12658,0.04097
1402.19784,0.04116
1400.26909,0.04117
1398.34035,0.04112
1396.41160,0.04109
1394.48286,0.04093
1392.55411,0.04073
1390.62537,0.04043
1388.69662,0.03981
1386.76788,0.03908
1384.83913,0.03857
1382.91039,0.03814
1380.98164,0.03771
1379.05289,0.03741
1377.12415,0.03726
1375.19540,0.03719
1373.26666,0.03720
1371.33791,0.03725
1369.40917,0.03747
1367.48042,0.03789
1365.55168,0.03834
1363.62293,0.03871
1361.69419,0.03911
1359.76544,0.03953
1357.83670,0.03983
1355.90795,0.04017
1353.97921,0.04070
1352.05046,0.04122
1350.12172,0.04151
1348.19297,0.04153
1346.26422,0.04141
1344.33548,0.04120
1342.40673,0.04092
1340.47799,0.04072
1338.54924,0.04066
1336.62050,0.04070
1334.69175,0.04095
1332.76301,0.04129
1330.83426,0.04152
1328.90552,0.04162
1326.97677,0.04167
1325.04803,0.04160
1323.11928,0.04139
1321.19054,0.04122
1319.26179,0.04124
1317.33304,0.04153
1315.40430,0.04199
1313.47555,0.04257
1311.54681,0.04329
1309.61806,0.04413
1307.68932,0.04495
1305.76057,0.04571
1303.83183,0.04639
1301.90308,0.04685
1299.97434,0.04702
1298.04559,0.04707
1296.11685,0.04698
1294.18810,0.04651
1292.25936,0.04571
1290.33061,0.04477
1288.40187,0.04383
1286.47312,0.04301
1284.54437,0.04232
1282.61563,0.04183
1280.68688,0.04166
1278.75814,0.04165
1276.82939,0.04155
1274.90065,0.04133
1272.97190,0.04112
1271.04316,0.04105
1269.11441,0.04105
1267.18567,0.04108
1265.25692,0.04132
1263.32818,0.04183
1261.39943,0.04222
1259.47069,0.04240
1257.54194,0.04271
1255.61320,0.04311
1253.68445,0.04332
1251.75570,0.04344
1249.82696,0.04364
1247.89821,0.04377
1245.96947,0.04373
1244.04072,0.04362
1242.11198,0.04360
1240.18323,0.04354
1238.25449,0.04334
1236.32574,0.04319
1234.39700,0.04322
1232.46825,0.04326
1230.53951,0.04337
1228.61076,0.04366
1226.68202,0.04384
1224.75327,0.04396
1222.82452,0.04420
1220.89578,0.04435
1218.96703,0.04433
1217.03829,0.04418
1215.10954,0.04381
1213.18080,0.04330
1211.25205,0.04275
1209.32331,0.04220
1207.39456,0.04199
1205.46582,0.04228
1203.53707,0.04265
1201.60833,0.04281
1199.67958,0.04285
1197.75084,0.04285
1195.82209,0.04280
1193.89335,0.04262
1191.96460,0.04205
1190.03585,0.04096
1188.10711,0.03978
1186.17836,0.03856
1184.24962,0.03695
1182.32087,0.03530
1180.39213,0.03401
1178.46338,0.03286
1176.53464,0.03159
1174.60589,0.03039
1172.67715,0.02977
1170.74840,0.02997
1168.81966,0.03050
1166.89091,0.03088
1164.96217,0.03134
1163.03342,0.03198
1161.10467,0.03252
1159.17593,0.03295
1157.24718,0.03331
1155.31844,0.03343
1153.38969,0.03322
1151.46095,0.03290
1149.53220,0.03268
1147.60346,0.03240
1145.67471,0.03199
1143.74597,0.03169
1141.81722,0.03154
1139.88848,0.03122
1137.95973,0.03052
1136.03099,0.02974
1134.10224,0.02933
1132.17350,0.02913
1130.24475,0.02864
1128.31600,0.02797
1126.38726,0.02754
1124.45851,0.02763
1122.52977,0.02818
1120.60102,0.02872
1118.67228,0.02895
1116.74353,0.02900
1114.81479,0.02912
1112.88604,0.02960
1110.95730,0.03037
1109.02855,0.03089
1107.09981,0.03115
1105.17106,0.03143
1103.24232,0.03161
1101.31357,0.03150
1099.38483,0.03135
1097.45608,0.03150
1095.52733,0.03180
1093.59859,0.03164
1091.66984,0.03104
1089.74110,0.03055
1087.81235,0.03040
1085.88361,0.03047
1083.95486,0.03068
1082.02612,0.03110
1080.09737,0.03169
1078.16863,0.03229
1076.23988,0.03291
1074.31114,0.03347
1072.38239,0.03373
1070.45365,0.03404
1068.52490,0.03504
1066.59615,0.03667
1064.66741,0.03846
1062.73866,0.04018
1060.80992,0.04165
1058.88117,0.04265
1056.95243,0.04325
1055.02368,0.04357
1053.09494,0.04352
1051.16619,0.04315
1049.23745,0.04257
1047.30870,0.04214
1045.37996,0.04224
1043.45121,0.04264
1041.52247,0.04314
1039.59372,0.04380
1037.66498,0.04445
1035.73623,0.04513
1033.80748,0.04596
1031.87874,0.04691
1029.94999,0.04785
1028.02125,0.04849
1026.09250,0.04867
1024.16376,0.04862
1022.23501,0.04870
1020.30627,0.04896
1018.37752,0.04916
1016.44878,0.04939
1014.52003,0.04996
1012.59129,0.05094
1010.66254,0.05210
1008.73380,0.05304
1006.80505,0.05356
1004.87631,0.05389
1002.94756,0.05440
1001.01881,0.05529
999.09007,0.05657
997.16132,0.05790
995.23258,0.05898
993.30383,0.06001
991.37509,0.06112
989.44634,0.06220
987.51760,0.06345
985.58885,0.06527
983.66011,0.06793
981.73136,0.07099
979.80262,0.07362
977.87387,0.07541
975.94513,0.07652
974.01638,0.07755
972.08763,0.07877
970.15889,0.08001
968.23014,0.08143
966.30140,0.08318
964.37265,0.08508
962.44391,0.08707
960.51516,0.08919
958.58642,0.09144
956.65767,0.09377
954.72893,0.09602
952.80018,0.09811
950.87144,0.09991
948.94269,0.10130
947.01395,0.10225
945.08520,0.10271
943.15646,0.10299
941.22771,0.10356
939.29896,0.10424
937.37022,0.10481
935.44147,0.10551
933.51273,0.10630
931.58398,0.10685
929.65524,0.10713
927.72649,0.10735
925.79775,0.10725
923.86900,0.10650
921.94026,0.10555
920.01151,0.10482
918.08277,0.10383
916.15402,0.10225
914.22528,0.10043
912.29653,0.09886
910.36779,0.09776
908.43904,0.09691
906.51029,0.09591
904.58155,0.09460
902.65280,0.09296
900.72406,0.09142
898.79531,0.09075
896.86657,0.09118
894.93782,0.09252
893.00908,0.09488
891.08033,0.09793
889.15159,0.10079
887.22284,0.10294
885.29410,0.10415
883.36535,0.10452
881.43661,0.10448
879.50786,0.10424
877.57911,0.10425
875.65037,0.10489
873.72162,0.10612
871.79288,0.10808
869.86413,0.11057
867.93539,0.11270
866.00664,0.11419
864.07790,0.11522
862.14915,0.11561
860.22041,0.11544
858.29166,0.11526
856.36292,0.11544
854.43417,0.11626
852.50543,0.11776
850.57668,0.11920
848.64794,0.12007
846.71919,0.12075
844.79044,0.12125
842.86170,0.12130
840.93295,0.12094
839.00421,0.12022
837.07546,0.11916
835.14672,0.11784
833.21797,0.11641
831.28923,0.11497
829.36048,0.11352
827.43174,0.11216
825.50299,0.11081
823.57425,0.10905
821.64550,0.10685
819.71676,0.10465
817.78801,0.10282
815.85926,0.10141
813.93052,0.10010
812.00177,0.09888
810.07303,0.09822
808.14428,0.09811
806.21554,0.09811
804.28679,0.09796
802.35805,0.09782
800.42930,0.09807
798.50056,0.09844
796.57181,0.09826
794.64307,0.09768
792.71432,0.09719
790.78558,0.09673
788.85683,0.09609
786.92809,0.09542
784.99934,0.09488
783.07059,0.09450
781.14185,0.09429
779.21310,0.09404
777.28436,0.09345
775.35561,0.09232
773.42687,0.09079
771.49812,0.08936
769.56938,0.08823
767.64063,0.08732
765.71189,0.08657
763.78314,0.08578
761.85440,0.08496
759.92565,0.08436
757.99691,0.08375
756.06816,0.08277
754.13942,0.08134
752.21067,0.07981
750.28192,0.07879
748.35318,0.07818
746.42443,0.07763
744.49569,0.07709
742.56694,0.07635
740.63820,0.07554
738.70945,0.07472
736.78071,0.07365
734.85196,0.07231
732.92322,0.07049
730.99447,0.06822
729.06573,0.06627
727.13698,0.06525
725.20824,0.06479
723.27949,0.06413
721.35074,0.06314
719.42200,0.06210
717.49325,0.06111
715.56451,0.05998
713.63576,0.05877
711.70702,0.05787
709.77827,0.05728
707.84953,0.05687
705.92078,0.05678
703.99204,0.05672
702.06329,0.05619
700.13455,0.05528
698.20580,0.05448
696.27706,0.05436
694.34831,0.05486
692.41957,0.05507
690.49082,0.05442
688.56207,0.05329
686.63333,0.05240
684.70458,0.05193
682.77584,0.05140
680.84709,0.05037
678.91835,0.04925
676.98960,0.04873
675.06086,0.04838
673.13211,0.04762
671.20337,0.04712
669.27462,0.04768
667.34588,0.04863
665.41713,0.04857
663.48839,0.04783
661.55964,0.04780
659.63090,0.04832
657.70215,0.04846
655.77340,0.04870
653.84466,0.04925
651.91591,0.04905
649.98717,0.04826
648.05842,0.04812
646.12968,0.04851
644.20093,0.04865
642.27219,0.04845
640.34344,0.04787
638.41470,0.04691
636.48595,0.04609
634.55721,0.04542
632.62846,0.04435
630.69972,0.04338
628.77097,0.04323
626.84222,0.04357
624.91348,0.04418
622.98473,0.04487
621.05599,0.04486
619.12724,0.04396
617.19850,0.04330
615.26975,0.04386
613.34101,0.04492
611.41226,0.04525
609.48352,0.04491
607.55477,0.04491
605.62603,0.04583
603.69728,0.04652
601.76854,0.04624
599.83979,0.04597
