7497.03301,0.50127
7495.10426,0.49876
7493.17552,0.49859
7491.24677,0.50182
7489.31803,0.50437
7487.38928,0.49913
7485.46054,0.48979
7483.53179,0.48805
7481.60305,0.49370
7479.67430,0.49730
7477.74556,0.49785
7475.81681,0.49962
7473.88807,0.50374
7471.95932,0.50954
7470.03057,0.51290
7468.10183,0.51105
7466.17308,0.50669
7464.24434,0.50264
7462.31559,0.50006
7460.38685,0.49740
7458.45810,0.49294
7456.52936,0.48953
7454.60061,0.49041
7452.67187,0.49421
7450.74312,0.49800
7448.81438,0.50134
7446.88563,0.50305
7444.95689,0.50041
7443.02814,0.49613
7441.09940,0.49553
7439.17065,0.49818
7437.24190,0.50073
7435.31316,0.50035
7433.38441,0.49713
7431.45567,0.49708
7429.52692,0.50121
7427.59818,0.50310
7425.66943,0.50242
7423.74069,0.50132
7421.81194,0.49913
7419.88320,0.49725
7417.95445,0.49739
7416.02571,0.49852
7414.09696,0.49898
7412.16822,0.49906
7410.23947,0.49867
7408.31073,0.49668
7406.38198,0.49418
7404.45323,0.49360
7402.52449,0.49612
7400.59574,0.49942
7398.66700,0.50115
7396.73825,0.50186
7394.80951,0.50102
7392.88076,0.49782
7390.95202,0.49323
7389.02327,0.48919
7387.09453,0.48981
7385.16578,0.49667
7383.23704,0.50243
7381.30829,0.50059
7379.37955,0.49644
7377.45080,0.49699
7375.52205,0.49962
7373.59331,0.49791
7371.66456,0.49368
7369.73582,0.49291
7367.80707,0.49432
7365.87833,0.49482
7363.94958,0.49460
7362.02084,0.49358
7360.09209,0.49287
7358.16335,0.49390
7356.23460,0.49682
7354.30586,0.50149
7352.37711,0.50717
7350.44837,0.51064
7348.51962,0.50925
7346.59088,0.50621
7344.66213,0.50500
7342.73338,0.50353
7340.80464,0.49989
7338.87589,0.49665
7336.94715,0.49521
7335.01840,0.49417
7333.08966,0.49461
7331.16091,0.49726
7329.23217,0.50006
7327.30342,0.50126
7325.37468,0.50027
7323.44593,0.49913
7321.51719,0.49907
7319.58844,0.49795
7317.65970,0.49652
7315.73095,0.49662
7313.80221,0.49703
7311.87346,0.49795
7309.94471,0.49968
7308.01597,0.50019
7306.08722,0.49966
7304.15848,0.49986
7302.22973,0.50167
7300.30099,0.50600
7298.37224,0.51032
7296.44350,0.50931
7294.51475,0.50249
7292.58601,0.49443
7290.65726,0.49120
7288.72852,0.49533
7286.79977,0.50056
7284.87103,0.50049
7282.94228,0.49816
7281.01353,0.49848
7279.08479,0.50051
7277.15604,0.50044
7275.22730,0.49880
7273.29855,0.49923
7271.36981,0.50130
7269.44106,0.50167
7267.51232,0.50007
7265.58357,0.49967
7263.65483,0.50211
7261.72608,0.50571
7259.79734,0.50673
7257.86859,0.50062
7255.93985,0.49045
7254.01110,0.48687
7252.08236,0.49115
7250.15361,0.49448
7248.22486,0.49398
7246.29612,0.49409
7244.36737,0.49686
7242.43863,0.49894
7240.50988,0.49803
7238.58114,0.49705
7236.65239,0.49769
7234.72365,0.49795
7232.79490,0.49614
7230.86616,0.49455
7228.93741,0.49695
7227.00867,0.49971
7225.07992,0.49720
7223.15118,0.49329
7221.22243,0.49441
7219.29369,0.49929
7217.36494,0.50157
7215.43619,0.49937
7213.50745,0.49715
7211.57870,0.49767
7209.64996,0.49931
7207.72121,0.49981
7205.79247,0.49957
7203.86372,0.50051
7201.93498,0.50136
7200.00623,0.49912
7198.07749,0.49454
7196.14874,0.49180
7194.22000,0.49155
7192.29125,0.49064
7190.36251,0.48938
7188.43376,0.48645
7186.50501,0.47990
7184.57627,0.47672
7182.64752,0.47985
7180.71878,0.48360
7178.79003,0.48747
7176.86129,0.49156
7174.93254,0.49281
7173.00380,0.49148
7171.07505,0.48847
7169.14631,0.48481
7167.21756,0.48288
7165.28882,0.48512
7163.36007,0.49220
7161.43133,0.49724
7159.50258,0.49372
7157.57384,0.48643
7155.64509,0.48212
7153.71634,0.48297
7151.78760,0.48715
7149.85885,0.48980
7147.93011,0.48897
7146.00136,0.48701
7144.07262,0.48511
7142.14387,0.48308
7140.21513,0.48383
7138.28638,0.48866
7136.35764,0.49213
7134.42889,0.49134
7132.50015,0.49006
7130.57140,0.48971
7128.64266,0.48765
7126.71391,0.48333
7124.78516,0.47983
7122.85642,0.48018
7120.92767,0.48363
7118.99893,0.48608
7117.07018,0.48598
7115.14144,0.48566
7113.21269,0.48613
7111.28395,0.48763
7109.35520,0.49049
7107.42646,0.49209
7105.49771,0.49092
7103.56897,0.48796
7101.64022,0.48363
7099.71148,0.48085
7097.78273,0.48172
7095.85399,0.48274
7093.92524,0.48236
7091.99649,0.48158
7090.06775,0.47976
7088.13900,0.47879
7086.21026,0.48014
7084.28151,0.48208
7082.35277,0.48343
7080.42402,0.48297
7078.49528,0.48149
7076.56653,0.48140
7074.63779,0.48191
7072.70904,0.48087
7070.78030,0.47897
7068.85155,0.47894
7066.92281,0.48050
7064.99406,0.48148
7063.06532,0.48258
7061.13657,0.48441
7059.20782,0.48479
7057.27908,0.48240
7055.35033,0.47968
7053.42159,0.47894
7051.49284,0.47882
7049.56410,0.47714
7047.63535,0.47407
7045.70661,0.47333
7043.77786,0.47787
7041.84912,0.48362
7039.92037,0.48489
7037.99163,0.48327
7036.06288,0.48304
7034.13414,0.48354
7032.20539,0.48306
7030.27664,0.48330
7028.34790,0.48510
7026.41915,0.48519
7024.49041,0.48136
7022.56166,0.47700
7020.63292,0.47627
7018.70417,0.47847
7016.77543,0.48039
7014.84668,0.48049
7012.91794,0.47975
7010.98919,0.47984
7009.06045,0.48071
7007.13170,0.48110
7005.20296,0.48083
7003.27421,0.48065
7001.34547,0.48152
6999.41672,0.48232
6997.48797,0.48062
6995.55923,0.47808
6993.63048,0.47770
6991.70174,0.47842
6989.77299,0.47925
6987.84425,0.48180
6985.91550,0.48465
6983.98676,0.48452
6982.05801,0.48234
6980.12927,0.47978
6978.20052,0.47699
6976.27178,0.47526
6974.34303,0.47483
6972.41429,0.47474
6970.48554,0.47589
6968.55680,0.47824
6966.62805,0.47957
6964.69930,0.47925
6962.77056,0.47835
6960.84181,0.47812
6958.91307,0.47940
6956.98432,0.47976
6955.05558,0.47691
6953.12683,0.47588
6951.19809,0.47970
6949.26934,0.48207
6947.34060,0.48027
6945.41185,0.47953
6943.48311,0.48263
6941.55436,0.48596
6939.62562,0.48459
6937.69687,0.47998
6935.76812,0.47774
6933.83938,0.47767
6931.91063,0.47795
6929.98189,0.48052
6928.05314,0.48320
6926.12440,0.48347
6924.19565,0.48466
6922.26691,0.48686
6920.33816,0.48691
6918.40942,0.48606
6916.48067,0.48587
6914.55193,0.48414
6912.62318,0.48123
6910.69444,0.48071
6908.76569,0.48161
6906.83695,0.48121
6904.90820,0.48086
6902.97945,0.48156
6901.05071,0.48090
6899.12196,0.47909
6897.19322,0.48059
6895.26447,0.48495
6893.33573,0.48612
6891.40698,0.48314
6889.47824,0.48139
6887.54949,0.48367
6885.62075,0.48802
6883.69200,0.49115
6881.76326,0.48998
6879.83451,0.48600
6877.90577,0.48502
6875.97702,0.48710
6874.04828,0.48790
6872.11953,0.48712
6870.19078,0.48529
6868.26204,0.48222
6866.33329,0.48101
6864.40455,0.48230
6862.47580,0.48251
6860.54706,0.48195
6858.61831,0.48408
6856.68957,0.48875
6854.76082,0.49184
6852.83208,0.49065
6850.90333,0.48742
6848.97459,0.48669
6847.04584,0.48999
6845.11710,0.49302
6843.18835,0.49240
6841.25960,0.49035
6839.33086,0.48857
6837.40211,0.48648
6835.47337,0.48445
6833.54462,0.48311
6831.61588,0.48255
6829.68713,0.48355
6827.75839,0.48624
6825.82964,0.48784
6823.90090,0.48649
6821.97215,0.48443
6820.04341,0.48406
6818.11466,0.48496
6816.18592,0.48591
6814.25717,0.48730
6812.32843,0.48923
6810.39968,0.48955
6808.47093,0.48766
6806.54219,0.48598
6804.61344,0.48578
6802.68470,0.48559
6800.75595,0.48462
6798.82721,0.48412
6796.89846,0.48475
6794.96972,0.48577
6793.04097,0.48567
6791.11223,0.48400
6789.18348,0.48256
6787.25474,0.48284
6785.32599,0.48465
6783.39725,0.48679
6781.46850,0.48800
6779.53975,0.48803
6777.61101,0.48691
6775.68226,0.48589
6773.75352,0.48764
6771.82477,0.49071
6769.89603,0.49036
6767.96728,0.48744
6766.03854,0.48614
6764.10979,0.48594
6762.18105,0.48544
6760.25230,0.48569
6758.32356,0.48671
6756.39481,0.48698
6754.46607,0.48660
6752.53732,0.48728
6750.60858,0.48858
6748.67983,0.48887
6746.75108,0.48786
6744.82234,0.48641
6742.89359,0.48657
6740.96485,0.48766
6739.03610,0.48703
6737.10736,0.48705
6735.17861,0.49067
6733.24987,0.49378
6731.32112,0.49235
6729.39238,0.48908
6727.46363,0.48743
6725.53489,0.48774
6723.60614,0.48861
6721.67740,0.48843
6719.74865,0.48758
6717.81991,0.48750
6715.89116,0.48765
6713.96241,0.48718
6712.03367,0.48682
6710.10492,0.48654
6708.17618,0.48587
6706.24743,0.48640
6704.31869,0.48861
6702.38994,0.49052
6700.46120,0.49074
6698.53245,0.49003
6696.60371,0.49073
6694.67496,0.49198
6692.74622,0.49051
6690.81747,0.48794
6688.88873,0.48793
6686.95998,0.48991
6685.03123,0.49185
6683.10249,0.49294
6681.17374,0.49248
6679.24500,0.49106
6677.31625,0.49081
6675.38751,0.49223
6673.45876,0.49290
6671.53002,0.49102
6669.60127,0.48865
6667.67253,0.48813
6665.74378,0.48843
6663.81504,0.48845
6661.88629,0.48871
6659.95755,0.48894
6658.02880,0.48915
6656.10006,0.48978
6654.17131,0.49012
6652.24256,0.48972
6650.31382,0.48909
6648.38507,0.48941
6646.45633,0.49123
6644.52758,0.49287
6642.59884,0.49339
6640.67009,0.49354
6638.74135,0.49389
6636.81260,0.49455
6634.88386,0.49424
6632.95511,0.49327
6631.02637,0.49326
6629.09762,0.49269
6627.16888,0.49115
6625.24013,0.49120
6623.31139,0.49308
6621.38264,0.49432
6619.45389,0.49346
6617.52515,0.49225
6615.59640,0.49242
6613.66766,0.49357
6611.73891,0.49436
6609.81017,0.49324
6607.88142,0.49101
6605.95268,0.48976
6604.02393,0.48988
6602.09519,0.49062
6600.16644,0.49150
6598.23770,0.49260
6596.30895,0.49397
6594.38021,0.49579
6592.45146,0.49751
6590.52271,0.49779
6588.59397,0.49664
6586.66522,0.49537
6584.73648,0.49483
6582.80773,0.49494
6580.87899,0.49529
6578.95024,0.49559
6577.02150,0.49569
6575.09275,0.49501
6573.16401,0.49352
6571.23526,0.49286
6569.30652,0.49267
6567.37777,0.49170
6565.44903,0.49244
6563.52028,0.49598
6561.59154,0.49889
6559.66279,0.49860
6557.73404,0.49630
6555.80530,0.49473
6553.87655,0.49473
6551.94781,0.49457
6550.01906,0.49349
6548.09032,0.49249
6546.16157,0.49162
6544.23283,0.49103
6542.30408,0.49237
6540.37534,0.49564
6538.44659,0.49787
6536.51785,0.49696
6534.58910,0.49465
6532.66036,0.49441
6530.73161,0.49705
6528.80287,0.50024
6526.87412,0.50189
6524.94537,0.50157
6523.01663,0.49946
6521.08788,0.49666
6519.15914,0.49537
6517.23039,0.49607
6515.30165,0.49648
6513.37290,0.49558
6511.44416,0.49514
6509.51541,0.49616
6507.58667,0.49754
6505.65792,0.49808
6503.72918,0.49723
6501.80043,0.49567
6499.87169,0.49499
6497.94294,0.49566
6496.01419,0.49673
6494.08545,0.49715
6492.15670,0.49810
6490.22796,0.50044
6488.29921,0.50100
6486.37047,0.49858
6484.44172,0.49685
6482.51298,0.49766
6480.58423,0.49886
6478.65549,0.49932
6476.72674,0.49975
6474.79800,0.49896
6472.86925,0.49753
6470.94051,0.49849
6469.01176,0.50025
6467.08302,0.49926
6465.15427,0.49652
6463.22552,0.49539
6461.29678,0.49682
6459.36803,0.49833
6457.43929,0.49857
6455.51054,0.49963
6453.58180,0.50129
6451.65305,0.50104
6449.72431,0.50011
6447.79556,0.50005
6445.86682,0.49904
6443.93807,0.49710
6442.00933,0.49694
6440.08058,0.49845
6438.15184,0.49977
6436.22309,0.50155
6434.29434,0.50385
6432.36560,0.50409
6430.43685,0.50151
6428.50811,0.49867
6426.57936,0.49783
6424.65062,0.49851
6422.72187,0.49988
6420.79313,0.50137
6418.86438,0.50149
6416.93564,0.50094
6415.00689,0.50172
6413.07815,0.50176
6411.14940,0.49940
6409.22066,0.49819
6407.29191,0.49947
6405.36317,0.49977
6403.43442,0.49838
6401.50567,0.49828
6399.57693,0.50056
6397.64818,0.50311
6395.71944,0.50317
6393.79069,0.50066
6391.86195,0.49869
6389.93320,0.49906
6388.00446,0.50036
6386.07571,0.50148
6384.14697,0.50270
6382.21822,0.50295
6380.28948,0.50101
6378.36073,0.49938
6376.43199,0.50049
6374.50324,0.50147
6372.57450,0.49999
6370.64575,0.49826
6368.71700,0.49743
6366.78826,0.49732
6364.85951,0.49829
6362.93077,0.49879
6361.00202,0.49873
6359.07328,0.50037
6357.14453,0.50170
6355.21579,0.50045
6353.28704,0.49992
6351.35830,0.50115
6349.42955,0.50166
6347.50081,0.50174
6345.57206,0.50242
6343.64332,0.50380
6341.71457,0.50472
6339.78582,0.50258
6337.85708,0.49861
6335.92833,0.49688
6333.99959,0.49788
6332.07084,0.49887
6330.14210,0.49890
6328.21335,0.49948
6326.28461,0.50131
6324.35586,0.50321
6322.42712,0.50420
6320.49837,0.50487
6318.56963,0.50543
6316.64088,0.50483
6314.71214,0.50328
6312.78339,0.50188
6310.85465,0.50127
6308.92590,0.50187
6306.99715,0.50329
6305.06841,0.50435
6303.13966,0.50413
6301.21092,0.50303
6299.28217,0.50195
6297.35343,0.50081
6295.42468,0.49941
6293.49594,0.49812
6291.56719,0.49794
6289.63845,0.49996
6287.70970,0.50290
6285.78096,0.50385
6283.85221,0.50231
6281.92347,0.49979
6279.99472,0.49779
6278.06598,0.49755
6276.13723,0.49889
6274.20848,0.50046
6272.27974,0.50162
6270.35099,0.50249
6268.42225,0.50332
6266.49350,0.50354
6264.56476,0.50301
6262.63601,0.50327
6260.70727,0.50372
6258.77852,0.50283
6256.84978,0.50185
6254.92103,0.50214
6252.99229,0.50356
6251.06354,0.50445
6249.13480,0.50399
6247.20605,0.50369
6245.27730,0.50364
6243.34856,0.50339
6241.41981,0.50343
6239.49107,0.50315
6237.56232,0.50221
6235.63358,0.50115
6233.70483,0.50078
6231.77609,0.50148
6229.84734,0.50172
6227.91860,0.50116
6225.98985,0.50180
6224.06111,0.50290
6222.13236,0.50255
6220.20362,0.50251
6218.27487,0.50424
6216.34613,0.50587
6214.41738,0.50565
6212.48863,0.50429
6210.55989,0.50345
6208.63114,0.50332
6206.70240,0.50317
6204.77365,0.50406
6202.84491,0.50614
6200.91616,0.50691
6198.98742,0.50637
6197.05867,0.50657
6195.12993,0.50680
6193.20118,0.50640
6191.27244,0.50661
6189.34369,0.50689
6187.41495,0.50638
6185.48620,0.50612
6183.55746,0.50596
6181.62871,0.50527
6179.69996,0.50528
6177.77122,0.50636
6175.84247,0.50740
6173.91373,0.50787
6171.98498,0.50749
6170.05624,0.50621
6168.12749,0.50549
6166.19875,0.50626
6164.27000,0.50681
6162.34126,0.50641
6160.41251,0.50626
6158.48377,0.50641
6156.55502,0.50629
6154.62628,0.50579
6152.69753,0.50522
6150.76878,0.50548
6148.84004,0.50658
6146.91129,0.50715
6144.98255,0.50693
6143.05380,0.50648
6141.12506,0.50529
6139.19631,0.50415
6137.26757,0.50426
6135.33882,0.50426
6133.41008,0.50411
6131.48133,0.50585
6129.55259,0.50875
6127.62384,0.50947
6125.69510,0.50763
6123.76635,0.50594
6121.83761,0.50475
6119.90886,0.50337
6117.98011,0.50278
6116.05137,0.50368
6114.12262,0.50522
6112.19388,0.50578
6110.26513,0.50537
6108.33639,0.50525
6106.40764,0.50616
6104.47890,0.50788
6102.55015,0.50891
6100.62141,0.50865
6098.69266,0.50768
6096.76392,0.50686
6094.83517,0.50760
6092.90643,0.50901
6090.97768,0.50908
6089.04893,0.50820
6087.12019,0.50732
6085.19144,0.50693
6083.26270,0.50763
6081.33395,0.50914
6079.40521,0.50984
6077.47646,0.50874
6075.54772,0.50757
6073.61897,0.50787
6071.69023,0.50841
6069.76148,0.50853
6067.83274,0.50875
6065.90399,0.50889
6063.97525,0.50929
6062.04650,0.51043
6060.11776,0.51083
6058.18901,0.50907
6056.26026,0.50685
6054.33152,0.50728
6052.40277,0.50990
6050.47403,0.51095
6048.54528,0.50992
6046.61654,0.50944
6044.68779,0.50934
6042.75905,0.50815
6040.83030,0.50672
6038.90156,0.50660
6036.97281,0.50798
6035.04407,0.50910
6033.11532,0.50848
6031.18658,0.50769
6029.25783,0.50806
6027.32909,0.50823
6025.40034,0.50770
6023.47159,0.50733
6021.54285,0.50732
6019.61410,0.50779
6017.68536,0.50865
6015.75661,0.50933
6013.82787,0.50937
6011.89912,0.50903
6009.97038,0.50870
6008.04163,0.50820
6006.11289,0.50735
6004.18414,0.50654
6002.25540,0.50651
6000.32665,0.50673
5998.39791,0.50595
5996.46916,0.50470
5994.54041,0.50464
5992.61167,0.50581
5990.68292,0.50578
5988.75418,0.50364
5986.82543,0.50211
5984.89669,0.50283
5982.96794,0.50428
5981.03920,0.50471
5979.11045,0.50400
5977.18171,0.50325
5975.25296,0.50298
5973.32422,0.50255
5971.39547,0.50173
5969.46673,0.50084
5967.53798,0.50034
5965.60924,0.50077
5963.68049,0.50181
5961.75174,0.50288
5959.82300,0.50344
5957.89425,0.50315
5955.96551,0.50265
5954.03676,0.50238
5952.10802,0.50186
5950.17927,0.50115
5948.25053,0.50065
5946.32178,0.50018
5944.39304,0.50050
5942.46429,0.50179
5940.53555,0.50195
5938.60680,0.50113
5936.67806,0.50198
5934.74931,0.50379
5932.82057,0.50409
5930.89182,0.50371
5928.96307,0.50402
5927.03433,0.50409
5925.10558,0.50347
5923.17684,0.50287
5921.24809,0.50203
5919.31935,0.50062
5917.39060,0.50031
5915.46186,0.50175
5913.53311,0.50316
5911.60437,0.50396
5909.67562,0.50411
5907.74688,0.50294
5905.81813,0.50144
5903.88939,0.50112
5901.96064,0.50156
5900.03189,0.50206
5898.10315,0.50342
5896.17440,0.50528
5894.24566,0.50558
5892.31691,0.50439
5890.38817,0.50341
5888.45942,0.50265
5886.53068,0.50187
5884.60193,0.50216
5882.67319,0.50344
5880.74444,0.50439
5878.81570,0.50439
5876.88695,0.50383
5874.95821,0.50344
5873.02946,0.50362
5871.10072,0.50443
5869.17197,0.50474
5867.24322,0.50376
5865.31448,0.50196
5863.38573,0.50033
5861.45699,0.50067
5859.52824,0.50291
5857.59950,0.50494
5855.67075,0.50589
5853.74201,0.50566
5851.81326,0.50516
5849.88452,0.50553
5847.95577,0.50585
5846.02703,0.50501
5844.09828,0.50398
5842.16954,0.50417
5840.24079,0.50451
5838.31205,0.50325
5836.38330,0.50190
5834.45455,0.50247
5832.52581,0.50355
5830.59706,0.50335
5828.66832,0.50285
5826.73957,0.50328
5824.81083,0.50391
5822.88208,0.50424
5820.95334,0.50475
5819.02459,0.50533
5817.09585,0.50567
5815.16710,0.50563
5813.23836,0.50525
5811.30961,0.50495
5809.38087,0.50474
5807.45212,0.50436
5805.52337,0.50411
5803.59463,0.50390
5801.66588,0.50307
5799.73714,0.50238
5797.80839,0.50290
5795.87965,0.50366
5793.95090,0.50364
5792.02216,0.50320
5790.09341,0.50355
5788.16467,0.50510
5786.23592,0.50627
5784.30718,0.50602
5782.37843,0.50540
5780.44969,0.50551
5778.52094,0.50623
5776.59220,0.50651
5774.66345,0.50585
5772.73470,0.50503
5770.80596,0.50473
5768.87721,0.50487
5766.94847,0.50520
5765.01972,0.50552
5763.09098,0.50567
5761.16223,0.50560
5759.23349,0.50520
5757.30474,0.50408
5755.37600,0.50263
5753.44725,0.50252
5751.51851,0.50406
5749.58976,0.50579
5747.66102,0.50736
5745.73227,0.50894
5743.80352,0.50942
5741.87478,0.50866
5739.94603,0.50837
5738.01729,0.50873
5736.08854,0.50837
5734.15980,0.50678
5732.23105,0.50477
5730.30231,0.50411
5728.37356,0.50541
5726.44482,0.50669
5724.51607,0.50626
5722.58733,0.50501
5720.65858,0.50449
5718.72984,0.50490
5716.80109,0.50540
5714.87235,0.50532
5712.94360,0.50508
5711.01485,0.50500
5709.08611,0.50481
5707.15736,0.50495
5705.22862,0.50555
5703.29987,0.50618
5701.37113,0.50658
5699.44238,0.50599
5697.51364,0.50454
5695.58489,0.50383
5693.65615,0.50429
5691.72740,0.50502
5689.79866,0.50510
5687.86991,0.50479
5685.94117,0.50505
5684.01242,0.50526
5682.08368,0.50471
5680.15493,0.50428
5678.22618,0.50446
5676.29744,0.50485
5674.36869,0.50528
5672.43995,0.50586
5670.51120,0.50593
5668.58246,0.50533
5666.65371,0.50557
5664.72497,0.50612
5662.79622,0.50556
5660.86748,0.50495
5658.93873,0.50496
5657.00999,0.50513
5655.08124,0.50551
5653.15250,0.50597
5651.22375,0.50617
5649.29500,0.50601
5647.36626,0.50566
5645.43751,0.50530
5643.50877,0.50528
5641.58002,0.50604
5639.65128,0.50708
5637.72253,0.50756
5635.79379,0.50748
5633.86504,0.50720
5631.93630,0.50739
5630.00755,0.50818
5628.07881,0.50847
5626.15006,0.50767
5624.22132,0.50704
5622.29257,0.50743
5620.36383,0.50795
5618.43508,0.50830
5616.50633,0.50859
5614.57759,0.50804
5612.64884,0.50684
5610.72010,0.50590
5608.79135,0.50516
5606.86261,0.50495
5604.93386,0.50551
5603.00512,0.50592
5601.07637,0.50623
5599.14763,0.50700
5597.21888,0.50774
5595.29014,0.50810
5593.36139,0.50812
5591.43265,0.50803
5589.50390,0.50803
5587.57516,0.50742
5585.64641,0.50610
5583.71766,0.50497
5581.78892,0.50475
5579.86017,0.50566
5577.93143,0.50695
5576.00268,0.50793
5574.07394,0.50817
5572.14519,0.50752
5570.21645,0.50722
5568.28770,0.50783
5566.35896,0.50808
5564.43021,0.50730
5562.50147,0.50648
5560.57272,0.50654
5558.64398,0.50696
5556.71523,0.50679
5554.78648,0.50632
5552.85774,0.50666
5550.92899,0.50781
5549.00025,0.50880
5547.07150,0.50906
5545.14276,0.50851
5543.21401,0.50784
5541.28527,0.50765
5539.35652,0.50771
5537.42778,0.50818
5535.49903,0.50890
5533.57029,0.50922
5531.64154,0.50904
5529.71280,0.50850
5527.78405,0.50769
5525.85531,0.50709
5523.92656,0.50724
5521.99781,0.50784
5520.06907,0.50795
5518.14032,0.50768
5516.21158,0.50800
5514.28283,0.50885
5512.35409,0.50913
5510.42534,0.50846
5508.49660,0.50800
5506.56785,0.50841
5504.63911,0.50886
5502.71036,0.50879
5500.78162,0.50853
5498.85287,0.50828
5496.92413,0.50824
5494.99538,0.50872
5493.06664,0.50932
5491.13789,0.50967
5489.20914,0.51003
5487.28040,0.51001
5485.35165,0.50944
5483.42291,0.50910
5481.49416,0.50912
5479.56542,0.50896
5477.63667,0.50863
5475.70793,0.50855
5473.77918,0.50875
5471.85044,0.50904
5469.92169,0.50911
5467.99295,0.50829
5466.06420,0.50712
5464.13546,0.50710
5462.20671,0.50790
5460.27796,0.50851
5458.34922,0.50873
5456.42047,0.50836
5454.49173,0.50775
5452.56298,0.50767
5450.63424,0.50819
5448.70549,0.50882
5446.77675,0.50919
5444.84800,0.50902
5442.91926,0.50865
5440.99051,0.50868
5439.06177,0.50874
5437.13302,0.50853
5435.20428,0.50825
5433.27553,0.50804
5431.34679,0.50838
5429.41804,0.50927
5427.48929,0.50982
5425.56055,0.50965
5423.63180,0.50933
5421.70306,0.50915
5419.77431,0.50897
5417.84557,0.50872
5415.91682,0.50862
5413.98808,0.50930
5412.05933,0.51058
5410.13059,0.51145
5408.20184,0.51158
5406.27310,0.51093
5404.34435,0.50974
5402.41561,0.50863
5400.48686,0.50798
5398.55811,0.50785
5396.62937,0.50797
5394.70062,0.50793
5392.77188,0.50782
5390.84313,0.50769
5388.91439,0.50742
5386.98564,0.50755
5385.05690,0.50835
5383.12815,0.50938
5381.19941,0.51025
5379.27066,0.51044
5377.34192,0.50955
5375.41317,0.50810
5373.48443,0.50743
5371.55568,0.50784
5369.62694,0.50811
5367.69819,0.50755
5365.76944,0.50673
5363.84070,0.50606
5361.91195,0.50534
5359.98321,0.50523
5358.05446,0.50650
5356.12572,0.50768
5354.19697,0.50696
5352.26823,0.50527
5350.33948,0.50464
5348.41074,0.50539
5346.48199,0.50635
5344.55325,0.50610
5342.62450,0.50456
5340.69576,0.50316
5338.76701,0.50255
5336.83827,0.50184
5334.90952,0.50064
5332.98077,0.49992
5331.05203,0.49962
5329.12328,0.49903
5327.19454,0.49844
5325.26579,0.49791
5323.33705,0.49705
5321.40830,0.49642
5319.47956,0.49647
5317.55081,0.49651
5315.62207,0.49583
5313.69332,0.49481
5311.76458,0.49423
5309.83583,0.49369
5307.90709,0.49249
5305.97834,0.49117
5304.04959,0.49001
5302.12085,0.48847
5300.19210,0.48673
5298.26336,0.48551
5296.33461,0.48485
5294.40587,0.48429
5292.47712,0.48360
5290.54838,0.48244
5288.61963,0.48078
5286.69089,0.47908
5284.76214,0.47729
5282.83340,0.47569
5280.90465,0.47474
5278.97591,0.47373
5277.04716,0.47189
5275.11842,0.46967
5273.18967,0.46778
5271.26092,0.46647
5269.33218,0.46512
5267.40343,0.46295
5265.47469,0.46074
5263.54594,0.45931
5261.61720,0.45798
5259.68845,0.45591
5257.75971,0.45320
5255.83096,0.45077
5253.90222,0.44930
5251.97347,0.44808
5250.04473,0.44623
5248.11598,0.44385
5246.18724,0.44154
5244.25849,0.43949
5242.32975,0.43746
5240.40100,0.43553
5238.47225,0.43381
5236.54351,0.43185
5234.61476,0.42957
5232.68602,0.42799
5230.75727,0.42733
5228.82853,0.42643
5226.89978,0.42498
5224.97104,0.42351
5223.04229,0.42189
5221.11355,0.42007
5219.18480,0.41862
5217.25606,0.41764
5215.32731,0.41703
5213.39857,0.41661
5211.46982,0.41596
5209.54107,0.41519
5207.61233,0.41457
5205.68358,0.41393
5203.75484,0.41323
5201.82609,0.41273
5199.89735,0.41270
5197.96860,0.41283
5196.03986,0.41281
5194.11111,0.41295
5192.18237,0.41313
5190.25362,0.41312
5188.32488,0.41295
5186.39613,0.41254
5184.46739,0.41219
5182.53864,0.41211
5180.60990,0.41220
5178.68115,0.41258
5176.75240,0.41332
5174.82366,0.41435
5172.89491,0.41538
5170.96617,0.41607
5169.03742,0.41651
5167.10868,0.41719
5165.17993,0.41831
5163.25119,0.41908
5161.32244,0.41914
5159.39370,0.41965
5157.46495,0.42103
5155.53621,0.42222
5153.60746,0.42277
5151.67872,0.42292
5149.74997,0.42245
5147.82123,0.42179
5145.89248,0.42207
5143.96373,0.42357
5142.03499,0.42529
5140.10624,0.42602
5138.17750,0.42620
5136.24875,0.42713
5134.32001,0.42830
5132.39126,0.42836
5130.46252,0.42792
5128.53377,0.42834
5126.60503,0.42943
5124.67628,0.43040
5122.74754,0.43116
5120.81879,0.43191
5118.89005,0.43264
5116.96130,0.43309
5115.03255,0.43332
5113.10381,0.43373
5111.17506,0.43449
5109.24632,0.43541
5107.31757,0.43614
5105.38883,0.43641
5103.46008,0.43688
5101.53134,0.43797
5099.60259,0.43911
5097.67385,0.43985
5095.74510,0.44022
5093.81636,0.44051
5091.88761,0.44078
5089.95887,0.44100
5088.03012,0.44145
5086.10138,0.44217
5084.17263,0.44270
5082.24388,0.44301
5080.31514,0.44334
5078.38639,0.44376
5076.45765,0.44429
5074.52890,0.44481
5072.60016,0.44514
5070.67141,0.44550
5068.74267,0.44615
5066.81392,0.44699
5064.88518,0.44761
5062.95643,0.44760
5061.02769,0.44726
5059.09894,0.44768
5057.17020,0.44924
5055.24145,0.45050
5053.31270,0.45056
5051.38396,0.45050
5049.45521,0.45102
5047.52647,0.45170
5045.59772,0.45215
5043.66898,0.45253
5041.74023,0.45322
5039.81149,0.45398
5037.88274,0.45429
5035.95400,0.45406
5034.02525,0.45377
5032.09651,0.45389
5030.16776,0.45435
5028.23902,0.45510
5026.31027,0.45610
5024.38153,0.45669
5022.45278,0.45656
5020.52403,0.45655
5018.59529,0.45702
5016.66654,0.45759
5014.73780,0.45834
5012.80905,0.45910
5010.88031,0.45943
5008.95156,0.45964
5007.02282,0.46005
5005.09407,0.46048
5003.16533,0.46090
5001.23658,0.46134
4999.30784,0.46152
4997.37909,0.46144
4995.45035,0.46175
4993.52160,0.46277
4991.59286,0.46361
4989.66411,0.46364
4987.73536,0.46343
4985.80662,0.46376
4983.87787,0.46452
4981.94913,0.46487
4980.02038,0.46471
4978.09164,0.46462
4976.16289,0.46467
4974.23415,0.46472
4972.30540,0.46491
4970.37666,0.46559
4968.44791,0.46678
4966.51917,0.46772
4964.59042,0.46782
4962.66168,0.46750
4960.73293,0.46710
4958.80418,0.46687
4956.87544,0.46727
4954.94669,0.46803
4953.01795,0.46829
4951.08920,0.46793
4949.16046,0.46779
4947.23171,0.46837
4945.30297,0.46918
4943.37422,0.46965
4941.44548,0.46966
4939.51673,0.46941
4937.58799,0.46939
4935.65924,0.46970
4933.73050,0.46982
4931.80175,0.46980
4929.87301,0.47006
4927.94426,0.47025
4926.01551,0.47017
4924.08677,0.47013
4922.15802,0.47020
4920.22928,0.47032
4918.30053,0.47032
4916.37179,0.47012
4914.44304,0.46994
4912.51430,0.46976
4910.58555,0.46974
4908.65681,0.47025
4906.72806,0.47063
4904.79932,0.47029
4902.87057,0.46988
4900.94183,0.46992
4899.01308,0.47010
4897.08434,0.47013
4895.15559,0.47018
4893.22684,0.47005
4891.29810,0.46945
4889.36935,0.46876
4887.44061,0.46825
4885.51186,0.46785
4883.58312,0.46770
4881.65437,0.46778
4879.72563,0.46787
4877.79688,0.46771
4875.86814,0.46745
4873.93939,0.46727
4872.01065,0.46685
4870.08190,0.46621
4868.15316,0.46593
4866.22441,0.46594
4864.29566,0.46579
4862.36692,0.46560
4860.43817,0.46579
4858.50943,0.46636
4856.58068,0.46665
4854.65194,0.46621
4852.72319,0.46569
4850.79445,0.46568
4848.86570,0.46579
4846.93696,0.46556
4845.00821,0.46519
4843.07947,0.46522
4841.15072,0.46558
4839.22198,0.46527
4837.29323,0.46421
4835.36449,0.46358
4833.43574,0.46361
4831.50699,0.46346
4829.57825,0.46302
4827.64950,0.46245
4825.72076,0.46190
4823.79201,0.46187
4821.86327,0.46238
4819.93452,0.46277
4818.00578,0.46296
4816.07703,0.46301
4814.14829,0.46260
4812.21954,0.46195
4810.29080,0.46157
4808.36205,0.46144
4806.43331,0.46127
4804.50456,0.46094
4802.57582,0.46053
4800.64707,0.46024
4798.71832,0.45997
4796.78958,0.45946
4794.86083,0.45897
4792.93209,0.45888
4791.00334,0.45892
4789.07460,0.45892
4787.14585,0.45894
4785.21711,0.45880
4783.28836,0.45866
4781.35962,0.45880
4779.43087,0.45875
4777.50213,0.45843
4775.57338,0.45847
4773.64464,0.45896
4771.71589,0.45926
4769.78714,0.45887
4767.85840,0.45818
4765.92965,0.45817
4764.00091,0.45875
4762.07216,0.45898
4760.14342,0.45865
4758.21467,0.45831
4756.28593,0.45830
4754.35718,0.45854
4752.42844,0.45879
4750.49969,0.45880
4748.57095,0.45845
4746.64220,0.45806
4744.71346,0.45807
4742.78471,0.45839
4740.85597,0.45837
4738.92722,0.45797
4736.99847,0.45783
4735.06973,0.45823
4733.14098,0.45880
4731.21224,0.45908
4729.28349,0.45915
4727.35475,0.45927
4725.42600,0.45953
4723.49726,0.45967
4721.56851,0.45943
4719.63977,0.45933
4717.71102,0.45978
4715.78228,0.46016
4713.85353,0.46022
4711.92479,0.46049
4709.99604,0.46096
4708.06729,0.46115
4706.13855,0.46096
4704.20980,0.46065
4702.28106,0.46047
4700.35231,0.46056
4698.42357,0.46055
4696.49482,0.46031
4694.56608,0.46035
4692.63733,0.46069
4690.70859,0.46074
4688.77984,0.46074
4686.85110,0.46098
4684.92235,0.46100
4682.99361,0.46053
4681.06486,0.45984
4679.13612,0.45936
4677.20737,0.45895
4675.27862,0.45805
4673.34988,0.45680
4671.42113,0.45588
4669.49239,0.45544
4667.56364,0.45538
4665.63490,0.45573
4663.70615,0.45608
4661.77741,0.45602
4659.84866,0.45590
4657.91992,0.45611
4655.99117,0.45675
4654.06243,0.45794
4652.13368,0.45928
4650.20494,0.46004
4648.27619,0.46015
4646.34745,0.46003
4644.41870,0.45996
4642.48995,0.45981
4640.56121,0.45941
4638.63246,0.45918
4636.70372,0.45931
4634.77497,0.45924
4632.84623,0.45872
4630.91748,0.45800
4628.98874,0.45729
4627.05999,0.45679
4625.13125,0.45669
4623.20250,0.45657
4621.27376,0.45607
4619.34501,0.45584
4617.41627,0.45602
4615.48752,0.45582
4613.55877,0.45515
4611.63003,0.45460
4609.70128,0.45438
4607.77254,0.45440
4605.84379,0.45480
4603.91505,0.45559
4601.98630,0.45616
4600.05756,0.45630
4598.12881,0.45633
4596.20007,0.45618
4594.27132,0.45590
4592.34258,0.45593
4590.41383,0.45612
4588.48509,0.45614
4586.55634,0.45620
4584.62760,0.45635
4582.69885,0.45603
4580.77010,0.45515
4578.84136,0.45431
4576.91261,0.45381
4574.98387,0.45357
4573.05512,0.45322
4571.12638,0.45241
4569.19763,0.45168
4567.26889,0.45153
4565.34014,0.45209
4563.41140,0.45324
4561.48265,0.45400
4559.55391,0.45391
4557.62516,0.45370
4555.69642,0.45359
4553.76767,0.45335
4551.83893,0.45319
4549.91018,0.45303
4547.98143,0.45250
4546.05269,0.45202
4544.12394,0.45222
4542.19520,0.45247
4540.26645,0.45197
4538.33771,0.45107
4536.40896,0.45045
4534.48022,0.45035
4532.55147,0.45040
4530.62273,0.45013
4528.69398,0.44954
4526.76524,0.44897
4524.83649,0.44875
4522.90775,0.44886
4520.97900,0.44910
4519.05025,0.44924
4517.12151,0.44886
4515.19276,0.44808
4513.26402,0.44761
4511.33527,0.44722
4509.40653,0.44637
4507.47778,0.44569
4505.54904,0.44559
4503.62029,0.44570
4501.69155,0.44598
4499.76280,0.44624
4497.83406,0.44597
4495.90531,0.44535
4493.97657,0.44500
4492.04782,0.44507
4490.11908,0.44500
4488.19033,0.44450
4486.26158,0.44400
4484.33284,0.44393
4482.40409,0.44411
4480.47535,0.44383
4478.54660,0.44287
4476.61786,0.44208
4474.68911,0.44202
4472.76037,0.44234
4470.83162,0.44255
4468.90288,0.44238
4466.97413,0.44182
4465.04539,0.44129
4463.11664,0.44092
4461.18790,0.44052
4459.25915,0.44013
4457.33041,0.43949
4455.40166,0.43848
4453.47291,0.43778
4451.54417,0.43748
4449.61542,0.43706
4447.68668,0.43649
4445.75793,0.43573
4443.82919,0.43489
4441.90044,0.43428
4439.97170,0.43352
4438.04295,0.43256
4436.11421,0.43208
4434.18546,0.43195
4432.25672,0.43139
4430.32797,0.43038
4428.39923,0.42945
4426.47048,0.42862
4424.54173,0.42773
4422.61299,0.42696
4420.68424,0.42639
4418.75550,0.42567
4416.82675,0.42439
4414.89801,0.42282
4412.96926,0.42171
4411.04052,0.42119
4409.11177,0.42090
4407.18303,0.42059
4405.25428,0.41994
4403.32554,0.41890
4401.39679,0.41797
4399.46805,0.41761
4397.53930,0.41770
4395.61056,0.41781
4393.68181,0.41789
4391.75306,0.41801
4389.82432,0.41805
4387.89557,0.41794
4385.96683,0.41760
4384.03808,0.41705
4382.10934,0.41665
4380.18059,0.41655
4378.25185,0.41658
4376.32310,0.41644
4374.39436,0.41570
4372.46561,0.41454
4370.53687,0.41374
4368.60812,0.41358
4366.67938,0.41358
4364.75063,0.41333
4362.82189,0.41292
4360.89314,0.41233
4358.96439,0.41182
4357.03565,0.41180
4355.10690,0.41195
4353.17816,0.41158
4351.24941,0.41075
4349.32067,0.40999
4347.39192,0.40919
4345.46318,0.40816
4343.53443,0.40745
4341.60569,0.40698
4339.67694,0.40602
4337.74820,0.40472
4335.81945,0.40349
4333.89071,0.40246
4331.96196,0.40192
4330.03321,0.40177
4328.10447,0.40156
4326.17572,0.40123
4324.24698,0.40107
4322.31823,0.40132
4320.38949,0.40217
4318.46074,0.40348
4316.53200,0.40484
4314.60325,0.40601
4312.67451,0.40682
4310.74576,0.40715
4308.81702,0.40713
4306.88827,0.40694
4304.95953,0.40674
4303.03078,0.40671
4301.10204,0.40677
4299.17329,0.40678
4297.24454,0.40671
4295.31580,0.40650
4293.38705,0.40640
4291.45831,0.40660
4289.52956,0.40661
4287.60082,0.40604
4285.67207,0.40526
4283.74333,0.40451
4281.81458,0.40359
4279.88584,0.40254
4277.95709,0.40168
4276.02835,0.40109
4274.09960,0.40062
4272.17086,0.40002
4270.24211,0.39908
4268.31336,0.39811
4266.38462,0.39745
4264.45587,0.39703
4262.52713,0.39671
4260.59838,0.39639
4258.66964,0.39603
4256.74089,0.39573
4254.81215,0.39556
4252.88340,0.39543
4250.95466,0.39528
4249.02591,0.39529
4247.09717,0.39551
4245.16842,0.39573
4243.23968,0.39573
4241.31093,0.39543
4239.38219,0.39512
4237.45344,0.39496
4235.52469,0.39480
4233.59595,0.39475
4231.66720,0.39486
4229.73846,0.39488
4227.80971,0.39483
4225.88097,0.39461
4223.95222,0.39397
4222.02348,0.39319
4220.09473,0.39259
4218.16599,0.39211
4216.23724,0.39180
4214.30850,0.39173
4212.37975,0.39164
4210.45101,0.39131
4208.52226,0.39084
4206.59352,0.39048
4204.66477,0.39030
4202.73602,0.39011
4200.80728,0.38975
4198.87853,0.38943
4196.94979,0.38956
4195.02104,0.38996
4193.09230,0.38995
4191.16355,0.38941
4189.23481,0.38876
4187.30606,0.38833
4185.37732,0.38810
4183.44857,0.38766
4181.51983,0.38681
4179.59108,0.38616
4177.66234,0.38621
4175.73359,0.38648
4173.80484,0.38622
4171.87610,0.38556
4169.94735,0.38526
4168.01861,0.38542
4166.08986,0.38567
4164.16112,0.38575
4162.23237,0.38532
4160.30363,0.38458
4158.37488,0.38425
4156.44614,0.38437
4154.51739,0.38429
4152.58865,0.38367
4150.65990,0.38298
4148.73116,0.38258
4146.80241,0.38215
4144.87367,0.38145
4142.94492,0.38071
4141.01617,0.38003
4139.08743,0.37932
4137.15868,0.37855
4135.22994,0.37784
4133.30119,0.37734
4131.37245,0.37686
4129.44370,0.37609
4127.51496,0.37520
4125.58621,0.37451
4123.65747,0.37381
4121.72872,0.37282
4119.79998,0.37182
4117.87123,0.37106
4115.94249,0.37030
4114.01374,0.36940
4112.08500,0.36865
4110.15625,0.36822
4108.22750,0.36774
4106.29876,0.36673
4104.37001,0.36529
4102.44127,0.36405
4100.51252,0.36334
4098.58378,0.36273
4096.65503,0.36166
4094.72629,0.36036
4092.79754,0.35916
4090.86880,0.35800
4088.94005,0.35690
4087.01131,0.35591
4085.08256,0.35480
4083.15382,0.35341
4081.22507,0.35187
4079.29632,0.35046
4077.36758,0.34941
4075.43883,0.34839
4073.51009,0.34700
4071.58134,0.34552
4069.65260,0.34422
4067.72385,0.34274
4065.79511,0.34107
4063.86636,0.33971
4061.93762,0.33886
4060.00887,0.33811
4058.08013,0.33694
4056.15138,0.33541
4054.22264,0.33410
4052.29389,0.33329
4050.36515,0.33277
4048.43640,0.33240
4046.50765,0.33201
4044.57891,0.33139
4042.65016,0.33063
4040.72142,0.33006
4038.79267,0.32976
4036.86393,0.32959
4034.93518,0.32976
4033.00644,0.33034
4031.07769,0.33074
4029.14895,0.33083
4027.22020,0.33126
4025.29146,0.33204
4023.36271,0.33263
4021.43397,0.33291
4019.50522,0.33322
4017.57648,0.33372
4015.64773,0.33416
4013.71898,0.33433
4011.79024,0.33431
4009.86149,0.33425
4007.93275,0.33419
4006.00400,0.33413
4004.07526,0.33396
4002.14651,0.33374
4000.21777,0.33382
3998.28902,0.33428
3996.36028,0.33486
3994.43153,0.33536
3992.50279,0.33540
3990.57404,0.33502
3988.64530,0.33487
3986.71655,0.33520
3984.78780,0.33550
3982.85906,0.33550
3980.93031,0.33564
3979.00157,0.33592
3977.07282,0.33602
3975.14408,0.33608
3973.21533,0.33609
3971.28659,0.33594
3969.35784,0.33595
3967.42910,0.33621
3965.50035,0.33646
3963.57161,0.33648
3961.64286,0.33619
3959.71412,0.33585
3957.78537,0.33576
3955.85663,0.33567
3953.92788,0.33540
3951.99913,0.33534
3950.07039,0.33568
3948.14164,0.33610
3946.21290,0.33641
3944.28415,0.33655
3942.35541,0.33652
3940.42666,0.33649
3938.49792,0.33656
3936.56917,0.33663
3934.64043,0.33674
3932.71168,0.33693
3930.78294,0.33726
3928.85419,0.33752
3926.92545,0.33737
3924.99670,0.33703
3923.06795,0.33709
3921.13921,0.33738
3919.21046,0.33728
3917.28172,0.33699
3915.35297,0.33707
3913.42423,0.33745
3911.49548,0.33783
3909.56674,0.33820
3907.63799,0.33839
3905.70925,0.33842
3903.78050,0.33856
3901.85176,0.33855
3899.92301,0.33819
3897.99427,0.33802
3896.06552,0.33809
3894.13678,0.33818
3892.20803,0.33840
3890.27928,0.33873
3888.35054,0.33891
3886.42179,0.33876
3884.49305,0.33829
3882.56430,0.33792
3880.63556,0.33784
3878.70681,0.33788
3876.77807,0.33801
3874.84932,0.33816
3872.92058,0.33817
3870.99183,0.33809
3869.06309,0.33788
3867.13434,0.33764
3865.20560,0.33761
3863.27685,0.33779
3861.34811,0.33787
3859.41936,0.33775
3857.49061,0.33758
3855.56187,0.33735
3853.63312,0.33699
3851.70438,0.33669
3849.77563,0.33637
3847.84689,0.33601
3845.91814,0.33594
3843.98940,0.33610
3842.06065,0.33595
3840.13191,0.33529
3838.20316,0.33462
3836.27442,0.33446
3834.34567,0.33445
3832.41693,0.33399
3830.48818,0.33340
3828.55943,0.33306
3826.63069,0.33281
3824.70194,0.33253
3822.77320,0.33218
3820.84445,0.33153
3818.91571,0.33081
3816.98696,0.33029
3815.05822,0.32953
3813.12947,0.32855
3811.20073,0.32784
3809.27198,0.32740
3807.34324,0.32695
3805.41449,0.32653
3803.48575,0.32613
3801.55700,0.32551
3799.62826,0.32469
3797.69951,0.32400
3795.77076,0.32348
3793.84202,0.32272
3791.91327,0.32167
3789.98453,0.32076
3788.05578,0.32012
3786.12704,0.31956
3784.19829,0.31901
3782.26955,0.31849
3780.34080,0.31783
3778.41206,0.31698
3776.48331,0.31614
3774.55457,0.31523
3772.62582,0.31401
3770.69708,0.31271
3768.76833,0.31155
3766.83959,0.31054
3764.91084,0.30963
3762.98209,0.30872
3761.05335,0.30783
3759.12460,0.30695
3757.19586,0.30590
3755.26711,0.30474
3753.33837,0.30353
3751.40962,0.30191
3749.48088,0.30003
3747.55213,0.29871
3745.62339,0.29754
3743.69464,0.29557
3741.76590,0.29334
3739.83715,0.29159
3737.90841,0.29017
3735.97966,0.28857
3734.05091,0.28640
3732.12217,0.28403
3730.19342,0.28175
3728.26468,0.27950
3726.33593,0.27709
3724.40719,0.27446
3722.47844,0.27180
3720.54970,0.26914
3718.62095,0.26642
3716.69221,0.26381
3714.76346,0.26110
3712.83472,0.25788
3710.90597,0.25413
3708.97723,0.25017
3707.04848,0.24629
3705.11974,0.24246
3703.19099,0.23834
3701.26224,0.23397
3699.33350,0.22975
3697.40475,0.22537
3695.47601,0.22060
3693.54726,0.21576
3691.61852,0.21062
3689.68977,0.20472
3687.76103,0.19828
3685.83228,0.19182
3683.90354,0.18496
3681.97479,0.17609
3680.04605,0.16293
3678.11730,0.14708
3676.18856,0.13689
3674.25981,0.13842
3672.33107,0.14436
3670.40232,0.14799
3668.47357,0.14839
3666.54483,0.14674
3664.61608,0.14433
3662.68734,0.14142
3660.75859,0.13848
3658.82985,0.13632
3656.90110,0.13493
3654.97236,0.13345
3653.04361,0.13160
3651.11487,0.12966
3649.18612,0.12790
3647.25738,0.12630
3645.32863,0.12458
3643.39989,0.12290
3641.47114,0.12135
3639.54239,0.11980
3637.61365,0.11824
3635.68490,0.11667
3633.75616,0.11519
3631.82741,0.11407
3629.89867,0.11293
3627.96992,0.11110
3626.04118,0.10940
3624.11243,0.10834
3622.18369,0.10731
3620.25494,0.10611
3618.32620,0.10496
3616.39745,0.10395
3614.46871,0.10311
3612.53996,0.10249
3610.61122,0.10169
3608.68247,0.10062
3606.75372,0.09974
3604.82498,0.09908
3602.89623,0.09853
3600.96749,0.09802
3599.03874,0.09735
3597.11000,0.09657
3595.18125,0.09589
3593.25251,0.09542
3591.32376,0.09516
3589.39502,0.09484
3587.46627,0.09426
3585.53753,0.09359
3583.60878,0.09297
3581.68004,0.09234
3579.75129,0.09158
3577.82254,0.09074
3575.89380,0.09002
3573.96505,0.08952
3572.03631,0.08919
3570.10756,0.08886
3568.17882,0.08848
3566.25007,0.08815
3564.32133,0.08774
3562.39258,0.08729
3560.46384,0.08700
3558.53509,0.08666
3556.60635,0.08598
3554.67760,0.08523
3552.74886,0.08483
3550.82011,0.08478
3548.89137,0.08473
3546.96262,0.08444
3545.03387,0.08403
3543.10513,0.08363
3541.17638,0.08316
3539.24764,0.08278
3537.31889,0.08267
3535.39015,0.08259
3533.46140,0.08226
3531.53266,0.08174
3529.60391,0.08141
3527.67517,0.08149
3525.74642,0.08161
3523.81768,0.08139
3521.88893,0.08101
3519.96019,0.08067
3518.03144,0.08045
3516.10270,0.08048
3514.17395,0.08058
3512.24520,0.08036
3510.31646,0.07991
3508.38771,0.07960
3506.45897,0.07933
3504.53022,0.07893
3502.60148,0.07862
3500.67273,0.07854
3498.74399,0.07852
3496.81524,0.07844
3494.88650,0.07833
3492.95775,0.07824
3491.02901,0.07800
3489.10026,0.07746
3487.17152,0.07687
3485.24277,0.07653
3483.31402,0.07644
3481.38528,0.07635
3479.45653,0.07615
3477.52779,0.07593
3475.59904,0.07571
3473.67030,0.07567
3471.74155,0.07588
3469.81281,0.07599
3467.88406,0.07574
3465.95532,0.07532
3464.02657,0.07499
3462.09783,0.07461
3460.16908,0.07400
3458.24034,0.07350
3456.31159,0.07344
3454.38285,0.07350
3452.45410,0.07343
3450.52535,0.07340
3448.59661,0.07351
3446.66786,0.07360
3444.73912,0.07347
3442.81037,0.07319
3440.88163,0.07295
3438.95288,0.07279
3437.02414,0.07264
3435.09539,0.07252
3433.16665,0.07250
3431.23790,0.07263
3429.30916,0.07284
3427.38041,0.07295
3425.45167,0.07294
3423.52292,0.07278
3421.59418,0.07240
3419.66543,0.07211
3417.73668,0.07209
3415.80794,0.07231
3413.87919,0.07261
3411.95045,0.07257
3410.02170,0.07198
3408.09296,0.07110
3406.16421,0.07048
3404.23547,0.07054
3402.30672,0.07095
3400.37798,0.07133
3398.44923,0.07171
3396.52049,0.07195
3394.59174,0.07192
3392.66300,0.07186
3390.73425,0.07182
3388.80550,0.07172
3386.87676,0.07167
3384.94801,0.07179
3383.01927,0.07203
3381.09052,0.07209
3379.16178,0.07178
3377.23303,0.07130
3375.30429,0.07105
3373.37554,0.07123
3371.44680,0.07167
3369.51805,0.07205
3367.58931,0.07207
3365.66056,0.07192
3363.73182,0.07215
3361.80307,0.07254
3359.87433,0.07251
3357.94558,0.07214
3356.01683,0.07179
3354.08809,0.07178
3352.15934,0.07220
3350.23060,0.07281
3348.30185,0.07316
3346.37311,0.07298
3344.44436,0.07257
3342.51562,0.07240
3340.58687,0.07265
3338.65813,0.07317
3336.72938,0.07352
3334.80064,0.07346
3332.87189,0.07329
3330.94315,0.07326
3329.01440,0.07321
3327.08566,0.07319
3325.15691,0.07330
3323.22816,0.07330
3321.29942,0.07316
3319.37067,0.07302
3317.44193,0.07277
3315.51318,0.07260
3313.58444,0.07280
3311.65569,0.07299
3309.72695,0.07309
3307.79820,0.07352
3305.86946,0.07403
3303.94071,0.07411
3302.01197,0.07391
3300.08322,0.07386
3298.15448,0.07400
3296.22573,0.07413
3294.29698,0.07423
3292.36824,0.07442
3290.43949,0.07456
3288.51075,0.07452
3286.58200,0.07449
3284.65326,0.07458
3282.72451,0.07479
3280.79577,0.07505
3278.86702,0.07514
3276.93828,0.07509
3275.00953,0.07516
3273.08079,0.07528
3271.15204,0.07525
3269.22330,0.07550
3267.29455,0.07621
3265.36581,0.07679
3263.43706,0.07690
3261.50831,0.07695
3259.57957,0.07721
3257.65082,0.07742
3255.72208,0.07745
3253.79333,0.07744
3251.86459,0.07751
3249.93584,0.07777
3248.00710,0.07804
3246.07835,0.07811
3244.14961,0.07813
3242.22086,0.07812
3240.29212,0.07803
3238.36337,0.07822
3236.43463,0.07860
3234.50588,0.07857
3232.57713,0.07834
3230.64839,0.07847
3228.71964,0.07895
3226.79090,0.07952
3224.86215,0.07987
3222.93341,0.07983
3221.00466,0.07964
3219.07592,0.07978
3217.14717,0.08022
3215.21843,0.08070
3213.28968,0.08129
3211.36094,0.08184
3209.43219,0.08209
3207.50345,0.08209
3205.57470,0.08207
3203.64596,0.08235
3201.71721,0.08272
3199.78846,0.08277
3197.85972,0.08273
3195.93097,0.08296
3194.00223,0.08332
3192.07348,0.08360
3190.14474,0.08389
3188.21599,0.08429
3186.28725,0.08472
3184.35850,0.08499
3182.42976,0.08495
3180.50101,0.08469
3178.57227,0.08466
3176.64352,0.08498
3174.71478,0.08544
3172.78603,0.08595
3170.85729,0.08655
3168.92854,0.08691
3166.99979,0.08686
3165.07105,0.08680
3163.14230,0.08688
3161.21356,0.08693
3159.28481,0.08707
3157.35607,0.08746
3155.42732,0.08809
3153.49858,0.08872
3151.56983,0.08899
3149.64109,0.08899
3147.71234,0.08911
3145.78360,0.08924
3143.85485,0.08925
3141.92611,0.08941
3139.99736,0.08979
3138.06861,0.09035
3136.13987,0.09096
3134.21112,0.09136
3132.28238,0.09160
3130.35363,0.09184
3128.42489,0.09198
3126.49614,0.09197
3124.56740,0.09207
3122.63865,0.09231
3120.70991,0.09262
3118.78116,0.09296
3116.85242,0.09327
3114.92367,0.09363
3112.99493,0.09390
3111.06618,0.09384
3109.13744,0.09356
3107.20869,0.09336
3105.27994,0.09335
3103.35120,0.09343
3101.42245,0.09366
3099.49371,0.09405
3097.56496,0.09425
3095.63622,0.09409
3093.70747,0.09369
3091.77873,0.09320
3089.84998,0.09291
3087.92124,0.09283
3085.99249,0.09273
3084.06375,0.09276
3082.13500,0.09323
3080.20626,0.09398
3078.27751,0.09472
3076.34877,0.09527
3074.42002,0.09539
3072.49127,0.09512
3070.56253,0.09479
3068.63378,0.09435
3066.70504,0.09361
3064.77629,0.09280
3062.84755,0.09221
3060.91880,0.09194
3058.99006,0.09227
3057.06131,0.09340
3055.13257,0.09503
3053.20382,0.09657
3051.27508,0.09775
3049.34633,0.09866
3047.41759,0.09945
3045.48884,0.10007
3043.56009,0.10022
3041.63135,0.09977
3039.70260,0.09892
3037.77386,0.09783
3035.84511,0.09619
3033.91637,0.09380
3031.98762,0.09133
3030.05888,0.08954
3028.13013,0.08860
3026.20139,0.08868
3024.27264,0.09015
3022.34390,0.09286
3020.41515,0.09610
3018.48641,0.09918
3016.55766,0.10168
3014.62892,0.10353
3012.70017,0.10472
3010.77142,0.10525
3008.84268,0.10515
3006.91393,0.10461
3004.98519,0.10389
3003.05644,0.10334
3001.12770,0.10330
2999.19895,0.10366
2997.27021,0.10389
2995.34146,0.10379
2993.41272,0.10358
2991.48397,0.10324
2989.55523,0.10259
2987.62648,0.10153
2985.69774,0.10003
2983.76899,0.09833
2981.84025,0.09668
2979.91150,0.09483
2977.98275,0.09257
2976.05401,0.09014
2974.12526,0.08783
2972.19652,0.08551
2970.26777,0.08304
2968.33903,0.08073
2966.41028,0.07886
2964.48154,0.07750
2962.55279,0.07664
2960.62405,0.07606
2958.69530,0.07570
2956.76656,0.07575
2954.83781,0.07613
2952.90907,0.07664
2950.98032,0.07718
2949.05157,0.07750
2947.12283,0.07740
2945.19408,0.07689
2943.26534,0.07608
2941.33659,0.07517
2939.40785,0.07434
2937.47910,0.07341
2935.55036,0.07234
2933.62161,0.07155
2931.69287,0.07111
2929.76412,0.07071
2927.83538,0.07052
2925.90663,0.07073
2923.97789,0.07111
2922.04914,0.07162
2920.12040,0.07235
2918.19165,0.07329
2916.26290,0.07455
2914.33416,0.07609
2912.40541,0.07753
2910.47667,0.07872
2908.54792,0.07982
2906.61918,0.08089
2904.69043,0.08188
2902.76169,0.08293
2900.83294,0.08414
2898.90420,0.08527
2896.97545,0.08611
2895.04671,0.08689
2893.11796,0.08790
2891.18922,0.08889
2889.26047,0.08958
2887.33172,0.09013
2885.40298,0.09058
2883.47423,0.09060
2881.54549,0.09031
2879.61674,0.08993
2877.68800,0.08932
2875.75925,0.08853
2873.83051,0.08795
2871.90176,0.08790
2869.97302,0.08846
2868.04427,0.08922
2866.11553,0.08942
2864.18678,0.08885
2862.25804,0.08806
2860.32929,0.08766
2858.40055,0.08774
2856.47180,0.08832
2854.54305,0.08959
2852.61431,0.09154
2850.68556,0.09406
2848.75682,0.09692
2846.82807,0.09980
2844.89933,0.10285
2842.97058,0.10634
2841.04184,0.11005
2839.11309,0.11336
2837.18435,0.11607
2835.25560,0.11838
2833.32686,0.12032
2831.39811,0.12191
2829.46937,0.12352
2827.54062,0.12535
2825.61188,0.12709
2823.68313,0.12847
2821.75438,0.12960
2819.82564,0.13065
2817.89689,0.13179
2815.96815,0.13297
2814.03940,0.13411
2812.11066,0.13512
2810.18191,0.13595
2808.25317,0.13676
2806.32442,0.13759
2804.39568,0.13832
2802.46693,0.13897
2800.53819,0.13958
2798.60944,0.14025
2796.68070,0.14108
2794.75195,0.14204
2792.82320,0.14289
2790.89446,0.14354
2788.96571,0.14408
2787.03697,0.14464
2785.10822,0.14521
2783.17948,0.14577
2781.25073,0.14633
2779.32199,0.14688
2777.39324,0.14732
2775.46450,0.14772
2773.53575,0.14820
2771.60701,0.14878
2769.67826,0.14935
2767.74952,0.14983
2765.82077,0.15015
2763.89203,0.15038
2761.96328,0.15077
2760.03453,0.15122
2758.10579,0.15147
2756.17704,0.15166
2754.24830,0.15202
2752.31955,0.15251
2750.39081,0.15292
2748.46206,0.15310
2746.53332,0.15319
2744.60457,0.15322
2742.67583,0.15321
2740.74708,0.15340
2738.81834,0.15385
2736.88959,0.15426
2734.96085,0.15449
2733.03210,0.15473
2731.10336,0.15517
2729.17461,0.15573
2727.24586,0.15625
2725.31712,0.15673
2723.38837,0.15726
2721.45963,0.15773
2719.53088,0.15815
2717.60214,0.15875
2715.67339,0.15942
2713.74465,0.15996
2711.81590,0.16042
2709.88716,0.16101
2707.95841,0.16183
2706.02967,0.16266
2704.10092,0.16333
2702.17218,0.16394
2700.24343,0.16445
2698.31468,0.16493
2696.38594,0.16556
2694.45719,0.16613
2692.52845,0.16654
2690.59970,0.16703
2688.67096,0.16761
2686.74221,0.16805
2684.81347,0.16837
2682.88472,0.16888
2680.95598,0.16961
2679.02723,0.17033
2677.09849,0.17093
2675.16974,0.17125
2673.24100,0.17147
2671.31225,0.17191
2669.38351,0.17250
2667.45476,0.17304
2665.52601,0.17352
2663.59727,0.17393
2661.66852,0.17437
2659.73978,0.17495
2657.81103,0.17540
2655.88229,0.17565
2653.95354,0.17595
2652.02480,0.17635
2650.09605,0.17686
2648.16731,0.17751
2646.23856,0.17809
2644.30982,0.17846
2642.38107,0.17874
2640.45233,0.17906
2638.52358,0.17933
2636.59484,0.17946
2634.66609,0.17964
2632.73734,0.17997
2630.80860,0.18028
2628.87985,0.18056
2626.95111,0.18097
2625.02236,0.18143
2623.09362,0.18175
2621.16487,0.18193
2619.23613,0.18215
2617.30738,0.18239
2615.37864,0.18244
2613.44989,0.18239
2611.52115,0.18237
2609.59240,0.18237
2607.66366,0.18239
2605.73491,0.18233
2603.80616,0.18213
2601.87742,0.18201
2599.94867,0.18220
2598.01993,0.18257
2596.09118,0.18297
2594.16244,0.18342
2592.23369,0.18388
2590.30495,0.18415
2588.37620,0.18418
2586.44746,0.18423
2584.51871,0.18438
2582.58997,0.18456
2580.66122,0.18466
2578.73248,0.18468
2576.80373,0.18478
2574.87499,0.18508
2572.94624,0.18548
2571.01749,0.18577
2569.08875,0.18582
2567.16000,0.18562
2565.23126,0.18543
2563.30251,0.18541
2561.37377,0.18538
2559.44502,0.18523
2557.51628,0.18512
2555.58753,0.18504
2553.65879,0.18480
2551.73004,0.18443
2549.80130,0.18404
2547.87255,0.18368
2545.94381,0.18341
2544.01506,0.18312
2542.08631,0.18278
2540.15757,0.18240
2538.22882,0.18184
2536.30008,0.18116
2534.37133,0.18044
2532.44259,0.17940
2530.51384,0.17817
2528.58510,0.17720
2526.65635,0.17650
2524.72761,0.17584
2522.79886,0.17520
2520.87012,0.17468
2518.94137,0.17429
2517.01263,0.17396
2515.08388,0.17384
2513.15514,0.17411
2511.22639,0.17465
2509.29764,0.17529
2507.36890,0.17616
2505.44015,0.17742
2503.51141,0.17894
2501.58266,0.18046
2499.65392,0.18184
2497.72517,0.18329
2495.79643,0.18513
2493.86768,0.18720
2491.93894,0.18912
2490.01019,0.19068
2488.08145,0.19205
2486.15270,0.19349
2484.22396,0.19493
2482.29521,0.19626
2480.36647,0.19753
2478.43772,0.19868
2476.50897,0.19969
2474.58023,0.20063
2472.65148,0.20144
2470.72274,0.20206
2468.79399,0.20264
2466.86525,0.20328
2464.93650,0.20388
2463.00776,0.20433
2461.07901,0.20469
2459.15027,0.20513
2457.22152,0.20565
2455.29278,0.20607
2453.36403,0.20623
2451.43529,0.20628
2449.50654,0.20649
2447.57779,0.20685
2445.64905,0.20707
2443.72030,0.20708
2441.79156,0.20716
2439.86281,0.20754
2437.93407,0.20815
2436.00532,0.20865
2434.07658,0.20883
2432.14783,0.20882
2430.21909,0.20885
2428.29034,0.20907
2426.36160,0.20946
2424.43285,0.20974
2422.50411,0.20977
2420.57536,0.20968
2418.64662,0.20966
2416.71787,0.20969
2414.78912,0.20975
2412.86038,0.20989
2410.93163,0.21001
2409.00289,0.21008
2407.07414,0.21015
2405.14540,0.21020
2403.21665,0.21025
2401.28791,0.21021
2399.35916,0.21004
2397.43042,0.20993
2395.50167,0.21001
2393.57293,0.21014
2391.64418,0.21010
2389.71544,0.21000
2387.78669,0.20999
2385.85795,0.20990
2383.92920,0.20965
2382.00045,0.20952
2380.07171,0.20968
2378.14296,0.20993
2376.21422,0.20999
2374.28547,0.20983
2372.35673,0.20968
2370.42798,0.20971
2368.49924,0.20973
2366.57049,0.20958
2364.64175,0.20934
2362.71300,0.20912
2360.78426,0.20907
2358.85551,0.20909
2356.92677,0.20886
2354.99802,0.20850
2353.06927,0.20830
2351.14053,0.20823
2349.21178,0.20807
2347.28304,0.20773
2345.35429,0.20725
2343.42555,0.20679
2341.49680,0.20658
2339.56806,0.20653
2337.63931,0.20644
2335.71057,0.20647
2333.78182,0.20669
2331.85308,0.20689
2329.92433,0.20697
2327.99559,0.20704
2326.06684,0.20713
2324.13810,0.20711
2322.20935,0.20693
2320.28060,0.20666
2318.35186,0.20634
2316.42311,0.20597
2314.49437,0.20563
2312.56562,0.20540
2310.63688,0.20531
2308.70813,0.20521
2306.77939,0.20501
2304.85064,0.20494
2302.92190,0.20503
2300.99315,0.20501
2299.06441,0.20487
2297.13566,0.20468
2295.20692,0.20448
2293.27817,0.20429
2291.34943,0.20404
2289.42068,0.20365
2287.49193,0.20328
2285.56319,0.20306
2283.63444,0.20304
2281.70570,0.20297
2279.77695,0.20259
2277.84821,0.20208
2275.91946,0.20172
2273.99072,0.20149
2272.06197,0.20125
2270.13323,0.20097
2268.20448,0.20073
2266.27574,0.20041
2264.34699,0.19994
2262.41825,0.19952
2260.48950,0.19921
2258.56075,0.19886
2256.63201,0.19845
2254.70326,0.19810
2252.77452,0.19786
2250.84577,0.19771
2248.91703,0.19764
2246.98828,0.19749
2245.05954,0.19716
2243.13079,0.19680
2241.20205,0.19644
2239.27330,0.19613
2237.34456,0.19602
2235.41581,0.19598
2233.48707,0.19586
2231.55832,0.19577
2229.62958,0.19574
2227.70083,0.19573
2225.77208,0.19571
2223.84334,0.19570
2221.91459,0.19576
2219.98585,0.19594
2218.05710,0.19615
2216.12836,0.19629
2214.19961,0.19643
2212.27087,0.19663
2210.34212,0.19682
2208.41338,0.19696
2206.48463,0.19707
2204.55589,0.19716
2202.62714,0.19720
2200.69840,0.19719
2198.76965,0.19720
2196.84090,0.19720
2194.91216,0.19712
2192.98341,0.19697
2191.05467,0.19673
2189.12592,0.19646
2187.19718,0.19626
2185.26843,0.19610
2183.33969,0.19590
2181.41094,0.19569
2179.48220,0.19539
2177.55345,0.19502
2175.62471,0.19478
2173.69596,0.19463
2171.76722,0.19437
2169.83847,0.19397
2167.90973,0.19356
2165.98098,0.19314
2164.05223,0.19267
2162.12349,0.19218
2160.19474,0.19177
2158.26600,0.19147
2156.33725,0.19124
2154.40851,0.19093
2152.47976,0.19058
2150.55102,0.19032
2148.62227,0.19002
2146.69353,0.18958
2144.76478,0.18918
2142.83604,0.18899
2140.90729,0.18887
2138.97855,0.18858
2137.04980,0.18828
2135.12106,0.18828
2133.19231,0.18846
2131.26356,0.18862
2129.33482,0.18883
2127.40607,0.18913
2125.47733,0.18954
2123.54858,0.19004
2121.61984,0.19046
2119.69109,0.19080
2117.76235,0.19113
2115.83360,0.19137
2113.90486,0.19143
2111.97611,0.19143
2110.04737,0.19157
2108.11862,0.19181
2106.18988,0.19195
2104.26113,0.19197
2102.33238,0.19203
2100.40364,0.19213
2098.47489,0.19222
2096.54615,0.19237
2094.61740,0.19248
2092.68866,0.19241
2090.75991,0.19231
2088.83117,0.19241
2086.90242,0.19267
2084.97368,0.19282
2083.04493,0.19272
2081.11619,0.19258
2079.18744,0.19255
2077.25870,0.19249
2075.32995,0.19232
2073.40121,0.19222
2071.47246,0.19221
2069.54371,0.19216
2067.61497,0.19204
2065.68622,0.19185
2063.75748,0.19161
2061.82873,0.19134
2059.89999,0.19106
2057.97124,0.19082
2056.04250,0.19055
2054.11375,0.19006
2052.18501,0.18940
2050.25626,0.18881
2048.32752,0.18823
2046.39877,0.18746
2044.47003,0.18655
2042.54128,0.18554
2040.61254,0.18448
2038.68379,0.18339
2036.75504,0.18231
2034.82630,0.18135
2032.89755,0.18066
2030.96881,0.18016
2029.04006,0.17972
2027.11132,0.17937
2025.18257,0.17914
2023.25383,0.17898
2021.32508,0.17871
2019.39634,0.17821
2017.46759,0.17756
2015.53885,0.17689
2013.61010,0.17606
2011.68136,0.17500
2009.75261,0.17394
2007.82386,0.17306
2005.89512,0.17235
2003.96637,0.17169
2002.03763,0.17108
2000.10888,0.17061
1998.18014,0.17022
1996.25139,0.16989
1994.32265,0.16964
1992.39390,0.16938
1990.46516,0.16908
1988.53641,0.16891
1986.60767,0.16885
1984.67892,0.16871
1982.75018,0.16850
1980.82143,0.16831
1978.89269,0.16811
1976.96394,0.16784
1975.03519,0.16753
1973.10645,0.16728
1971.17770,0.16696
1969.24896,0.16653
1967.32021,0.16613
1965.39147,0.16573
1963.46272,0.16531
1961.53398,0.16495
1959.60523,0.16464
1957.67649,0.16414
1955.74774,0.16341
1953.81900,0.16269
1951.89025,0.16215
1949.96151,0.16167
1948.03276,0.16116
1946.10402,0.16072
1944.17527,0.16050
1942.24652,0.16057
1940.31778,0.16091
1938.38903,0.16158
1936.46029,0.16255
1934.53154,0.16362
1932.60280,0.16460
1930.67405,0.16535
1928.74531,0.16587
1926.81656,0.16627
1924.88782,0.16655
1922.95907,0.16660
1921.03033,0.16640
1919.10158,0.16586
1917.17284,0.16497
1915.24409,0.16406
1913.31534,0.16316
1911.38660,0.16199
1909.45785,0.16055
1907.52911,0.15902
1905.60036,0.15760
1903.67162,0.15633
1901.74287,0.15509
1899.81413,0.15379
1897.88538,0.15246
1895.95664,0.15104
1894.02789,0.14953
1892.09915,0.14821
1890.17040,0.14717
1888.24166,0.14622
1886.31291,0.14518
1884.38417,0.14414
1882.45542,0.14330
1880.52667,0.14265
1878.59793,0.14209
1876.66918,0.14155
1874.74044,0.14099
1872.81169,0.14044
1870.88295,0.14002
1868.95420,0.13992
1867.02546,0.14030
1865.09671,0.14112
1863.16797,0.14222
1861.23922,0.14356
1859.31048,0.14525
1857.38173,0.14722
1855.45299,0.14921
1853.52424,0.15095
1851.59549,0.15236
1849.66675,0.15366
1847.73800,0.15495
1845.80926,0.15604
1843.88051,0.15668
1841.95177,0.15683
1840.02302,0.15665
1838.09428,0.15629
1836.16553,0.15578
1834.23679,0.15506
1832.30804,0.15415
1830.37930,0.15311
1828.45055,0.15184
1826.52181,0.15035
1824.59306,0.14870
1822.66432,0.14708
1820.73557,0.14554
1818.80682,0.14407
1816.87808,0.14260
1814.94933,0.14103
1813.02059,0.13934
1811.09184,0.13749
1809.16310,0.13545
1807.23435,0.13320
1805.30561,0.13068
1803.37686,0.12799
1801.44812,0.12528
1799.51937,0.12291
1797.59063,0.12140
1795.66188,0.12090
1793.73314,0.12126
1791.80439,0.12228
1789.87565,0.12369
1787.94690,0.12514
1786.01815,0.12646
1784.08941,0.12755
1782.16066,0.12833
1780.23192,0.12880
1778.30317,0.12897
1776.37443,0.12905
1774.44568,0.12917
1772.51694,0.12932
1770.58819,0.12930
1768.65945,0.12893
1766.73070,0.12827
1764.80196,0.12754
1762.87321,0.12666
1760.94447,0.12541
1759.01572,0.12388
1757.08697,0.12203
1755.15823,0.11976
1753.22948,0.11716
1751.30074,0.11406
1749.37199,0.11010
1747.44325,0.10532
1745.51450,0.09983
1743.58576,0.09363
1741.65701,0.08676
1739.72827,0.07953
1737.79952,0.07334
1735.87078,0.06898
1733.94203,0.06589
1732.01329,0.06429
1730.08454,0.06455
1728.15580,0.06631
1726.22705,0.06914
1724.29830,0.07276
1722.36956,0.07677
1720.44081,0.08073
1718.51207,0.08480
1716.58332,0.08856
1714.65458,0.09094
1712.72583,0.09202
1710.79709,0.09240
1708.86834,0.09240
1706.93960,0.09195
1705.01085,0.09107
1703.08211,0.09033
1701.15336,0.08971
1699.22462,0.08869
1697.29587,0.08752
1695.36713,0.08622
1693.43838,0.08480
1691.50963,0.08352
1689.58089,0.08229
1687.65214,0.08114
1685.72340,0.08017
1683.79465,0.07919
1681.86591,0.07811
1679.93716,0.07706
1678.00842,0.07625
1676.07967,0.07562
1674.15093,0.07491
1672.22218,0.07404
1670.29344,0.07305
1668.36469,0.07214
1666.43595,0.07156
1664.50720,0.07120
1662.57845,0.07086
1660.64971,0.07047
1658.72096,0.07006
1656.79222,0.06983
1654.86347,0.06967
1652.93473,0.06917
1651.00598,0.06858
1649.07724,0.06823
1647.14849,0.06790
1645.21975,0.06758
1643.29100,0.06725
1641.36226,0.06678
1639.43351,0.06634
1637.50477,0.06600
1635.57602,0.06557
1633.64728,0.06504
1631.71853,0.06462
1629.78978,0.06428
1627.86104,0.06396
1625.93229,0.06366
1624.00355,0.06323
1622.07480,0.06272
1620.14606,0.06235
1618.21731,0.06216
1616.28857,0.06200
1614.35982,0.06175
1612.43108,0.06135
1610.50233,0.06075
1608.57359,0.06001
1606.64484,0.05929
1604.71610,0.05867
1602.78735,0.05823
1600.85861,0.05822
1598.92986,0.05864
1597.00111,0.05920
1595.07237,0.05968
1593.14362,0.05995
1591.21488,0.05983
1589.28613,0.05950
1587.35739,0.05927
1585.42864,0.05914
1583.49990,0.05909
1581.57115,0.05920
1579.64241,0.05946
1577.71366,0.05984
1575.78492,0.06021
1573.85617,0.06046
1571.92743,0.06076
1569.99868,0.06115
1568.06993,0.06142
1566.14119,0.06153
1564.21244,0.06175
1562.28370,0.06221
1560.35495,0.06283
1558.42621,0.06343
1556.49746,0.06390
1554.56872,0.06420
1552.63997,0.06438
1550.71123,0.06470
1548.78248,0.06523
1546.85374,0.06573
1544.92499,0.06620
1542.99625,0.06683
1541.06750,0.06744
1539.13876,0.06773
1537.21001,0.06804
1535.28126,0.06870
1533.35252,0.06953
1531.42377,0.07023
1529.49503,0.07070
1527.56628,0.07096
1525.63754,0.07104
1523.70879,0.07110
1521.78005,0.07118
1519.85130,0.07116
1517.92256,0.07100
1515.99381,0.07072
1514.06507,0.07043
1512.13632,0.07024
1510.20758,0.07016
1508.27883,0.06992
1506.35008,0.06885
1504.42134,0.06738
1502.49259,0.06617
1500.56385,0.06476
1498.63510,0.06263
1496.70636,0.06002
1494.77761,0.05849
1492.84887,0.05910
1490.92012,0.06100
1488.99138,0.06263
1487.06263,0.06333
1485.13389,0.06339
1483.20514,0.06293
1481.27640,0.06207
1479.34765,0.06118
1477.41891,0.06046
1475.49016,0.05981
1473.56141,0.05896
1471.63267,0.05769
1469.70392,0.05650
1467.77518,0.05583
1465.84643,0.05538
1463.91769,0.05481
1461.98894,0.05426
1460.06020,0.05381
1458.13145,0.05310
1456.20271,0.05203
1454.27396,0.05166
1452.34522,0.05238
1450.41647,0.05358
1448.48773,0.05466
1446.55898,0.05531
1444.63024,0.05562
1442.70149,0.05601
1440.77274,0.05650
1438.84400,0.05692
1436.91525,0.05727
1434.98651,0.05754
1433.05776,0.05773
1431.12902,0.05775
1429.20027,0.05763
1427.27153,0.05757
1425.34278,0.05757
1423.41404,0.05753
1421.48529,0.05762
1419.55655,0.05800
1417.62780,0.05846
1415.69906,0.05876
1413.77031,0.05902
1411.84156,0.05938
1409.91282,0.05988
1407.98407,0.06049
1406.05533,0.06111
1404.12658,0.06153
1402.19784,0.06182
1400.26909,0.06233
1398.34035,0.06306
1396.41160,0.06375
1394.48286,0.06440
1392.55411,0.06514
1390.62537,0.06579
1388.69662,0.06615
1386.76788,0.06621
1384.83913,0.06598
1382.91039,0.06555
1380.98164,0.06525
1379.05289,0.06534
1377.12415,0.06574
1375.19540,0.06619
1373.26666,0.06647
1371.33791,0.06665
1369.40917,0.06686
1367.48042,0.06713
1365.55168,0.06747
1363.62293,0.06784
1361.69419,0.06813
1359.76544,0.06832
1357.83670,0.06851
1355.90795,0.06880
1353.97921,0.06921
1352.05046,0.06969
1350.12172,0.07025
1348.19297,0.07089
1346.26422,0.07138
1344.33548,0.07156
1342.40673,0.07151
1340.47799,0.07139
1338.54924,0.07141
1336.62050,0.07164
1334.69175,0.07185
1332.76301,0.07195
1330.83426,0.07212
1328.90552,0.07237
1326.97677,0.07250
1325.04803,0.07255
1323.11928,0.07250
1321.19054,0.07228
1319.26179,0.07209
1317.33304,0.07213
1315.40430,0.07244
1313.47555,0.07307
1311.54681,0.07391
1309.61806,0.07472
1307.68932,0.07545
1305.76057,0.07618
1303.83183,0.07693
1301.90308,0.07757
1299.97434,0.07800
1298.04559,0.07840
1296.11685,0.07868
1294.18810,0.07867
1292.25936,0.07838
1290.33061,0.07798
1288.40187,0.07759
1286.47312,0.07716
1284.54437,0.07663
1282.61563,0.07615
1280.68688,0.07593
1278.75814,0.07597
1276.82939,0.07614
1274.90065,0.07638
1272.97190,0.07668
1271.04316,0.07691
1269.11441,0.07690
1267.18567,0.07674
1265.25692,0.07665
1263.32818,0.07677
1261.39943,0.07706
1259.47069,0.07730
1257.54194,0.07753
1255.61320,0.07793
1253.68445,0.07848
1251.75570,0.07888
1249.82696,0.07900
1247.89821,0.07916
1245.96947,0.07954
1244.04072,0.07990
1242.11198,0.08023
1240.18323,0.08060
1238.25449,0.08087
1236.32574,0.08118
1234.39700,0.08178
1232.46825,0.08247
1230.53951,0.08301
1228.61076,0.08341
1226.68202,0.08362
1224.75327,0.08358
1222.82452,0.08338
1220.89578,0.08294
1218.96703,0.08211
1217.03829,0.08100
1215.10954,0.07997
1213.18080,0.07900
1211.25205,0.07795
1209.32331,0.07693
1207.39456,0.07605
1205.46582,0.07532
1203.53707,0.07471
1201.60833,0.07413
1199.67958,0.07367
1197.75084,0.07342
1195.82209,0.07343
1193.89335,0.07356
1191.96460,0.07354
1190.03585,0.07326
1188.10711,0.07274
1186.17836,0.07211
1184.24962,0.07159
1182.32087,0.07119
1180.39213,0.07085
1178.46338,0.07060
1176.53464,0.07044
1174.60589,0.07032
1172.67715,0.07032
1170.74840,0.07048
1168.81966,0.07052
1166.89091,0.07024
1164.96217,0.06984
1163.03342,0.06950
1161.10467,0.06933
1159.17593,0.06958
1157.24718,0.07033
1155.31844,0.07150
1153.38969,0.07293
1151.46095,0.07428
1149.53220,0.07532
1147.60346,0.07626
1145.67471,0.07738
1143.74597,0.07841
1141.81722,0.07882
1139.88848,0.07894
1137.95973,0.07928
1136.03099,0.07967
1134.10224,0.08005
1132.17350,0.08046
1130.24475,0.08071
1128.31600,0.08071
1126.38726,0.08077
1124.45851,0.08104
1122.52977,0.08125
1120.60102,0.08131
1118.67228,0.08155
1116.74353,0.08195
1114.81479,0.08224
1112.88604,0.08258
1110.95730,0.08330
1109.02855,0.08421
1107.09981,0.08482
1105.17106,0.08522
1103.24232,0.08577
1101.31357,0.08674
1099.38483,0.08794
1097.45608,0.08885
1095.52733,0.08932
1093.59859,0.08961
1091.66984,0.08998
1089.74110,0.09061
1087.81235,0.09141
1085.88361,0.09207
1083.95486,0.09256
1082.02612,0.09314
1080.09737,0.09379
1078.16863,0.09421
1076.23988,0.09436
1074.31114,0.09434
1072.38239,0.09417
1070.45365,0.09392
1068.52490,0.09358
1066.59615,0.09303
1064.66741,0.09228
1062.73866,0.09148
1060.80992,0.09076
1058.88117,0.09015
1056.95243,0.08976
1055.02368,0.08974
1053.09494,0.09042
1051.16619,0.09199
1049.23745,0.09392
1047.30870,0.09559
1045.37996,0.09722
1043.45121,0.09912
1041.52247,0.10107
1039.59372,0.10270
1037.66498,0.10400
1035.73623,0.10542
1033.80748,0.10721
1031.87874,0.10886
1029.94999,0.11001
1028.02125,0.11092
1026.09250,0.11185
1024.16376,0.11270
1022.23501,0.11318
1020.30627,0.11332
1018.37752,0.11327
1016.44878,0.11275
1014.52003,0.11138
1012.59129,0.10929
1010.66254,0.10674
1008.73380,0.10395
1006.80505,0.10126
1004.87631,0.09897
1002.94756,0.09693
1001.01881,0.09515
999.09007,0.09381
997.16132,0.09261
995.23258,0.09113
993.30383,0.08949
991.37509,0.08802
989.44634,0.08694
987.51760,0.08603
985.58885,0.08508
983.66011,0.08425
981.73136,0.08366
979.80262,0.08317
977.87387,0.08251
975.94513,0.08144
974.01638,0.07997
972.08763,0.07824
970.15889,0.07664
968.23014,0.07564
966.30140,0.07515
964.37265,0.07475
962.44391,0.07428
960.51516,0.07372
958.58642,0.07315
956.65767,0.07263
954.72893,0.07206
952.80018,0.07161
950.87144,0.07147
948.94269,0.07146
947.01395,0.07144
945.08520,0.07142
943.15646,0.07124
941.22771,0.07074
939.29896,0.07021
937.37022,0.07000
935.44147,0.07001
933.51273,0.06987
931.58398,0.06950
929.65524,0.06911
927.72649,0.06892
925.79775,0.06886
923.86900,0.06871
921.94026,0.06848
920.01151,0.06831
918.08277,0.06804
916.15402,0.06746
914.22528,0.06667
912.29653,0.06584
910.36779,0.06513
908.43904,0.06469
906.51029,0.06464
904.58155,0.06485
902.65280,0.06478
900.72406,0.06422
898.79531,0.06378
896.86657,0.06382
894.93782,0.06407
893.00908,0.06427
891.08033,0.06416
889.15159,0.06380
887.22284,0.06350
885.29410,0.06318
883.36535,0.06256
881.43661,0.06167
879.50786,0.06087
877.57911,0.06041
875.65037,0.06027
873.72162,0.06048
871.79288,0.06099
869.86413,0.06147
867.93539,0.06163
866.00664,0.06161
864.07790,0.06175
862.14915,0.06178
860.22041,0.06129
858.29166,0.06061
856.36292,0.06008
854.43417,0.05970
852.50543,0.05946
850.57668,0.05912
848.64794,0.05862
846.71919,0.05819
844.79044,0.05783
842.86170,0.05748
840.93295,0.05709
839.00421,0.05660
837.07546,0.05621
835.14672,0.05606
833.21797,0.05580
831.28923,0.05517
829.36048,0.05449
827.43174,0.05382
825.50299,0.05301
823.57425,0.05223
821.64550,0.05158
819.71676,0.05097
817.78801,0.05033
815.85926,0.04954
813.93052,0.04890
812.00177,0.04875
810.07303,0.04880
808.14428,0.04878
806.21554,0.04882
804.28679,0.04899
802.35805,0.04912
800.42930,0.04899
798.50056,0.04856
796.57181,0.04784
794.64307,0.04682
792.71432,0.04598
790.78558,0.04572
788.85683,0.04579
786.92809,0.04595
784.99934,0.04609
783.07059,0.04607
781.14185,0.04607
779.21310,0.04614
777.28436,0.04604
775.35561,0.04575
773.42687,0.04534
771.49812,0.04485
769.56938,0.04450
767.64063,0.04449
765.71189,0.04466
763.78314,0.04482
761.85440,0.04491
759.92565,0.04488
757.99691,0.04483
756.06816,0.04465
754.13942,0.04394
752.21067,0.04295
750.28192,0.04248
748.35318,0.04266
746.42443,0.04291
744.49569,0.04300
742.56694,0.04294
740.63820,0.04251
738.70945,0.04208
736.78071,0.04201
734.85196,0.04192
732.92322,0.04169
730.99447,0.04195
729.06573,0.04258
727.13698,0.04286
725.20824,0.04280
723.27949,0.04293
721.35074,0.04341
719.42200,0.04395
717.49325,0.04414
715.56451,0.04395
713.63576,0.04381
711.70702,0.04408
709.77827,0.04474
707.84953,0.04568
705.92078,0.04702
703.99204,0.04904
702.06329,0.05150
700.13455,0.05352
698.20580,0.05433
696.27706,0.05383
694.34831,0.05286
692.41957,0.05250
690.49082,0.05307
688.56207,0.05442
686.63333,0.05637
684.70458,0.05835
682.77584,0.06003
680.84709,0.06187
678.91835,0.06419
676.98960,0.06707
675.06086,0.07063
673.13211,0.07435
671.20337,0.07678
669.27462,0.07691
667.34588,0.07499
665.41713,0.07230
663.48839,0.06950
661.55964,0.06668
659.63090,0.06468
657.70215,0.06382
655.77340,0.06328
653.84466,0.06278
651.91591,0.06276
649.98717,0.06324
648.05842,0.06315
646.12968,0.06183
644.20093,0.06010
642.27219,0.05876
640.34344,0.05784
638.41470,0.05704
636.48595,0.05611
634.55721,0.05541
632.62846,0.05540
630.69972,0.05562
628.77097,0.05597
626.84222,0.05710
624.91348,0.05819
622.98473,0.05808
621.05599,0.05726
619.12724,0.05671
617.19850,0.05672
615.26975,0.05722
613.34101,0.05826
611.41226,0.05939
609.48352,0.06021
607.55477,0.06110
605.62603,0.06208
603.69728,0.06275
601.76854,0.06291
599.83979,0.06270
