7497.03301,0.49862
7495.10426,0.49980
7493.17552,0.50332
7491.24677,0.50860
7489.31803,0.50942
7487.38928,0.50520
7485.46054,0.50428
7483.53179,0.50568
7481.60305,0.50350
7479.67430,0.50066
7477.74556,0.50064
7475.81681,0.50362
7473.88807,0.50836
7471.95932,0.50866
7470.03057,0.50210
7468.10183,0.49714
7466.17308,0.49885
7464.24434,0.50168
7462.31559,0.50092
7460.38685,0.49753
7458.45810,0.49507
7456.52936,0.49715
7454.60061,0.50143
7452.67187,0.50343
7450.74312,0.50299
7448.81438,0.50280
7446.88563,0.50595
7444.95689,0.51021
7443.02814,0.50909
7441.09940,0.50332
7439.17065,0.49988
7437.24190,0.50004
7435.31316,0.50225
7433.38441,0.50629
7431.45567,0.50800
7429.52692,0.50651
7427.59818,0.50664
7425.66943,0.50799
7423.74069,0.50620
7421.81194,0.50056
7419.88320,0.49530
7417.95445,0.49435
7416.02571,0.49546
7414.09696,0.49594
7412.16822,0.49758
7410.23947,0.50000
7408.31073,0.49993
7406.38198,0.49783
7404.45323,0.49614
7402.52449,0.49473
7400.59574,0.49356
7398.66700,0.49458
7396.73825,0.49689
7394.80951,0.49771
7392.88076,0.49717
7390.95202,0.49782
7389.02327,0.50127
7387.09453,0.50467
7385.16578,0.50335
7383.23704,0.49910
7381.30829,0.49761
7379.37955,0.49882
7377.45080,0.50022
7375.52205,0.50171
7373.59331,0.50149
7371.66456,0.49827
7369.73582,0.49438
7367.80707,0.49479
7365.87833,0.50083
7363.94958,0.50516
7362.02084,0.50268
7360.09209,0.49716
7358.16335,0.49335
7356.23460,0.49305
7354.30586,0.49748
7352.37711,0.50454
7350.44837,0.50698
7348.51962,0.50375
7346.59088,0.50216
7344.66213,0.50398
7342.73338,0.50441
7340.80464,0.50456
7338.87589,0.50760
7336.94715,0.50812
7335.01840,0.50316
7333.08966,0.49955
7331.16091,0.50170
7329.23217,0.50502
7327.30342,0.50327
7325.37468,0.49915
7323.44593,0.49808
7321.51719,0.49768
7319.58844,0.49491
7317.65970,0.49325
7315.73095,0.49722
7313.80221,0.50315
7311.87346,0.50261
7309.94471,0.49709
7308.01597,0.49337
7306.08722,0.49246
7304.15848,0.49473
7302.22973,0.49959
7300.30099,0.50226
7298.37224,0.50007
7296.44350,0.49676
7294.51475,0.49526
7292.58601,0.49433
7290.65726,0.49504
7288.72852,0.49739
7286.79977,0.49889
7284.87103,0.50000
7282.94228,0.50119
7281.01353,0.50289
7279.08479,0.50367
7277.15604,0.50065
7275.22730,0.49766
7273.29855,0.49999
7271.36981,0.50420
7269.44106,0.50370
7267.51232,0.49973
7265.58357,0.49767
7263.65483,0.49733
7261.72608,0.49561
7259.79734,0.49323
7257.86859,0.49393
7255.93985,0.49769
7254.01110,0.50131
7252.08236,0.50208
7250.15361,0.49868
7248.22486,0.49423
7246.29612,0.49240
7244.36737,0.49296
7242.43863,0.49480
7240.50988,0.49706
7238.58114,0.49827
7236.65239,0.49709
7234.72365,0.49470
7232.79490,0.49258
7230.86616,0.49031
7228.93741,0.49001
7227.00867,0.49272
7225.07992,0.49514
7223.15118,0.49499
7221.22243,0.49244
7219.29369,0.49044
7217.36494,0.49230
7215.43619,0.49421
7213.50745,0.49215
7211.57870,0.48957
7209.64996,0.48938
7207.72121,0.49056
7205.79247,0.49262
7203.86372,0.49648
7201.93498,0.49978
7200.00623,0.49789
7198.07749,0.49290
7196.14874,0.48999
7194.22000,0.48948
7192.29125,0.49048
7190.36251,0.49183
7188.43376,0.48925
7186.50501,0.48255
7184.57627,0.47793
7182.64752,0.47860
7180.71878,0.48398
7178.79003,0.49064
7176.86129,0.49279
7174.93254,0.49039
7173.00380,0.48816
7171.07505,0.48678
7169.14631,0.48463
7167.21756,0.48367
7165.28882,0.48457
7163.36007,0.48470
7161.43133,0.48422
7159.50258,0.48578
7157.57384,0.49052
7155.64509,0.49497
7153.71634,0.49420
7151.78760,0.49008
7149.85885,0.48674
7147.93011,0.48403
7146.00136,0.48290
7144.07262,0.48522
7142.14387,0.48840
7140.21513,0.48885
7138.28638,0.48627
7136.35764,0.48329
7134.42889,0.48214
7132.50015,0.48210
7130.57140,0.48213
7128.64266,0.48286
7126.71391,0.48556
7124.78516,0.48922
7122.85642,0.49079
7120.92767,0.49123
7118.99893,0.49271
7117.07018,0.49190
7115.14144,0.48704
7113.21269,0.48296
7111.28395,0.48215
7109.35520,0.48231
7107.42646,0.48197
7105.49771,0.48214
7103.56897,0.48297
7101.64022,0.48340
7099.71148,0.48428
7097.78273,0.48569
7095.85399,0.48626
7093.92524,0.48601
7091.99649,0.48527
7090.06775,0.48460
7088.13900,0.48471
7086.21026,0.48652
7084.28151,0.48941
7082.35277,0.48924
7080.42402,0.48557
7078.49528,0.48246
7076.56653,0.47982
7074.63779,0.47863
7072.70904,0.48277
7070.78030,0.48709
7068.85155,0.48522
7066.92281,0.48206
7064.99406,0.48288
7063.06532,0.48390
7061.13657,0.48020
7059.20782,0.47579
7057.27908,0.47623
7055.35033,0.47894
7053.42159,0.48068
7051.49284,0.48230
7049.56410,0.48287
7047.63535,0.48095
7045.70661,0.47899
7043.77786,0.47960
7041.84912,0.48134
7039.92037,0.48052
7037.99163,0.47813
7036.06288,0.47853
7034.13414,0.47987
7032.20539,0.48031
7030.27664,0.48210
7028.34790,0.48423
7026.41915,0.48579
7024.49041,0.48654
7022.56166,0.48462
7020.63292,0.48129
7018.70417,0.47930
7016.77543,0.47993
7014.84668,0.48228
7012.91794,0.48261
7010.98919,0.48000
7009.06045,0.47862
7007.13170,0.48006
7005.20296,0.48127
7003.27421,0.47950
7001.34547,0.47679
6999.41672,0.47594
6997.48797,0.47515
6995.55923,0.47465
6993.63048,0.47677
6991.70174,0.47938
6989.77299,0.48070
6987.84425,0.48177
6985.91550,0.48193
6983.98676,0.48107
6982.05801,0.48193
6980.12927,0.48402
6978.20052,0.48469
6976.27178,0.48423
6974.34303,0.48226
6972.41429,0.48005
6970.48554,0.48061
6968.55680,0.48161
6966.62805,0.48131
6964.69930,0.48177
6962.77056,0.48203
6960.84181,0.48062
6958.91307,0.48023
6956.98432,0.48252
6955.05558,0.48533
6953.12683,0.48687
6951.19809,0.48664
6949.26934,0.48566
6947.34060,0.48593
6945.41185,0.48579
6943.48311,0.48398
6941.55436,0.48397
6939.62562,0.48573
6937.69687,0.48475
6935.76812,0.48178
6933.83938,0.48078
6931.91063,0.48133
6929.98189,0.48124
6928.05314,0.48066
6926.12440,0.48146
6924.19565,0.48361
6922.26691,0.48439
6920.33816,0.48342
6918.40942,0.48344
6916.48067,0.48574
6914.55193,0.48759
6912.62318,0.48571
6910.69444,0.48157
6908.76569,0.47947
6906.83695,0.48041
6904.90820,0.48285
6902.97945,0.48556
6901.05071,0.48643
6899.12196,0.48572
6897.19322,0.48710
6895.26447,0.49091
6893.33573,0.49262
6891.40698,0.48974
6889.47824,0.48628
6887.54949,0.48485
6885.62075,0.48335
6883.69200,0.48194
6881.76326,0.48246
6879.83451,0.48529
6877.90577,0.48839
6875.97702,0.48834
6874.04828,0.48459
6872.11953,0.48033
6870.19078,0.47945
6868.26204,0.48231
6866.33329,0.48574
6864.40455,0.48731
6862.47580,0.48759
6860.54706,0.48716
6858.61831,0.48570
6856.68957,0.48577
6854.76082,0.48829
6852.83208,0.49019
6850.90333,0.49065
6848.97459,0.48978
6847.04584,0.48701
6845.11710,0.48358
6843.18835,0.48141
6841.25960,0.48110
6839.33086,0.48232
6837.40211,0.48521
6835.47337,0.48888
6833.54462,0.49035
6831.61588,0.48843
6829.68713,0.48483
6827.75839,0.48205
6825.82964,0.48233
6823.90090,0.48574
6821.97215,0.48962
6820.04341,0.49036
6818.11466,0.48809
6816.18592,0.48769
6814.25717,0.48961
6812.32843,0.48986
6810.39968,0.48969
6808.47093,0.49204
6806.54219,0.49369
6804.61344,0.49082
6802.68470,0.48674
6800.75595,0.48681
6798.82721,0.48949
6796.89846,0.48936
6794.96972,0.48671
6793.04097,0.48611
6791.11223,0.48762
6789.18348,0.48854
6787.25474,0.48821
6785.32599,0.48628
6783.39725,0.48299
6781.46850,0.48119
6779.53975,0.48234
6777.61101,0.48414
6775.68226,0.48560
6773.75352,0.48722
6771.82477,0.48777
6769.89603,0.48769
6767.96728,0.48859
6766.03854,0.48951
6764.10979,0.48978
6762.18105,0.48895
6760.25230,0.48656
6758.32356,0.48543
6756.39481,0.48676
6754.46607,0.48794
6752.53732,0.48747
6750.60858,0.48576
6748.67983,0.48416
6746.75108,0.48349
6744.82234,0.48395
6742.89359,0.48536
6740.96485,0.48620
6739.03610,0.48634
6737.10736,0.48764
6735.17861,0.48959
6733.24987,0.48928
6731.32112,0.48757
6729.39238,0.48774
6727.46363,0.48836
6725.53489,0.48688
6723.60614,0.48558
6721.67740,0.48680
6719.74865,0.48941
6717.81991,0.49190
6715.89116,0.49267
6713.96241,0.49101
6712.03367,0.49003
6710.10492,0.49168
6708.17618,0.49249
6706.24743,0.48966
6704.31869,0.48630
6702.38994,0.48529
6700.46120,0.48560
6698.53245,0.48746
6696.60371,0.48972
6694.67496,0.48954
6692.74622,0.48859
6690.81747,0.48894
6688.88873,0.48984
6686.95998,0.49131
6685.03123,0.49284
6683.10249,0.49321
6681.17374,0.49368
6679.24500,0.49474
6677.31625,0.49426
6675.38751,0.49260
6673.45876,0.49181
6671.53002,0.49178
6669.60127,0.49151
6667.67253,0.49101
6665.74378,0.49092
6663.81504,0.49023
6661.88629,0.48867
6659.95755,0.48853
6658.02880,0.48904
6656.10006,0.48796
6654.17131,0.48718
6652.24256,0.48839
6650.31382,0.48948
6648.38507,0.48841
6646.45633,0.48816
6644.52758,0.49256
6642.59884,0.49711
6640.67009,0.49651
6638.74135,0.49396
6636.81260,0.49299
6634.88386,0.49403
6632.95511,0.49589
6631.02637,0.49500
6629.09762,0.49184
6627.16888,0.49133
6625.24013,0.49307
6623.31139,0.49238
6621.38264,0.48925
6619.45389,0.48752
6617.52515,0.48850
6615.59640,0.49090
6613.66766,0.49341
6611.73891,0.49437
6609.81017,0.49356
6607.88142,0.49261
6605.95268,0.49189
6604.02393,0.49214
6602.09519,0.49385
6600.16644,0.49571
6598.23770,0.49722
6596.30895,0.49796
6594.38021,0.49759
6592.45146,0.49798
6590.52271,0.49932
6588.59397,0.49853
6586.66522,0.49597
6584.73648,0.49523
6582.80773,0.49621
6580.87899,0.49666
6578.95024,0.49600
6577.02150,0.49483
6575.09275,0.49425
6573.16401,0.49465
6571.23526,0.49517
6569.30652,0.49518
6567.37777,0.49515
6565.44903,0.49551
6563.52028,0.49608
6561.59154,0.49699
6559.66279,0.49793
6557.73404,0.49760
6555.80530,0.49709
6553.87655,0.49839
6551.94781,0.49932
6550.01906,0.49801
6548.09032,0.49621
6546.16157,0.49600
6544.23283,0.49766
6542.30408,0.49883
6540.37534,0.49830
6538.44659,0.49829
6536.51785,0.49927
6534.58910,0.49939
6532.66036,0.49810
6530.73161,0.49580
6528.80287,0.49361
6526.87412,0.49302
6524.94537,0.49404
6523.01663,0.49486
6521.08788,0.49453
6519.15914,0.49486
6517.23039,0.49650
6515.30165,0.49753
6513.37290,0.49721
6511.44416,0.49677
6509.51541,0.49704
6507.58667,0.49652
6505.65792,0.49533
6503.72918,0.49596
6501.80043,0.49810
6499.87169,0.50048
6497.94294,0.50179
6496.01419,0.50049
6494.08545,0.49810
6492.15670,0.49684
6490.22796,0.49657
6488.29921,0.49699
6486.37047,0.49727
6484.44172,0.49555
6482.51298,0.49332
6480.58423,0.49339
6478.65549,0.49475
6476.72674,0.49637
6474.79800,0.49804
6472.86925,0.49858
6470.94051,0.49801
6469.01176,0.49680
6467.08302,0.49597
6465.15427,0.49680
6463.22552,0.49779
6461.29678,0.49771
6459.36803,0.49784
6457.43929,0.49833
6455.51054,0.49770
6453.58180,0.49600
6451.65305,0.49597
6449.72431,0.49856
6447.79556,0.50018
6445.86682,0.49863
6443.93807,0.49632
6442.00933,0.49557
6440.08058,0.49590
6438.15184,0.49644
6436.22309,0.49701
6434.29434,0.49778
6432.36560,0.49944
6430.43685,0.50165
6428.50811,0.50319
6426.57936,0.50385
6424.65062,0.50340
6422.72187,0.50105
6420.79313,0.49798
6418.86438,0.49718
6416.93564,0.49867
6415.00689,0.49982
6413.07815,0.49952
6411.14940,0.49808
6409.22066,0.49687
6407.29191,0.49721
6405.36317,0.49835
6403.43442,0.49887
6401.50567,0.49908
6399.57693,0.49985
6397.64818,0.50101
6395.71944,0.50287
6393.79069,0.50433
6391.86195,0.50425
6389.93320,0.50491
6388.00446,0.50612
6386.07571,0.50472
6384.14697,0.50113
6382.21822,0.49841
6380.28948,0.49762
6378.36073,0.49816
6376.43199,0.49937
6374.50324,0.50020
6372.57450,0.50091
6370.64575,0.50219
6368.71700,0.50284
6366.78826,0.50208
6364.85951,0.49928
6362.93077,0.49604
6361.00202,0.49717
6359.07328,0.50253
6357.14453,0.50669
6355.21579,0.50722
6353.28704,0.50562
6351.35830,0.50336
6349.42955,0.50172
6347.50081,0.50209
6345.57206,0.50326
6343.64332,0.50268
6341.71457,0.50077
6339.78582,0.50012
6337.85708,0.50152
6335.92833,0.50302
6333.99959,0.50231
6332.07084,0.49983
6330.14210,0.49842
6328.21335,0.50001
6326.28461,0.50367
6324.35586,0.50579
6322.42712,0.50424
6320.49837,0.50099
6318.56963,0.49833
6316.64088,0.49743
6314.71214,0.49887
6312.78339,0.50080
6310.85465,0.50229
6308.92590,0.50470
6306.99715,0.50616
6305.06841,0.50475
6303.13966,0.50299
6301.21092,0.50214
6299.28217,0.50214
6297.35343,0.50303
6295.42468,0.50226
6293.49594,0.49945
6291.56719,0.49832
6289.63845,0.50018
6287.70970,0.50241
6285.78096,0.50242
6283.85221,0.50048
6281.92347,0.49909
6279.99472,0.49929
6278.06598,0.50010
6276.13723,0.50138
6274.20848,0.50285
6272.27974,0.50414
6270.35099,0.50484
6268.42225,0.50377
6266.49350,0.50222
6264.56476,0.50219
6262.63601,0.50269
6260.70727,0.50274
6258.77852,0.50277
6256.84978,0.50296
6254.92103,0.50383
6252.99229,0.50613
6251.06354,0.50815
6249.13480,0.50688
6247.20605,0.50318
6245.27730,0.50104
6243.34856,0.50142
6241.41981,0.50230
6239.49107,0.50293
6237.56232,0.50325
6235.63358,0.50298
6233.70483,0.50281
6231.77609,0.50333
6229.84734,0.50374
6227.91860,0.50339
6225.98985,0.50313
6224.06111,0.50322
6222.13236,0.50347
6220.20362,0.50462
6218.27487,0.50616
6216.34613,0.50592
6214.41738,0.50406
6212.48863,0.50386
6210.55989,0.50578
6208.63114,0.50611
6206.70240,0.50498
6204.77365,0.50599
6202.84491,0.50847
6200.91616,0.50926
6198.98742,0.50800
6197.05867,0.50588
6195.12993,0.50408
6193.20118,0.50352
6191.27244,0.50429
6189.34369,0.50572
6187.41495,0.50703
6185.48620,0.50773
6183.55746,0.50743
6181.62871,0.50697
6179.69996,0.50715
6177.77122,0.50741
6175.84247,0.50810
6173.91373,0.50950
6171.98498,0.51005
6170.05624,0.50831
6168.12749,0.50589
6166.19875,0.50607
6164.27000,0.50775
6162.34126,0.50770
6160.41251,0.50636
6158.48377,0.50526
6156.55502,0.50453
6154.62628,0.50426
6152.69753,0.50412
6150.76878,0.50382
6148.84004,0.50396
6146.91129,0.50446
6144.98255,0.50472
6143.05380,0.50486
6141.12506,0.50486
6139.19631,0.50474
6137.26757,0.50522
6135.33882,0.50666
6133.41008,0.50780
6131.48133,0.50705
6129.55259,0.50487
6127.62384,0.50288
6125.69510,0.50248
6123.76635,0.50399
6121.83761,0.50547
6119.90886,0.50566
6117.98011,0.50618
6116.05137,0.50704
6114.12262,0.50662
6112.19388,0.50603
6110.26513,0.50612
6108.33639,0.50603
6106.40764,0.50618
6104.47890,0.50694
6102.55015,0.50758
6100.62141,0.50761
6098.69266,0.50791
6096.76392,0.50930
6094.83517,0.51023
6092.90643,0.50985
6090.97768,0.50968
6089.04893,0.51031
6087.12019,0.51011
6085.19144,0.50797
6083.26270,0.50614
6081.33395,0.50687
6079.40521,0.50865
6077.47646,0.50956
6075.54772,0.50946
6073.61897,0.50861
6071.69023,0.50774
6069.76148,0.50747
6067.83274,0.50710
6065.90399,0.50704
6063.97525,0.50829
6062.04650,0.50903
6060.11776,0.50843
6058.18901,0.50840
6056.26026,0.50904
6054.33152,0.50907
6052.40277,0.50893
6050.47403,0.50924
6048.54528,0.50892
6046.61654,0.50758
6044.68779,0.50704
6042.75905,0.50792
6040.83030,0.50888
6038.90156,0.50934
6036.97281,0.50948
6035.04407,0.50926
6033.11532,0.50870
6031.18658,0.50781
6029.25783,0.50675
6027.32909,0.50593
6025.40034,0.50591
6023.47159,0.50688
6021.54285,0.50826
6019.61410,0.50929
6017.68536,0.50922
6015.75661,0.50808
6013.82787,0.50674
6011.89912,0.50547
6009.97038,0.50446
6008.04163,0.50420
6006.11289,0.50462
6004.18414,0.50529
6002.25540,0.50587
6000.32665,0.50599
5998.39791,0.50556
5996.46916,0.50538
5994.54041,0.50562
5992.61167,0.50529
5990.68292,0.50451
5988.75418,0.50463
5986.82543,0.50529
5984.89669,0.50462
5982.96794,0.50305
5981.03920,0.50288
5979.11045,0.50441
5977.18171,0.50539
5975.25296,0.50406
5973.32422,0.50206
5971.39547,0.50145
5969.46673,0.50153
5967.53798,0.50168
5965.60924,0.50248
5963.68049,0.50318
5961.75174,0.50275
5959.82300,0.50202
5957.89425,0.50220
5955.96551,0.50281
5954.03676,0.50266
5952.10802,0.50185
5950.17927,0.50143
5948.25053,0.50209
5946.32178,0.50359
5944.39304,0.50434
5942.46429,0.50351
5940.53555,0.50211
5938.60680,0.50109
5936.67806,0.50120
5934.74931,0.50200
5932.82057,0.50160
5930.89182,0.50049
5928.96307,0.50081
5927.03433,0.50230
5925.10558,0.50343
5923.17684,0.50417
5921.24809,0.50469
5919.31935,0.50463
5917.39060,0.50430
5915.46186,0.50383
5913.53311,0.50295
5911.60437,0.50201
5909.67562,0.50165
5907.74688,0.50225
5905.81813,0.50317
5903.88939,0.50345
5901.96064,0.50345
5900.03189,0.50383
5898.10315,0.50394
5896.17440,0.50339
5894.24566,0.50329
5892.31691,0.50406
5890.38817,0.50432
5888.45942,0.50342
5886.53068,0.50271
5884.60193,0.50287
5882.67319,0.50335
5880.74444,0.50425
5878.81570,0.50491
5876.88695,0.50479
5874.95821,0.50482
5873.02946,0.50492
5871.10072,0.50463
5869.17197,0.50424
5867.24322,0.50370
5865.31448,0.50329
5863.38573,0.50364
5861.45699,0.50466
5859.52824,0.50558
5857.59950,0.50567
5855.67075,0.50497
5853.74201,0.50468
5851.81326,0.50555
5849.88452,0.50645
5847.95577,0.50640
5846.02703,0.50585
5844.09828,0.50593
5842.16954,0.50709
5840.24079,0.50777
5838.31205,0.50712
5836.38330,0.50673
5834.45455,0.50716
5832.52581,0.50698
5830.59706,0.50582
5828.66832,0.50500
5826.73957,0.50493
5824.81083,0.50462
5822.88208,0.50397
5820.95334,0.50348
5819.02459,0.50311
5817.09585,0.50308
5815.16710,0.50378
5813.23836,0.50503
5811.30961,0.50574
5809.38087,0.50533
5807.45212,0.50444
5805.52337,0.50319
5803.59463,0.50222
5801.66588,0.50310
5799.73714,0.50488
5797.80839,0.50541
5795.87965,0.50448
5793.95090,0.50335
5792.02216,0.50312
5790.09341,0.50341
5788.16467,0.50345
5786.23592,0.50370
5784.30718,0.50513
5782.37843,0.50693
5780.44969,0.50688
5778.52094,0.50515
5776.59220,0.50399
5774.66345,0.50467
5772.73470,0.50623
5770.80596,0.50633
5768.87721,0.50492
5766.94847,0.50399
5765.01972,0.50439
5763.09098,0.50564
5761.16223,0.50666
5759.23349,0.50733
5757.30474,0.50810
5755.37600,0.50815
5753.44725,0.50756
5751.51851,0.50737
5749.58976,0.50697
5747.66102,0.50638
5745.73227,0.50662
5743.80352,0.50698
5741.87478,0.50665
5739.94603,0.50625
5738.01729,0.50626
5736.08854,0.50661
5734.15980,0.50699
5732.23105,0.50724
5730.30231,0.50714
5728.37356,0.50624
5726.44482,0.50520
5724.51607,0.50502
5722.58733,0.50534
5720.65858,0.50562
5718.72984,0.50599
5716.80109,0.50682
5714.87235,0.50760
5712.94360,0.50763
5711.01485,0.50783
5709.08611,0.50846
5707.15736,0.50817
5705.22862,0.50652
5703.29987,0.50473
5701.37113,0.50438
5699.44238,0.50531
5697.51364,0.50610
5695.58489,0.50685
5693.65615,0.50789
5691.72740,0.50764
5689.79866,0.50568
5687.86991,0.50395
5685.94117,0.50376
5684.01242,0.50464
5682.08368,0.50504
5680.15493,0.50448
5678.22618,0.50415
5676.29744,0.50438
5674.36869,0.50498
5672.43995,0.50573
5670.51120,0.50572
5668.58246,0.50526
5666.65371,0.50529
5664.72497,0.50577
5662.79622,0.50642
5660.86748,0.50712
5658.93873,0.50751
5657.00999,0.50707
5655.08124,0.50630
5653.15250,0.50630
5651.22375,0.50682
5649.29500,0.50720
5647.36626,0.50734
5645.43751,0.50697
5643.50877,0.50642
5641.58002,0.50619
5639.65128,0.50611
5637.72253,0.50644
5635.79379,0.50745
5633.86504,0.50815
5631.93630,0.50758
5630.00755,0.50691
5628.07881,0.50749
5626.15006,0.50837
5624.22132,0.50841
5622.29257,0.50792
5620.36383,0.50756
5618.43508,0.50724
5616.50633,0.50674
5614.57759,0.50657
5612.64884,0.50734
5610.72010,0.50860
5608.79135,0.50895
5606.86261,0.50792
5604.93386,0.50676
5603.00512,0.50640
5601.07637,0.50650
5599.14763,0.50657
5597.21888,0.50649
5595.29014,0.50616
5593.36139,0.50553
5591.43265,0.50515
5589.50390,0.50552
5587.57516,0.50645
5585.64641,0.50743
5583.71766,0.50771
5581.78892,0.50758
5579.86017,0.50786
5577.93143,0.50765
5576.00268,0.50663
5574.07394,0.50600
5572.14519,0.50560
5570.21645,0.50504
5568.28770,0.50512
5566.35896,0.50587
5564.43021,0.50655
5562.50147,0.50736
5560.57272,0.50868
5558.64398,0.50982
5556.71523,0.51006
5554.78648,0.50917
5552.85774,0.50754
5550.92899,0.50617
5549.00025,0.50556
5547.07150,0.50565
5545.14276,0.50618
5543.21401,0.50639
5541.28527,0.50613
5539.35652,0.50639
5537.42778,0.50724
5535.49903,0.50793
5533.57029,0.50797
5531.64154,0.50749
5529.71280,0.50748
5527.78405,0.50834
5525.85531,0.50941
5523.92656,0.50972
5521.99781,0.50899
5520.06907,0.50825
5518.14032,0.50823
5516.21158,0.50857
5514.28283,0.50931
5512.35409,0.51013
5510.42534,0.51013
5508.49660,0.50924
5506.56785,0.50813
5504.63911,0.50755
5502.71036,0.50761
5500.78162,0.50745
5498.85287,0.50741
5496.92413,0.50859
5494.99538,0.51007
5493.06664,0.51015
5491.13789,0.50907
5489.20914,0.50799
5487.28040,0.50724
5485.35165,0.50709
5483.42291,0.50754
5481.49416,0.50788
5479.56542,0.50802
5477.63667,0.50844
5475.70793,0.50911
5473.77918,0.50955
5471.85044,0.50954
5469.92169,0.50914
5467.99295,0.50855
5466.06420,0.50827
5464.13546,0.50859
5462.20671,0.50913
5460.27796,0.50926
5458.34922,0.50888
5456.42047,0.50855
5454.49173,0.50854
5452.56298,0.50860
5450.63424,0.50859
5448.70549,0.50880
5446.77675,0.50933
5444.84800,0.50941
5442.91926,0.50858
5440.99051,0.50789
5439.06177,0.50837
5437.13302,0.50914
5435.20428,0.50884
5433.27553,0.50806
5431.34679,0.50796
5429.41804,0.50857
5427.48929,0.50939
5425.56055,0.50963
5423.63180,0.50925
5421.70306,0.50906
5419.77431,0.50957
5417.84557,0.51039
5415.91682,0.51044
5413.98808,0.50956
5412.05933,0.50903
5410.13059,0.50931
5408.20184,0.50943
5406.27310,0.50906
5404.34435,0.50887
5402.41561,0.50910
5400.48686,0.50941
5398.55811,0.50915
5396.62937,0.50848
5394.70062,0.50828
5392.77188,0.50841
5390.84313,0.50845
5388.91439,0.50855
5386.98564,0.50861
5385.05690,0.50850
5383.12815,0.50832
5381.19941,0.50795
5379.27066,0.50762
5377.34192,0.50784
5375.41317,0.50811
5373.48443,0.50788
5371.55568,0.50752
5369.62694,0.50726
5367.69819,0.50727
5365.76944,0.50744
5363.84070,0.50714
5361.91195,0.50633
5359.98321,0.50559
5358.05446,0.50534
5356.12572,0.50553
5354.19697,0.50549
5352.26823,0.50467
5350.33948,0.50368
5348.41074,0.50350
5346.48199,0.50389
5344.55325,0.50386
5342.62450,0.50321
5340.69576,0.50267
5338.76701,0.50269
5336.83827,0.50290
5334.90952,0.50267
5332.98077,0.50185
5331.05203,0.50083
5329.12328,0.50026
5327.19454,0.50015
5325.26579,0.49943
5323.33705,0.49809
5321.40830,0.49735
5319.47956,0.49742
5317.55081,0.49754
5315.62207,0.49699
5313.69332,0.49569
5311.76458,0.49426
5309.83583,0.49304
5307.90709,0.49206
5305.97834,0.49121
5304.04959,0.49008
5302.12085,0.48877
5300.19210,0.48789
5298.26336,0.48742
5296.33461,0.48676
5294.40587,0.48571
5292.47712,0.48448
5290.54838,0.48331
5288.61963,0.48201
5286.69089,0.48040
5284.76214,0.47869
5282.83340,0.47694
5280.90465,0.47511
5278.97591,0.47340
5277.04716,0.47184
5275.11842,0.47037
5273.18967,0.46901
5271.26092,0.46735
5269.33218,0.46508
5267.40343,0.46273
5265.47469,0.46079
5263.54594,0.45901
5261.61720,0.45694
5259.68845,0.45461
5257.75971,0.45241
5255.83096,0.45062
5253.90222,0.44906
5251.97347,0.44746
5250.04473,0.44585
5248.11598,0.44394
5246.18724,0.44135
5244.25849,0.43867
5242.32975,0.43656
5240.40100,0.43499
5238.47225,0.43344
5236.54351,0.43161
5234.61476,0.42983
5232.68602,0.42781
5230.75727,0.42523
5228.82853,0.42302
5226.89978,0.42185
5224.97104,0.42144
5223.04229,0.42114
5221.11355,0.42028
5219.18480,0.41903
5217.25606,0.41782
5215.32731,0.41660
5213.39857,0.41580
5211.46982,0.41561
5209.54107,0.41500
5207.61233,0.41373
5205.68358,0.41288
5203.75484,0.41278
5201.82609,0.41258
5199.89735,0.41193
5197.96860,0.41154
5196.03986,0.41201
5194.11111,0.41292
5192.18237,0.41328
5190.25362,0.41290
5188.32488,0.41249
5186.39613,0.41249
5184.46739,0.41264
5182.53864,0.41267
5180.60990,0.41283
5178.68115,0.41370
5176.75240,0.41516
5174.82366,0.41605
5172.89491,0.41592
5170.96617,0.41562
5169.03742,0.41585
5167.10868,0.41654
5165.17993,0.41706
5163.25119,0.41719
5161.32244,0.41771
5159.39370,0.41899
5157.46495,0.42026
5155.53621,0.42083
5153.60746,0.42088
5151.67872,0.42114
5149.74997,0.42212
5147.82123,0.42319
5145.89248,0.42382
5143.96373,0.42456
5142.03499,0.42558
5140.10624,0.42639
5138.17750,0.42675
5136.24875,0.42674
5134.32001,0.42687
5132.39126,0.42733
5130.46252,0.42776
5128.53377,0.42820
5126.60503,0.42902
5124.67628,0.43005
5122.74754,0.43100
5120.81879,0.43188
5118.89005,0.43262
5116.96130,0.43331
5115.03255,0.43381
5113.10381,0.43380
5111.17506,0.43418
5109.24632,0.43544
5107.31757,0.43629
5105.38883,0.43645
5103.46008,0.43699
5101.53134,0.43798
5099.60259,0.43875
5097.67385,0.43905
5095.74510,0.43928
5093.81636,0.43984
5091.88761,0.44052
5089.95887,0.44096
5088.03012,0.44119
5086.10138,0.44170
5084.17263,0.44270
5082.24388,0.44366
5080.31514,0.44432
5078.38639,0.44463
5076.45765,0.44458
5074.52890,0.44459
5072.60016,0.44496
5070.67141,0.44568
5068.74267,0.44640
5066.81392,0.44683
5064.88518,0.44702
5062.95643,0.44716
5061.02769,0.44756
5059.09894,0.44817
5057.17020,0.44844
5055.24145,0.44813
5053.31270,0.44810
5051.38396,0.44895
5049.45521,0.44991
5047.52647,0.45044
5045.59772,0.45066
5043.66898,0.45046
5041.74023,0.45041
5039.81149,0.45128
5037.88274,0.45267
5035.95400,0.45372
5034.02525,0.45407
5032.09651,0.45413
5030.16776,0.45442
5028.23902,0.45508
5026.31027,0.45618
5024.38153,0.45735
5022.45278,0.45814
5020.52403,0.45867
5018.59529,0.45906
5016.66654,0.45922
5014.73780,0.45889
5012.80905,0.45812
5010.88031,0.45797
5008.95156,0.45867
5007.02282,0.45933
5005.09407,0.45966
5003.16533,0.45985
5001.23658,0.46021
4999.30784,0.46113
4997.37909,0.46230
4995.45035,0.46302
4993.52160,0.46335
4991.59286,0.46378
4989.66411,0.46385
4987.73536,0.46333
4985.80662,0.46331
4983.87787,0.46408
4981.94913,0.46451
4980.02038,0.46415
4978.09164,0.46398
4976.16289,0.46470
4974.23415,0.46563
4972.30540,0.46610
4970.37666,0.46598
4968.44791,0.46542
4966.51917,0.46540
4964.59042,0.46652
4962.66168,0.46761
4960.73293,0.46753
4958.80418,0.46717
4956.87544,0.46764
4954.94669,0.46821
4953.01795,0.46813
4951.08920,0.46806
4949.16046,0.46847
4947.23171,0.46910
4945.30297,0.46948
4943.37422,0.46948
4941.44548,0.46947
4939.51673,0.46962
4937.58799,0.46971
4935.65924,0.46984
4933.73050,0.46996
4931.80175,0.47005
4929.87301,0.47038
4927.94426,0.47074
4926.01551,0.47099
4924.08677,0.47102
4922.15802,0.47062
4920.22928,0.47014
4918.30053,0.46991
4916.37179,0.46988
4914.44304,0.46996
4912.51430,0.47006
4910.58555,0.47034
4908.65681,0.47069
4906.72806,0.47055
4904.79932,0.46981
4902.87057,0.46915
4900.94183,0.46912
4899.01308,0.46951
4897.08434,0.46966
4895.15559,0.46923
4893.22684,0.46878
4891.29810,0.46860
4889.36935,0.46844
4887.44061,0.46837
4885.51186,0.46846
4883.58312,0.46836
4881.65437,0.46809
4879.72563,0.46789
4877.79688,0.46755
4875.86814,0.46723
4873.93939,0.46722
4872.01065,0.46730
4870.08190,0.46726
4868.15316,0.46691
4866.22441,0.46650
4864.29566,0.46674
4862.36692,0.46722
4860.43817,0.46709
4858.50943,0.46660
4856.58068,0.46646
4854.65194,0.46654
4852.72319,0.46631
4850.79445,0.46587
4848.86570,0.46544
4846.93696,0.46501
4845.00821,0.46487
4843.07947,0.46474
4841.15072,0.46419
4839.22198,0.46365
4837.29323,0.46372
4835.36449,0.46412
4833.43574,0.46410
4831.50699,0.46369
4829.57825,0.46337
4827.64950,0.46317
4825.72076,0.46296
4823.79201,0.46278
4821.86327,0.46254
4819.93452,0.46221
4818.00578,0.46211
4816.07703,0.46201
4814.14829,0.46153
4812.21954,0.46118
4810.29080,0.46125
4808.36205,0.46135
4806.43331,0.46139
4804.50456,0.46152
4802.57582,0.46163
4800.64707,0.46114
4798.71832,0.46022
4796.78958,0.45985
4794.86083,0.45998
4792.93209,0.45998
4791.00334,0.45978
4789.07460,0.45957
4787.14585,0.45949
4785.21711,0.45926
4783.28836,0.45874
4781.35962,0.45869
4779.43087,0.45911
4777.50213,0.45921
4775.57338,0.45893
4773.64464,0.45835
4771.71589,0.45785
4769.78714,0.45805
4767.85840,0.45851
4765.92965,0.45860
4764.00091,0.45871
4762.07216,0.45883
4760.14342,0.45852
4758.21467,0.45817
4756.28593,0.45802
4754.35718,0.45792
4752.42844,0.45804
4750.49969,0.45848
4748.57095,0.45905
4746.64220,0.45944
4744.71346,0.45928
4742.78471,0.45882
4740.85597,0.45872
4738.92722,0.45893
4736.99847,0.45885
4735.06973,0.45860
4733.14098,0.45871
4731.21224,0.45916
4729.28349,0.45967
4727.35475,0.46001
4725.42600,0.46010
4723.49726,0.46009
4721.56851,0.46011
4719.63977,0.46017
4717.71102,0.46033
4715.78228,0.46041
4713.85353,0.46018
4711.92479,0.45989
4709.99604,0.45981
4708.06729,0.45987
4706.13855,0.46018
4704.20980,0.46082
4702.28106,0.46140
4700.35231,0.46169
4698.42357,0.46176
4696.49482,0.46156
4694.56608,0.46140
4692.63733,0.46138
4690.70859,0.46110
4688.77984,0.46087
4686.85110,0.46109
4684.92235,0.46114
4682.99361,0.46049
4681.06486,0.45949
4679.13612,0.45859
4677.20737,0.45811
4675.27862,0.45803
4673.34988,0.45771
4671.42113,0.45690
4669.49239,0.45613
4667.56364,0.45571
4665.63490,0.45573
4663.70615,0.45614
4661.77741,0.45687
4659.84866,0.45769
4657.91992,0.45808
4655.99117,0.45815
4654.06243,0.45842
4652.13368,0.45905
4650.20494,0.45987
4648.27619,0.46024
4646.34745,0.45987
4644.41870,0.45945
4642.48995,0.45959
4640.56121,0.45993
4638.63246,0.45993
4636.70372,0.45961
4634.77497,0.45927
4632.84623,0.45896
4630.91748,0.45859
4628.98874,0.45817
4627.05999,0.45767
4625.13125,0.45702
4623.20250,0.45652
4621.27376,0.45637
4619.34501,0.45625
4617.41627,0.45600
4615.48752,0.45567
4613.55877,0.45531
4611.63003,0.45508
4609.70128,0.45492
4607.77254,0.45482
4605.84379,0.45521
4603.91505,0.45595
4601.98630,0.45628
4600.05756,0.45643
4598.12881,0.45689
4596.20007,0.45718
4594.27132,0.45701
4592.34258,0.45697
4590.41383,0.45741
4588.48509,0.45783
4586.55634,0.45777
4584.62760,0.45768
4582.69885,0.45758
4580.77010,0.45687
4578.84136,0.45581
4576.91261,0.45504
4574.98387,0.45457
4573.05512,0.45433
4571.12638,0.45434
4569.19763,0.45395
4567.26889,0.45300
4565.34014,0.45244
4563.41140,0.45257
4561.48265,0.45291
4559.55391,0.45336
4557.62516,0.45379
4555.69642,0.45386
4553.76767,0.45377
4551.83893,0.45357
4549.91018,0.45308
4547.98143,0.45276
4546.05269,0.45298
4544.12394,0.45322
4542.19520,0.45305
4540.26645,0.45282
4538.33771,0.45277
4536.40896,0.45276
4534.48022,0.45256
4532.55147,0.45208
4530.62273,0.45141
4528.69398,0.45065
4526.76524,0.44991
4524.83649,0.44938
4522.90775,0.44901
4520.97900,0.44866
4519.05025,0.44844
4517.12151,0.44836
4515.19276,0.44830
4513.26402,0.44807
4511.33527,0.44757
4509.40653,0.44704
4507.47778,0.44675
4505.54904,0.44667
4503.62029,0.44643
4501.69155,0.44590
4499.76280,0.44553
4497.83406,0.44556
4495.90531,0.44548
4493.97657,0.44506
4492.04782,0.44486
4490.11908,0.44507
4488.19033,0.44510
4486.26158,0.44492
4484.33284,0.44500
4482.40409,0.44509
4480.47535,0.44468
4478.54660,0.44406
4476.61786,0.44364
4474.68911,0.44310
4472.76037,0.44215
4470.83162,0.44147
4468.90288,0.44161
4466.97413,0.44173
4465.04539,0.44123
4463.11664,0.44065
4461.18790,0.44027
4459.25915,0.44001
4457.33041,0.43978
4455.40166,0.43920
4453.47291,0.43827
4451.54417,0.43727
4449.61542,0.43629
4447.68668,0.43569
4445.75793,0.43575
4443.82919,0.43588
4441.90044,0.43539
4439.97170,0.43453
4438.04295,0.43383
4436.11421,0.43329
4434.18546,0.43254
4432.25672,0.43139
4430.32797,0.43039
4428.39923,0.42998
4426.47048,0.42934
4424.54173,0.42799
4422.61299,0.42680
4420.68424,0.42632
4418.75550,0.42576
4416.82675,0.42461
4414.89801,0.42343
4412.96926,0.42256
4411.04052,0.42171
4409.11177,0.42093
4407.18303,0.42041
4405.25428,0.41981
4403.32554,0.41915
4401.39679,0.41876
4399.46805,0.41851
4397.53930,0.41816
4395.61056,0.41784
4393.68181,0.41767
4391.75306,0.41748
4389.82432,0.41741
4387.89557,0.41762
4385.96683,0.41786
4384.03808,0.41793
4382.10934,0.41786
4380.18059,0.41774
4378.25185,0.41735
4376.32310,0.41655
4374.39436,0.41583
4372.46561,0.41525
4370.53687,0.41444
4368.60812,0.41373
4366.67938,0.41353
4364.75063,0.41338
4362.82189,0.41298
4360.89314,0.41273
4358.96439,0.41279
4357.03565,0.41279
4355.10690,0.41252
4353.17816,0.41185
4351.24941,0.41089
4349.32067,0.40995
4347.39192,0.40913
4345.46318,0.40820
4343.53443,0.40699
4341.60569,0.40576
4339.67694,0.40492
4337.74820,0.40422
4335.81945,0.40340
4333.89071,0.40271
4331.96196,0.40208
4330.03321,0.40151
4328.10447,0.40148
4326.17572,0.40178
4324.24698,0.40194
4322.31823,0.40223
4320.38949,0.40277
4318.46074,0.40369
4316.53200,0.40534
4314.60325,0.40710
4312.67451,0.40804
4310.74576,0.40817
4308.81702,0.40799
4306.88827,0.40779
4304.95953,0.40772
4303.03078,0.40764
4301.10204,0.40724
4299.17329,0.40678
4297.24454,0.40674
4295.31580,0.40690
4293.38705,0.40687
4291.45831,0.40679
4289.52956,0.40662
4287.60082,0.40614
4285.67207,0.40549
4283.74333,0.40476
4281.81458,0.40385
4279.88584,0.40286
4277.95709,0.40198
4276.02835,0.40120
4274.09960,0.40048
4272.17086,0.39981
4270.24211,0.39923
4268.31336,0.39871
4266.38462,0.39827
4264.45587,0.39784
4262.52713,0.39726
4260.59838,0.39665
4258.66964,0.39631
4256.74089,0.39611
4254.81215,0.39585
4252.88340,0.39577
4250.95466,0.39585
4249.02591,0.39574
4247.09717,0.39566
4245.16842,0.39590
4243.23968,0.39606
4241.31093,0.39611
4239.38219,0.39609
4237.45344,0.39572
4235.52469,0.39524
4233.59595,0.39504
4231.66720,0.39492
4229.73846,0.39478
4227.80971,0.39470
4225.88097,0.39446
4223.95222,0.39394
4222.02348,0.39345
4220.09473,0.39321
4218.16599,0.39307
4216.23724,0.39264
4214.30850,0.39189
4212.37975,0.39144
4210.45101,0.39146
4208.52226,0.39120
4206.59352,0.39055
4204.66477,0.39035
4202.73602,0.39063
4200.80728,0.39065
4198.87853,0.39029
4196.94979,0.38992
4195.02104,0.38975
4193.09230,0.38955
4191.16355,0.38898
4189.23481,0.38828
4187.30606,0.38793
4185.37732,0.38790
4183.44857,0.38765
4181.51983,0.38701
4179.59108,0.38639
4177.66234,0.38601
4175.73359,0.38597
4173.80484,0.38606
4171.87610,0.38589
4169.94735,0.38561
4168.01861,0.38547
4166.08986,0.38548
4164.16112,0.38541
4162.23237,0.38532
4160.30363,0.38543
4158.37488,0.38551
4156.44614,0.38520
4154.51739,0.38467
4152.58865,0.38414
4150.65990,0.38355
4148.73116,0.38284
4146.80241,0.38207
4144.87367,0.38137
4142.94492,0.38084
4141.01617,0.38032
4139.08743,0.37963
4137.15868,0.37895
4135.22994,0.37854
4133.30119,0.37831
4131.37245,0.37781
4129.44370,0.37684
4127.51496,0.37567
4125.58621,0.37461
4123.65747,0.37362
4121.72872,0.37275
4119.79998,0.37213
4117.87123,0.37156
4115.94249,0.37063
4114.01374,0.36948
4112.08500,0.36856
4110.15625,0.36772
4108.22750,0.36679
4106.29876,0.36590
4104.37001,0.36501
4102.44127,0.36428
4100.51252,0.36363
4098.58378,0.36264
4096.65503,0.36154
4094.72629,0.36056
4092.79754,0.35936
4090.86880,0.35807
4088.94005,0.35699
4087.01131,0.35591
4085.08256,0.35468
4083.15382,0.35341
4081.22507,0.35217
4079.29632,0.35117
4077.36758,0.35041
4075.43883,0.34932
4073.51009,0.34770
4071.58134,0.34608
4069.65260,0.34455
4067.72385,0.34289
4065.79511,0.34138
4063.86636,0.34024
4061.93762,0.33913
4060.00887,0.33786
4058.08013,0.33658
4056.15138,0.33547
4054.22264,0.33460
4052.29389,0.33402
4050.36515,0.33361
4048.43640,0.33318
4046.50765,0.33267
4044.57891,0.33198
4042.65016,0.33108
4040.72142,0.33036
4038.79267,0.33019
4036.86393,0.33026
4034.93518,0.33037
4033.00644,0.33067
4031.07769,0.33099
4029.14895,0.33122
4027.22020,0.33155
4025.29146,0.33185
4023.36271,0.33204
4021.43397,0.33254
4019.50522,0.33329
4017.57648,0.33373
4015.64773,0.33390
4013.71898,0.33419
4011.79024,0.33434
4009.86149,0.33416
4007.93275,0.33412
4006.00400,0.33422
4004.07526,0.33404
4002.14651,0.33379
4000.21777,0.33396
3998.28902,0.33454
3996.36028,0.33518
3994.43153,0.33568
3992.50279,0.33607
3990.57404,0.33645
3988.64530,0.33679
3986.71655,0.33679
3984.78780,0.33631
3982.85906,0.33557
3980.93031,0.33518
3979.00157,0.33546
3977.07282,0.33596
3975.14408,0.33615
3973.21533,0.33594
3971.28659,0.33542
3969.35784,0.33501
3967.42910,0.33507
3965.50035,0.33539
3963.57161,0.33571
3961.64286,0.33591
3959.71412,0.33592
3957.78537,0.33580
3955.85663,0.33575
3953.92788,0.33564
3951.99913,0.33544
3950.07039,0.33541
3948.14164,0.33548
3946.21290,0.33551
3944.28415,0.33564
3942.35541,0.33596
3940.42666,0.33631
3938.49792,0.33654
3936.56917,0.33662
3934.64043,0.33649
3932.71168,0.33634
3930.78294,0.33654
3928.85419,0.33695
3926.92545,0.33727
3924.99670,0.33740
3923.06795,0.33742
3921.13921,0.33748
3919.21046,0.33750
3917.28172,0.33746
3915.35297,0.33753
3913.42423,0.33772
3911.49548,0.33787
3909.56674,0.33783
3907.63799,0.33783
3905.70925,0.33806
3903.78050,0.33817
3901.85176,0.33815
3899.92301,0.33828
3897.99427,0.33822
3896.06552,0.33781
3894.13678,0.33752
3892.20803,0.33768
3890.27928,0.33820
3888.35054,0.33859
3886.42179,0.33862
3884.49305,0.33835
3882.56430,0.33808
3880.63556,0.33810
3878.70681,0.33823
3876.77807,0.33814
3874.84932,0.33788
3872.92058,0.33780
3870.99183,0.33786
3869.06309,0.33768
3867.13434,0.33752
3865.20560,0.33766
3863.27685,0.33771
3861.34811,0.33743
3859.41936,0.33723
3857.49061,0.33722
3855.56187,0.33718
3853.63312,0.33708
3851.70438,0.33704
3849.77563,0.33691
3847.84689,0.33649
3845.91814,0.33599
3843.98940,0.33579
3842.06065,0.33586
3840.13191,0.33592
3838.20316,0.33569
3836.27442,0.33504
3834.34567,0.33437
3832.41693,0.33396
3830.48818,0.33354
3828.55943,0.33293
3826.63069,0.33227
3824.70194,0.33156
3822.77320,0.33081
3820.84445,0.33019
3818.91571,0.32990
3816.98696,0.32986
3815.05822,0.32964
3813.12947,0.32898
3811.20073,0.32830
3809.27198,0.32772
3807.34324,0.32691
3805.41449,0.32604
3803.48575,0.32547
3801.55700,0.32488
3799.62826,0.32418
3797.69951,0.32377
3795.77076,0.32349
3793.84202,0.32285
3791.91327,0.32189
3789.98453,0.32097
3788.05578,0.32030
3786.12704,0.31987
3784.19829,0.31931
3782.26955,0.31839
3780.34080,0.31723
3778.41206,0.31612
3776.48331,0.31534
3774.55457,0.31478
3772.62582,0.31403
3770.69708,0.31281
3768.76833,0.31144
3766.83959,0.31043
3764.91084,0.30953
3762.98209,0.30847
3761.05335,0.30732
3759.12460,0.30609
3757.19586,0.30492
3755.26711,0.30380
3753.33837,0.30254
3751.40962,0.30102
3749.48088,0.29952
3747.55213,0.29839
3745.62339,0.29718
3743.69464,0.29547
3741.76590,0.29367
3739.83715,0.29199
3737.90841,0.29016
3735.97966,0.28814
3734.05091,0.28602
3732.12217,0.28384
3730.19342,0.28170
3728.26468,0.27964
3726.33593,0.27744
3724.40719,0.27489
3722.47844,0.27211
3720.54970,0.26947
3718.62095,0.26698
3716.69221,0.26431
3714.76346,0.26121
3712.83472,0.25773
3710.90597,0.25403
3708.97723,0.25020
3707.04848,0.24628
3705.11974,0.24239
3703.19099,0.23821
3701.26224,0.23353
3699.33350,0.22893
3697.40475,0.22452
3695.47601,0.21996
3693.54726,0.21539
3691.61852,0.21074
3689.68977,0.20522
3687.76103,0.19875
3685.83228,0.19218
3683.90354,0.18522
3681.97479,0.17610
3680.04605,0.16283
3678.11730,0.14713
3676.18856,0.13691
3674.25981,0.13805
3672.33107,0.14377
3670.40232,0.14756
3668.47357,0.14818
3666.54483,0.14659
3664.61608,0.14416
3662.68734,0.14140
3660.75859,0.13880
3658.82985,0.13681
3656.90110,0.13512
3654.97236,0.13314
3653.04361,0.13121
3651.11487,0.12968
3649.18612,0.12807
3647.25738,0.12608
3645.32863,0.12415
3643.39989,0.12257
3641.47114,0.12102
3639.54239,0.11927
3637.61365,0.11759
3635.68490,0.11606
3633.75616,0.11463
3631.82741,0.11339
3629.89867,0.11214
3627.96992,0.11058
3626.04118,0.10908
3624.11243,0.10792
3622.18369,0.10682
3620.25494,0.10552
3618.32620,0.10415
3616.39745,0.10306
3614.46871,0.10223
3612.53996,0.10159
3610.61122,0.10096
3608.68247,0.10016
3606.75372,0.09936
3604.82498,0.09873
3602.89623,0.09823
3600.96749,0.09770
3599.03874,0.09718
3597.11000,0.09657
3595.18125,0.09567
3593.25251,0.09468
3591.32376,0.09401
3589.39502,0.09369
3587.46627,0.09342
3585.53753,0.09299
3583.60878,0.09232
3581.68004,0.09164
3579.75129,0.09092
3577.82254,0.09012
3575.89380,0.08960
3573.96505,0.08935
3572.03631,0.08906
3570.10756,0.08868
3568.17882,0.08817
3566.25007,0.08765
3564.32133,0.08716
3562.39258,0.08652
3560.46384,0.08590
3558.53509,0.08564
3556.60635,0.08551
3554.67760,0.08516
3552.74886,0.08480
3550.82011,0.08463
3548.89137,0.08442
3546.96262,0.08406
3545.03387,0.08360
3543.10513,0.08306
3541.17638,0.08275
3539.24764,0.08276
3537.31889,0.08269
3535.39015,0.08240
3533.46140,0.08200
3531.53266,0.08148
3529.60391,0.08104
3527.67517,0.08075
3525.74642,0.08049
3523.81768,0.08034
3521.88893,0.08045
3519.96019,0.08059
3518.03144,0.08055
3516.10270,0.08033
3514.17395,0.07994
3512.24520,0.07956
3510.31646,0.07933
3508.38771,0.07912
3506.45897,0.07889
3504.53022,0.07881
3502.60148,0.07880
3500.67273,0.07856
3498.74399,0.07809
3496.81524,0.07770
3494.88650,0.07740
3492.95775,0.07701
3491.02901,0.07672
3489.10026,0.07657
3487.17152,0.07637
3485.24277,0.07629
3483.31402,0.07630
3481.38528,0.07615
3479.45653,0.07593
3477.52779,0.07579
3475.59904,0.07568
3473.67030,0.07557
3471.74155,0.07542
3469.81281,0.07514
3467.88406,0.07476
3465.95532,0.07446
3464.02657,0.07441
3462.09783,0.07448
3460.16908,0.07445
3458.24034,0.07423
3456.31159,0.07395
3454.38285,0.07372
3452.45410,0.07341
3450.52535,0.07321
3448.59661,0.07340
3446.66786,0.07358
3444.73912,0.07354
3442.81037,0.07359
3440.88163,0.07367
3438.95288,0.07349
3437.02414,0.07315
3435.09539,0.07291
3433.16665,0.07282
3431.23790,0.07266
3429.30916,0.07232
3427.38041,0.07200
3425.45167,0.07183
3423.52292,0.07183
3421.59418,0.07169
3419.66543,0.07127
3417.73668,0.07121
3415.80794,0.07164
3413.87919,0.07188
3411.95045,0.07172
3410.02170,0.07151
3408.09296,0.07151
3406.16421,0.07151
3404.23547,0.07151
3402.30672,0.07177
3400.37798,0.07218
3398.44923,0.07232
3396.52049,0.07194
3394.59174,0.07147
3392.66300,0.07153
3390.73425,0.07174
3388.80550,0.07146
3386.87676,0.07111
3384.94801,0.07124
3383.01927,0.07143
3381.09052,0.07115
3379.16178,0.07078
3377.23303,0.07100
3375.30429,0.07150
3373.37554,0.07154
3371.44680,0.07131
3369.51805,0.07132
3367.58931,0.07159
3365.66056,0.07170
3363.73182,0.07150
3361.80307,0.07145
3359.87433,0.07175
3357.94558,0.07204
3356.01683,0.07220
3354.08809,0.07245
3352.15934,0.07261
3350.23060,0.07239
3348.30185,0.07201
3346.37311,0.07205
3344.44436,0.07258
3342.51562,0.07298
3340.58687,0.07286
3338.65813,0.07250
3336.72938,0.07234
3334.80064,0.07243
3332.87189,0.07256
3330.94315,0.07275
3329.01440,0.07314
3327.08566,0.07356
3325.15691,0.07383
3323.22816,0.07393
3321.29942,0.07374
3319.37067,0.07355
3317.44193,0.07364
3315.51318,0.07353
3313.58444,0.07312
3311.65569,0.07297
3309.72695,0.07324
3307.79820,0.07351
3305.86946,0.07355
3303.94071,0.07366
3302.01197,0.07397
3300.08322,0.07414
3298.15448,0.07398
3296.22573,0.07384
3294.29698,0.07407
3292.36824,0.07448
3290.43949,0.07470
3288.51075,0.07477
3286.58200,0.07491
3284.65326,0.07495
3282.72451,0.07468
3280.79577,0.07432
3278.86702,0.07413
3276.93828,0.07424
3275.00953,0.07464
3273.08079,0.07495
3271.15204,0.07494
3269.22330,0.07487
3267.29455,0.07503
3265.36581,0.07526
3263.43706,0.07531
3261.50831,0.07539
3259.57957,0.07559
3257.65082,0.07573
3255.72208,0.07602
3253.79333,0.07659
3251.86459,0.07684
3249.93584,0.07657
3248.00710,0.07645
3246.07835,0.07677
3244.14961,0.07711
3242.22086,0.07727
3240.29212,0.07758
3238.36337,0.07826
3236.43463,0.07882
3234.50588,0.07893
3232.57713,0.07890
3230.64839,0.07910
3228.71964,0.07955
3226.79090,0.07988
3224.86215,0.07989
3222.93341,0.07989
3221.00466,0.08001
3219.07592,0.07990
3217.14717,0.07969
3215.21843,0.07990
3213.28968,0.08030
3211.36094,0.08050
3209.43219,0.08071
3207.50345,0.08094
3205.57470,0.08124
3203.64596,0.08176
3201.71721,0.08220
3199.78846,0.08240
3197.85972,0.08259
3195.93097,0.08271
3194.00223,0.08274
3192.07348,0.08295
3190.14474,0.08336
3188.21599,0.08359
3186.28725,0.08336
3184.35850,0.08322
3182.42976,0.08363
3180.50101,0.08419
3178.57227,0.08463
3176.64352,0.08517
3174.71478,0.08561
3172.78603,0.08562
3170.85729,0.08544
3168.92854,0.08551
3166.99979,0.08596
3165.07105,0.08655
3163.14230,0.08696
3161.21356,0.08711
3159.28481,0.08719
3157.35607,0.08740
3155.42732,0.08771
3153.49858,0.08800
3151.56983,0.08824
3149.64109,0.08854
3147.71234,0.08896
3145.78360,0.08939
3143.85485,0.08962
3141.92611,0.08962
3139.99736,0.08968
3138.06861,0.08989
3136.13987,0.09006
3134.21112,0.09025
3132.28238,0.09053
3130.35363,0.09089
3128.42489,0.09130
3126.49614,0.09151
3124.56740,0.09136
3122.63865,0.09126
3120.70991,0.09166
3118.78116,0.09227
3116.85242,0.09265
3114.92367,0.09286
3112.99493,0.09304
3111.06618,0.09318
3109.13744,0.09316
3107.20869,0.09294
3105.27994,0.09294
3103.35120,0.09331
3101.42245,0.09377
3099.49371,0.09427
3097.56496,0.09470
3095.63622,0.09474
3093.70747,0.09449
3091.77873,0.09416
3089.84998,0.09353
3087.92124,0.09258
3085.99249,0.09177
3084.06375,0.09166
3082.13500,0.09219
3080.20626,0.09301
3078.27751,0.09398
3076.34877,0.09476
3074.42002,0.09495
3072.49127,0.09467
3070.56253,0.09446
3068.63378,0.09429
3066.70504,0.09373
3064.77629,0.09276
3062.84755,0.09182
3060.91880,0.09145
3058.99006,0.09184
3057.06131,0.09291
3055.13257,0.09451
3053.20382,0.09622
3051.27508,0.09757
3049.34633,0.09862
3047.41759,0.09950
3045.48884,0.09987
3043.56009,0.09963
3041.63135,0.09902
3039.70260,0.09826
3037.77386,0.09728
3035.84511,0.09563
3033.91637,0.09337
3031.98762,0.09116
3030.05888,0.08947
3028.13013,0.08853
3026.20139,0.08874
3024.27264,0.09033
3022.34390,0.09302
3020.41515,0.09619
3018.48641,0.09907
3016.55766,0.10119
3014.62892,0.10261
3012.70017,0.10359
3010.77142,0.10426
3008.84268,0.10460
3006.91393,0.10452
3004.98519,0.10403
3003.05644,0.10345
3001.12770,0.10329
2999.19895,0.10362
2997.27021,0.10399
2995.34146,0.10399
2993.41272,0.10353
2991.48397,0.10281
2989.55523,0.10200
2987.62648,0.10104
2985.69774,0.09977
2983.76899,0.09807
2981.84025,0.09605
2979.91150,0.09409
2977.98275,0.09213
2976.05401,0.08996
2974.12526,0.08778
2972.19652,0.08552
2970.26777,0.08305
2968.33903,0.08062
2966.41028,0.07862
2964.48154,0.07716
2962.55279,0.07629
2960.62405,0.07576
2958.69530,0.07527
2956.76656,0.07513
2954.83781,0.07558
2952.90907,0.07616
2950.98032,0.07667
2949.05157,0.07707
2947.12283,0.07707
2945.19408,0.07663
2943.26534,0.07597
2941.33659,0.07512
2939.40785,0.07395
2937.47910,0.07266
2935.55036,0.07164
2933.62161,0.07105
2931.69287,0.07078
2929.76412,0.07061
2927.83538,0.07067
2925.90663,0.07118
2923.97789,0.07178
2922.04914,0.07211
2920.12040,0.07272
2918.19165,0.07397
2916.26290,0.07539
2914.33416,0.07649
2912.40541,0.07746
2910.47667,0.07867
2908.54792,0.08004
2906.61918,0.08129
2904.69043,0.08245
2902.76169,0.08352
2900.83294,0.08442
2898.90420,0.08520
2896.97545,0.08592
2895.04671,0.08675
2893.11796,0.08779
2891.18922,0.08882
2889.26047,0.08974
2887.33172,0.09054
2885.40298,0.09099
2883.47423,0.09092
2881.54549,0.09048
2879.61674,0.08986
2877.68800,0.08912
2875.75925,0.08844
2873.83051,0.08808
2871.90176,0.08801
2869.97302,0.08819
2868.04427,0.08855
2866.11553,0.08875
2864.18678,0.08853
2862.25804,0.08801
2860.32929,0.08748
2858.40055,0.08733
2856.47180,0.08788
2854.54305,0.08925
2852.61431,0.09121
2850.68556,0.09352
2848.75682,0.09621
2846.82807,0.09945
2844.89933,0.10310
2842.97058,0.10696
2841.04184,0.11067
2839.11309,0.11368
2837.18435,0.11595
2835.25560,0.11801
2833.32686,0.12017
2831.39811,0.12223
2829.46937,0.12395
2827.54062,0.12534
2825.61188,0.12657
2823.68313,0.12785
2821.75438,0.12914
2819.82564,0.13030
2817.89689,0.13141
2815.96815,0.13256
2814.03940,0.13365
2812.11066,0.13455
2810.18191,0.13536
2808.25317,0.13617
2806.32442,0.13691
2804.39568,0.13764
2802.46693,0.13856
2800.53819,0.13965
2798.60944,0.14067
2796.68070,0.14142
2794.75195,0.14206
2792.82320,0.14276
2790.89446,0.14339
2788.96571,0.14400
2787.03697,0.14470
2785.10822,0.14524
2783.17948,0.14559
2781.25073,0.14605
2779.32199,0.14660
2777.39324,0.14710
2775.46450,0.14759
2773.53575,0.14809
2771.60701,0.14853
2769.67826,0.14892
2767.74952,0.14940
2765.82077,0.14992
2763.89203,0.15029
2761.96328,0.15040
2760.03453,0.15049
2758.10579,0.15082
2756.17704,0.15131
2754.24830,0.15171
2752.31955,0.15200
2750.39081,0.15220
2748.46206,0.15244
2746.53332,0.15283
2744.60457,0.15318
2742.67583,0.15338
2740.74708,0.15363
2738.81834,0.15398
2736.88959,0.15416
2734.96085,0.15427
2733.03210,0.15459
2731.10336,0.15514
2729.17461,0.15567
2727.24586,0.15603
2725.31712,0.15627
2723.38837,0.15666
2721.45963,0.15729
2719.53088,0.15785
2717.60214,0.15824
2715.67339,0.15871
2713.74465,0.15930
2711.81590,0.15995
2709.88716,0.16067
2707.95841,0.16147
2706.02967,0.16225
2704.10092,0.16291
2702.17218,0.16349
2700.24343,0.16394
2698.31468,0.16430
2696.38594,0.16481
2694.45719,0.16551
2692.52845,0.16626
2690.59970,0.16696
2688.67096,0.16744
2686.74221,0.16783
2684.81347,0.16836
2682.88472,0.16899
2680.95598,0.16957
2679.02723,0.17007
2677.09849,0.17055
2675.16974,0.17107
2673.24100,0.17157
2671.31225,0.17189
2669.38351,0.17206
2667.45476,0.17235
2665.52601,0.17295
2663.59727,0.17370
2661.66852,0.17443
2659.73978,0.17498
2657.81103,0.17529
2655.88229,0.17557
2653.95354,0.17601
2652.02480,0.17659
2650.09605,0.17718
2648.16731,0.17773
2646.23856,0.17832
2644.30982,0.17887
2642.38107,0.17923
2640.45233,0.17945
2638.52358,0.17952
2636.59484,0.17943
2634.66609,0.17941
2632.73734,0.17965
2630.80860,0.18013
2628.87985,0.18066
2626.95111,0.18106
2625.02236,0.18136
2623.09362,0.18156
2621.16487,0.18166
2619.23613,0.18170
2617.30738,0.18174
2615.37864,0.18178
2613.44989,0.18181
2611.52115,0.18199
2609.59240,0.18226
2607.66366,0.18237
2605.73491,0.18231
2603.80616,0.18236
2601.87742,0.18258
2599.94867,0.18287
2598.01993,0.18307
2596.09118,0.18319
2594.16244,0.18334
2592.23369,0.18364
2590.30495,0.18387
2588.37620,0.18387
2586.44746,0.18388
2584.51871,0.18403
2582.58997,0.18410
2580.66122,0.18419
2578.73248,0.18441
2576.80373,0.18463
2574.87499,0.18481
2572.94624,0.18495
2571.01749,0.18508
2569.08875,0.18519
2567.16000,0.18517
2565.23126,0.18511
2563.30251,0.18511
2561.37377,0.18500
2559.44502,0.18485
2557.51628,0.18474
2555.58753,0.18459
2553.65879,0.18444
2551.73004,0.18431
2549.80130,0.18413
2547.87255,0.18389
2545.94381,0.18354
2544.01506,0.18308
2542.08631,0.18256
2540.15757,0.18200
2538.22882,0.18145
2536.30008,0.18088
2534.37133,0.18019
2532.44259,0.17943
2530.51384,0.17861
2528.58510,0.17759
2526.65635,0.17651
2524.72761,0.17558
2522.79886,0.17488
2520.87012,0.17439
2518.94137,0.17411
2517.01263,0.17405
2515.08388,0.17419
2513.15514,0.17444
2511.22639,0.17483
2509.29764,0.17536
2507.36890,0.17609
2505.44015,0.17707
2503.51141,0.17837
2501.58266,0.17999
2499.65392,0.18176
2497.72517,0.18346
2495.79643,0.18515
2493.86768,0.18701
2491.93894,0.18900
2490.01019,0.19079
2488.08145,0.19238
2486.15270,0.19389
2484.22396,0.19509
2482.29521,0.19606
2480.36647,0.19710
2478.43772,0.19828
2476.50897,0.19940
2474.58023,0.20025
2472.65148,0.20095
2470.72274,0.20180
2468.79399,0.20267
2466.86525,0.20332
2464.93650,0.20379
2463.00776,0.20408
2461.07901,0.20431
2459.15027,0.20463
2457.22152,0.20508
2455.29278,0.20543
2453.36403,0.20559
2451.43529,0.20586
2449.50654,0.20630
2447.57779,0.20665
2445.64905,0.20697
2443.72030,0.20732
2441.79156,0.20751
2439.86281,0.20759
2437.93407,0.20778
2436.00532,0.20806
2434.07658,0.20830
2432.14783,0.20850
2430.21909,0.20867
2428.29034,0.20891
2426.36160,0.20921
2424.43285,0.20935
2422.50411,0.20924
2420.57536,0.20912
2418.64662,0.20931
2416.71787,0.20970
2414.78912,0.20992
2412.86038,0.20997
2410.93163,0.21006
2409.00289,0.21020
2407.07414,0.21016
2405.14540,0.20988
2403.21665,0.20957
2401.28791,0.20937
2399.35916,0.20937
2397.43042,0.20957
2395.50167,0.20983
2393.57293,0.20999
2391.64418,0.20998
2389.71544,0.20988
2387.78669,0.20990
2385.85795,0.20996
2383.92920,0.20989
2382.00045,0.20972
2380.07171,0.20960
2378.14296,0.20956
2376.21422,0.20958
2374.28547,0.20965
2372.35673,0.20971
2370.42798,0.20960
2368.49924,0.20933
2366.57049,0.20913
2364.64175,0.20902
2362.71300,0.20877
2360.78426,0.20850
2358.85551,0.20845
2356.92677,0.20841
2354.99802,0.20825
2353.06927,0.20807
2351.14053,0.20791
2349.21178,0.20776
2347.28304,0.20761
2345.35429,0.20727
2343.42555,0.20673
2341.49680,0.20626
2339.56806,0.20597
2337.63931,0.20577
2335.71057,0.20574
2333.78182,0.20590
2331.85308,0.20610
2329.92433,0.20628
2327.99559,0.20644
2326.06684,0.20641
2324.13810,0.20620
2322.20935,0.20598
2320.28060,0.20579
2318.35186,0.20561
2316.42311,0.20539
2314.49437,0.20502
2312.56562,0.20467
2310.63688,0.20465
2308.70813,0.20477
2306.77939,0.20471
2304.85064,0.20455
2302.92190,0.20449
2300.99315,0.20453
2299.06441,0.20450
2297.13566,0.20428
2295.20692,0.20401
2293.27817,0.20385
2291.34943,0.20376
2289.42068,0.20355
2287.49193,0.20321
2285.56319,0.20288
2283.63444,0.20261
2281.70570,0.20237
2279.77695,0.20215
2277.84821,0.20202
2275.91946,0.20187
2273.99072,0.20151
2272.06197,0.20106
2270.13323,0.20066
2268.20448,0.20020
2266.27574,0.19959
2264.34699,0.19914
2262.41825,0.19900
2260.48950,0.19878
2258.56075,0.19830
2256.63201,0.19779
2254.70326,0.19736
2252.77452,0.19698
2250.84577,0.19680
2248.91703,0.19675
2246.98828,0.19660
2245.05954,0.19643
2243.13079,0.19633
2241.20205,0.19615
2239.27330,0.19589
2237.34456,0.19575
2235.41581,0.19568
2233.48707,0.19554
2231.55832,0.19543
2229.62958,0.19541
2227.70083,0.19538
2225.77208,0.19535
2223.84334,0.19534
2221.91459,0.19537
2219.98585,0.19547
2218.05710,0.19557
2216.12836,0.19573
2214.19961,0.19604
2212.27087,0.19630
2210.34212,0.19641
2208.41338,0.19647
2206.48463,0.19657
2204.55589,0.19669
2202.62714,0.19675
2200.69840,0.19672
2198.76965,0.19661
2196.84090,0.19651
2194.91216,0.19641
2192.98341,0.19629
2191.05467,0.19616
2189.12592,0.19596
2187.19718,0.19566
2185.26843,0.19547
2183.33969,0.19545
2181.41094,0.19525
2179.48220,0.19484
2177.55345,0.19452
2175.62471,0.19430
2173.69596,0.19394
2171.76722,0.19355
2169.83847,0.19326
2167.90973,0.19292
2165.98098,0.19249
2164.05223,0.19203
2162.12349,0.19166
2160.19474,0.19139
2158.26600,0.19111
2156.33725,0.19084
2154.40851,0.19071
2152.47976,0.19051
2150.55102,0.19007
2148.62227,0.18962
2146.69353,0.18934
2144.76478,0.18902
2142.83604,0.18851
2140.90729,0.18798
2138.97855,0.18759
2137.04980,0.18743
2135.12106,0.18750
2133.19231,0.18773
2131.26356,0.18796
2129.33482,0.18812
2127.40607,0.18831
2125.47733,0.18871
2123.54858,0.18925
2121.61984,0.18977
2119.69109,0.19011
2117.76235,0.19021
2115.83360,0.19033
2113.90486,0.19065
2111.97611,0.19104
2110.04737,0.19135
2108.11862,0.19151
2106.18988,0.19153
2104.26113,0.19152
2102.33238,0.19160
2100.40364,0.19171
2098.47489,0.19175
2096.54615,0.19166
2094.61740,0.19163
2092.68866,0.19177
2090.75991,0.19192
2088.83117,0.19207
2086.90242,0.19225
2084.97368,0.19232
2083.04493,0.19225
2081.11619,0.19216
2079.18744,0.19210
2077.25870,0.19197
2075.32995,0.19178
2073.40121,0.19164
2071.47246,0.19150
2069.54371,0.19131
2067.61497,0.19114
2065.68622,0.19098
2063.75748,0.19083
2061.82873,0.19065
2059.89999,0.19041
2057.97124,0.19012
2056.04250,0.18986
2054.11375,0.18960
2052.18501,0.18917
2050.25626,0.18846
2048.32752,0.18765
2046.39877,0.18689
2044.47003,0.18607
2042.54128,0.18509
2040.61254,0.18409
2038.68379,0.18312
2036.75504,0.18217
2034.82630,0.18132
2032.89755,0.18054
2030.96881,0.17977
2029.04006,0.17912
2027.11132,0.17878
2025.18257,0.17869
2023.25383,0.17853
2021.32508,0.17821
2019.39634,0.17785
2017.46759,0.17743
2015.53885,0.17679
2013.61010,0.17586
2011.68136,0.17470
2009.75261,0.17356
2007.82386,0.17262
2005.89512,0.17190
2003.96637,0.17139
2002.03763,0.17095
2000.10888,0.17045
1998.18014,0.17002
1996.25139,0.16975
1994.32265,0.16953
1992.39390,0.16920
1990.46516,0.16885
1988.53641,0.16867
1986.60767,0.16857
1984.67892,0.16831
1982.75018,0.16805
1980.82143,0.16795
1978.89269,0.16791
1976.96394,0.16775
1975.03519,0.16743
1973.10645,0.16702
1971.17770,0.16664
1969.24896,0.16631
1967.32021,0.16598
1965.39147,0.16570
1963.46272,0.16547
1961.53398,0.16513
1959.60523,0.16449
1957.67649,0.16376
1955.74774,0.16319
1953.81900,0.16269
1951.89025,0.16219
1949.96151,0.16168
1948.03276,0.16113
1946.10402,0.16071
1944.17527,0.16057
1942.24652,0.16069
1940.31778,0.16101
1938.38903,0.16158
1936.46029,0.16247
1934.53154,0.16357
1932.60280,0.16457
1930.67405,0.16534
1928.74531,0.16594
1926.81656,0.16625
1924.88782,0.16634
1922.95907,0.16635
1921.03033,0.16615
1919.10158,0.16563
1917.17284,0.16485
1915.24409,0.16391
1913.31534,0.16294
1911.38660,0.16198
1909.45785,0.16086
1907.52911,0.15937
1905.60036,0.15771
1903.67162,0.15621
1901.74287,0.15486
1899.81413,0.15353
1897.88538,0.15222
1895.95664,0.15098
1894.02789,0.14971
1892.09915,0.14834
1890.17040,0.14696
1888.24166,0.14574
1886.31291,0.14472
1884.38417,0.14389
1882.45542,0.14323
1880.52667,0.14268
1878.59793,0.14214
1876.66918,0.14148
1874.74044,0.14071
1872.81169,0.14007
1870.88295,0.13979
1868.95420,0.13997
1867.02546,0.14058
1865.09671,0.14136
1863.16797,0.14225
1861.23922,0.14343
1859.31048,0.14496
1857.38173,0.14687
1855.45299,0.14894
1853.52424,0.15080
1851.59549,0.15241
1849.66675,0.15375
1847.73800,0.15476
1845.80926,0.15552
1843.88051,0.15608
1841.95177,0.15632
1840.02302,0.15628
1838.09428,0.15607
1836.16553,0.15560
1834.23679,0.15480
1832.30804,0.15379
1830.37930,0.15260
1828.45055,0.15124
1826.52181,0.14989
1824.59306,0.14851
1822.66432,0.14706
1820.73557,0.14561
1818.80682,0.14404
1816.87808,0.14229
1814.94933,0.14059
1813.02059,0.13895
1811.09184,0.13702
1809.16310,0.13478
1807.23435,0.13252
1805.30561,0.13022
1803.37686,0.12769
1801.44812,0.12499
1799.51937,0.12271
1797.59063,0.12138
1795.66188,0.12099
1793.73314,0.12127
1791.80439,0.12217
1789.87565,0.12362
1787.94690,0.12521
1786.01815,0.12662
1784.08941,0.12762
1782.16066,0.12821
1780.23192,0.12861
1778.30317,0.12890
1776.37443,0.12905
1774.44568,0.12913
1772.51694,0.12916
1770.58819,0.12903
1768.65945,0.12864
1766.73070,0.12801
1764.80196,0.12727
1762.87321,0.12642
1760.94447,0.12524
1759.01572,0.12369
1757.08697,0.12180
1755.15823,0.11968
1753.22948,0.11735
1751.30074,0.11432
1749.37199,0.11023
1747.44325,0.10530
1745.51450,0.09964
1743.58576,0.09328
1741.65701,0.08626
1739.72827,0.07892
1737.79952,0.07272
1735.87078,0.06832
1733.94203,0.06531
1732.01329,0.06416
1730.08454,0.06475
1728.15580,0.06650
1726.22705,0.06918
1724.29830,0.07265
1722.36956,0.07657
1720.44081,0.08050
1718.51207,0.08451
1716.58332,0.08819
1714.65458,0.09059
1712.72583,0.09188
1710.79709,0.09240
1708.86834,0.09221
1706.93960,0.09159
1705.01085,0.09084
1703.08211,0.09021
1701.15336,0.08941
1699.22462,0.08809
1697.29587,0.08672
1695.36713,0.08548
1693.43838,0.08440
1691.50963,0.08337
1689.58089,0.08216
1687.65214,0.08103
1685.72340,0.08011
1683.79465,0.07911
1681.86591,0.07803
1679.93716,0.07708
1678.00842,0.07625
1676.07967,0.07537
1674.15093,0.07443
1672.22218,0.07366
1670.29344,0.07297
1668.36469,0.07213
1666.43595,0.07149
1664.50720,0.07116
1662.57845,0.07072
1660.64971,0.07006
1658.72096,0.06953
1656.79222,0.06934
1654.86347,0.06925
1652.93473,0.06887
1651.00598,0.06832
1649.07724,0.06797
1647.14849,0.06767
1645.21975,0.06721
1643.29100,0.06662
1641.36226,0.06623
1639.43351,0.06615
1637.50477,0.06601
1635.57602,0.06553
1633.64728,0.06504
1631.71853,0.06474
1629.78978,0.06444
1627.86104,0.06403
1625.93229,0.06373
1624.00355,0.06358
1622.07480,0.06330
1620.14606,0.06299
1618.21731,0.06270
1616.28857,0.06220
1614.35982,0.06156
1612.43108,0.06100
1610.50233,0.06040
1608.57359,0.05967
1606.64484,0.05898
1604.71610,0.05849
1602.78735,0.05821
1600.85861,0.05823
1598.92986,0.05861
1597.00111,0.05918
1595.07237,0.05963
1593.14362,0.05974
1591.21488,0.05975
1589.28613,0.05978
1587.35739,0.05949
1585.42864,0.05889
1583.49990,0.05865
1581.57115,0.05894
1579.64241,0.05940
1577.71366,0.05981
1575.78492,0.06018
1573.85617,0.06043
1571.92743,0.06057
1569.99868,0.06075
1568.06993,0.06099
1566.14119,0.06112
1564.21244,0.06132
1562.28370,0.06189
1560.35495,0.06272
1558.42621,0.06339
1556.49746,0.06369
1554.56872,0.06393
1552.63997,0.06432
1550.71123,0.06490
1548.78248,0.06541
1546.85374,0.06566
1544.92499,0.06597
1542.99625,0.06659
1541.06750,0.06720
1539.13876,0.06765
1537.21001,0.06811
1535.28126,0.06853
1533.35252,0.06902
1531.42377,0.06969
1529.49503,0.07032
1527.56628,0.07070
1525.63754,0.07091
1523.70879,0.07107
1521.78005,0.07115
1519.85130,0.07121
1517.92256,0.07117
1515.99381,0.07093
1514.06507,0.07067
1512.13632,0.07043
1510.20758,0.07004
1508.27883,0.06955
1506.35008,0.06878
1504.42134,0.06760
1502.49259,0.06622
1500.56385,0.06458
1498.63510,0.06241
1496.70636,0.05989
1494.77761,0.05847
1492.84887,0.05907
1490.92012,0.06092
1488.99138,0.06271
1487.06263,0.06365
1485.13389,0.06378
1483.20514,0.06329
1481.27640,0.06250
1479.34765,0.06173
1477.41891,0.06095
1475.49016,0.06007
1473.56141,0.05895
1471.63267,0.05756
1469.70392,0.05627
1467.77518,0.05532
1465.84643,0.05468
1463.91769,0.05434
1461.98894,0.05415
1460.06020,0.05381
1458.13145,0.05301
1456.20271,0.05206
1454.27396,0.05189
1452.34522,0.05254
1450.41647,0.05353
1448.48773,0.05444
1446.55898,0.05508
1444.63024,0.05551
1442.70149,0.05590
1440.77274,0.05643
1438.84400,0.05701
1436.91525,0.05733
1434.98651,0.05736
1433.05776,0.05741
1431.12902,0.05756
1429.20027,0.05762
1427.27153,0.05758
1425.34278,0.05760
1423.41404,0.05773
1421.48529,0.05793
1419.55655,0.05807
1417.62780,0.05819
1415.69906,0.05846
1413.77031,0.05888
1411.84156,0.05934
1409.91282,0.05978
1407.98407,0.06023
1406.05533,0.06080
1404.12658,0.06145
1402.19784,0.06202
1400.26909,0.06258
1398.34035,0.06328
1396.41160,0.06405
1394.48286,0.06465
1392.55411,0.06504
1390.62537,0.06539
1388.69662,0.06565
1386.76788,0.06566
1384.83913,0.06560
1382.91039,0.06559
1380.98164,0.06553
1379.05289,0.06550
1377.12415,0.06568
1375.19540,0.06598
1373.26666,0.06626
1371.33791,0.06648
1369.40917,0.06668
1367.48042,0.06700
1365.55168,0.06742
1363.62293,0.06765
1361.69419,0.06768
1359.76544,0.06782
1357.83670,0.06823
1355.90795,0.06885
1353.97921,0.06936
1352.05046,0.06967
1350.12172,0.07006
1348.19297,0.07056
1346.26422,0.07093
1344.33548,0.07117
1342.40673,0.07136
1340.47799,0.07157
1338.54924,0.07181
1336.62050,0.07201
1334.69175,0.07217
1332.76301,0.07228
1330.83426,0.07223
1328.90552,0.07208
1326.97677,0.07218
1325.04803,0.07246
1323.11928,0.07252
1321.19054,0.07236
1319.26179,0.07226
1317.33304,0.07238
1315.40430,0.07274
1313.47555,0.07319
1311.54681,0.07371
1309.61806,0.07449
1307.68932,0.07553
1305.76057,0.07657
1303.83183,0.07741
1301.90308,0.07804
1299.97434,0.07853
1298.04559,0.07877
1296.11685,0.07872
1294.18810,0.07847
1292.25936,0.07819
1290.33061,0.07789
1288.40187,0.07745
1286.47312,0.07697
1284.54437,0.07662
1282.61563,0.07630
1280.68688,0.07610
1278.75814,0.07618
1276.82939,0.07638
1274.90065,0.07656
1272.97190,0.07678
1271.04316,0.07695
1269.11441,0.07689
1267.18567,0.07674
1265.25692,0.07686
1263.32818,0.07722
1261.39943,0.07758
1259.47069,0.07777
1257.54194,0.07786
1255.61320,0.07810
1253.68445,0.07854
1251.75570,0.07890
1249.82696,0.07903
1247.89821,0.07903
1245.96947,0.07908
1244.04072,0.07924
1242.11198,0.07956
1240.18323,0.08011
1238.25449,0.08074
1236.32574,0.08120
1234.39700,0.08168
1232.46825,0.08225
1230.53951,0.08269
1228.61076,0.08307
1226.68202,0.08356
1224.75327,0.08376
1222.82452,0.08340
1220.89578,0.08277
1218.96703,0.08215
1217.03829,0.08139
1215.10954,0.08036
1213.18080,0.07918
1211.25205,0.07803
1209.32331,0.07700
1207.39456,0.07603
1205.46582,0.07517
1203.53707,0.07451
1201.60833,0.07409
1199.67958,0.07383
1197.75084,0.07357
1195.82209,0.07335
1193.89335,0.07333
1191.96460,0.07315
1190.03585,0.07263
1188.10711,0.07222
1186.17836,0.07211
1184.24962,0.07197
1182.32087,0.07164
1180.39213,0.07134
1178.46338,0.07116
1176.53464,0.07095
1174.60589,0.07075
1172.67715,0.07078
1170.74840,0.07087
1168.81966,0.07080
1166.89091,0.07059
1164.96217,0.07008
1163.03342,0.06932
1161.10467,0.06890
1159.17593,0.06914
1157.24718,0.06995
1155.31844,0.07128
1153.38969,0.07286
1151.46095,0.07442
1149.53220,0.07571
1147.60346,0.07655
1145.67471,0.07725
1143.74597,0.07804
1141.81722,0.07884
1139.88848,0.07964
1137.95973,0.08023
1136.03099,0.08036
1134.10224,0.08023
1132.17350,0.08028
1130.24475,0.08058
1128.31600,0.08088
1126.38726,0.08115
1124.45851,0.08142
1122.52977,0.08165
1120.60102,0.08175
1118.67228,0.08165
1116.74353,0.08162
1114.81479,0.08205
1112.88604,0.08288
1110.95730,0.08360
1109.02855,0.08394
1107.09981,0.08424
1105.17106,0.08468
1103.24232,0.08520
1101.31357,0.08602
1099.38483,0.08721
1097.45608,0.08840
1095.52733,0.08933
1093.59859,0.09007
1091.66984,0.09079
1089.74110,0.09138
1087.81235,0.09172
1085.88361,0.09204
1083.95486,0.09251
1082.02612,0.09299
1080.09737,0.09341
1078.16863,0.09390
1076.23988,0.09451
1074.31114,0.09480
1072.38239,0.09453
1070.45365,0.09403
1068.52490,0.09357
1066.59615,0.09294
1064.66741,0.09203
1062.73866,0.09125
1060.80992,0.09088
1058.88117,0.09070
1056.95243,0.09059
1055.02368,0.09072
1053.09494,0.09123
1051.16619,0.09219
1049.23745,0.09373
1047.30870,0.09566
1045.37996,0.09761
1043.45121,0.09943
1041.52247,0.10115
1039.59372,0.10290
1037.66498,0.10480
1035.73623,0.10667
1033.80748,0.10816
1031.87874,0.10906
1029.94999,0.10967
1028.02125,0.11058
1026.09250,0.11181
1024.16376,0.11296
1022.23501,0.11382
1020.30627,0.11435
1018.37752,0.11441
1016.44878,0.11370
1014.52003,0.11201
1012.59129,0.10944
1010.66254,0.10650
1008.73380,0.10370
1006.80505,0.10103
1004.87631,0.09846
1002.94756,0.09630
1001.01881,0.09462
999.09007,0.09313
997.16132,0.09170
995.23258,0.09049
993.30383,0.08939
991.37509,0.08813
989.44634,0.08693
987.51760,0.08597
985.58885,0.08502
983.66011,0.08405
981.73136,0.08323
979.80262,0.08244
977.87387,0.08157
975.94513,0.08059
974.01638,0.07939
972.08763,0.07801
970.15889,0.07686
968.23014,0.07606
966.30140,0.07527
964.37265,0.07450
962.44391,0.07397
960.51516,0.07362
958.58642,0.07331
956.65767,0.07286
954.72893,0.07238
952.80018,0.07211
950.87144,0.07184
948.94269,0.07139
947.01395,0.07105
945.08520,0.07092
943.15646,0.07079
941.22771,0.07070
939.29896,0.07071
937.37022,0.07058
935.44147,0.07026
933.51273,0.06982
931.58398,0.06938
929.65524,0.06916
927.72649,0.06928
925.79775,0.06948
923.86900,0.06939
921.94026,0.06902
920.01151,0.06856
918.08277,0.06803
916.15402,0.06742
914.22528,0.06675
912.29653,0.06595
910.36779,0.06515
908.43904,0.06468
906.51029,0.06467
904.58155,0.06480
902.65280,0.06474
900.72406,0.06435
898.79531,0.06397
896.86657,0.06395
894.93782,0.06398
893.00908,0.06383
891.08033,0.06376
889.15159,0.06379
887.22284,0.06372
885.29410,0.06342
883.36535,0.06276
881.43661,0.06177
879.50786,0.06070
877.57911,0.06000
875.65037,0.05978
873.72162,0.05986
871.79288,0.06026
869.86413,0.06072
867.93539,0.06102
866.00664,0.06119
864.07790,0.06113
862.14915,0.06088
860.22041,0.06075
858.29166,0.06067
856.36292,0.06020
854.43417,0.05944
852.50543,0.05879
850.57668,0.05829
848.64794,0.05789
846.71919,0.05774
844.79044,0.05788
842.86170,0.05800
840.93295,0.05776
839.00421,0.05731
837.07546,0.05683
835.14672,0.05614
833.21797,0.05508
831.28923,0.05390
829.36048,0.05315
827.43174,0.05300
825.50299,0.05283
823.57425,0.05206
821.64550,0.05096
819.71676,0.04997
817.78801,0.04919
815.85926,0.04867
813.93052,0.04848
812.00177,0.04862
810.07303,0.04893
808.14428,0.04927
806.21554,0.04945
804.28679,0.04937
802.35805,0.04918
800.42930,0.04878
798.50056,0.04804
796.57181,0.04723
794.64307,0.04657
792.71432,0.04617
790.78558,0.04594
788.85683,0.04590
786.92809,0.04629
784.99934,0.04681
783.07059,0.04693
781.14185,0.04668
779.21310,0.04632
777.28436,0.04590
775.35561,0.04532
773.42687,0.04477
771.49812,0.04468
769.56938,0.04484
767.64063,0.04484
765.71189,0.04481
763.78314,0.04504
761.85440,0.04531
759.92565,0.04513
757.99691,0.04444
756.06816,0.04373
754.13942,0.04338
752.21067,0.04318
750.28192,0.04303
748.35318,0.04299
746.42443,0.04276
744.49569,0.04236
742.56694,0.04201
740.63820,0.04178
738.70945,0.04190
736.78071,0.04216
734.85196,0.04206
732.92322,0.04194
730.99447,0.04210
729.06573,0.04237
727.13698,0.04285
725.20824,0.04338
723.27949,0.04360
721.35074,0.04369
719.42200,0.04389
717.49325,0.04404
715.56451,0.04405
713.63576,0.04413
711.70702,0.04448
709.77827,0.04505
707.84953,0.04589
705.92078,0.04728
703.99204,0.04940
702.06329,0.05194
700.13455,0.05408
698.20580,0.05484
696.27706,0.05393
694.34831,0.05255
692.41957,0.05210
690.49082,0.05268
688.56207,0.05402
686.63333,0.05604
684.70458,0.05827
682.77584,0.06041
680.84709,0.06257
678.91835,0.06499
676.98960,0.06793
675.06086,0.07113
673.13211,0.07405
671.20337,0.07590
669.27462,0.07572
667.34588,0.07365
665.41713,0.07081
663.48839,0.06788
661.55964,0.06545
659.63090,0.06426
657.70215,0.06428
655.77340,0.06456
653.84466,0.06417
651.91591,0.06330
649.98717,0.06245
648.05842,0.06162
646.12968,0.06074
644.20093,0.05960
642.27219,0.05854
640.34344,0.05816
638.41470,0.05809
636.48595,0.05788
634.55721,0.05739
632.62846,0.05651
630.69972,0.05565
628.77097,0.05541
626.84222,0.05597
624.91348,0.05693
622.98473,0.05767
621.05599,0.05805
619.12724,0.05799
617.19850,0.05760
615.26975,0.05751
613.34101,0.05819
611.41226,0.05952
609.48352,0.06087
607.55477,0.06174
605.62603,0.06233
603.69728,0.06272
601.76854,0.06263
599.83979,0.06171
