7497.03301,0.49620
7495.10426,0.49355
7493.17552,0.49796
7491.24677,0.50651
7489.31803,0.51292
7487.38928,0.51345
7485.46054,0.50825
7483.53179,0.50092
7481.60305,0.49863
7479.67430,0.50309
7477.74556,0.50575
7475.81681,0.50271
7473.88807,0.50038
7471.95932,0.50203
7470.03057,0.50358
7468.10183,0.50270
7466.17308,0.50107
7464.24434,0.50001
7462.31559,0.49873
7460.38685,0.49680
7458.45810,0.49558
7456.52936,0.49631
7454.60061,0.49852
7452.67187,0.49945
7450.74312,0.49783
7448.81438,0.49628
7446.88563,0.49728
7444.95689,0.50064
7443.02814,0.50407
7441.09940,0.50558
7439.17065,0.50428
7437.24190,0.50026
7435.31316,0.49616
7433.38441,0.49395
7431.45567,0.49341
7429.52692,0.49481
7427.59818,0.49795
7425.66943,0.50219
7423.74069,0.50738
7421.81194,0.51045
7419.88320,0.50863
7417.95445,0.50605
7416.02571,0.50621
7414.09696,0.50489
7412.16822,0.49900
7410.23947,0.49306
7408.31073,0.49014
7406.38198,0.49047
7404.45323,0.49401
7402.52449,0.49513
7400.59574,0.49130
7398.66700,0.49084
7396.73825,0.49843
7394.80951,0.50718
7392.88076,0.51000
7390.95202,0.50760
7389.02327,0.50413
7387.09453,0.50223
7385.16578,0.50161
7383.23704,0.50216
7381.30829,0.50401
7379.37955,0.50425
7377.45080,0.50168
7375.52205,0.49937
7373.59331,0.49835
7371.66456,0.49605
7369.73582,0.49413
7367.80707,0.49743
7365.87833,0.50223
7363.94958,0.50134
7362.02084,0.49709
7360.09209,0.49527
7358.16335,0.49724
7356.23460,0.50183
7354.30586,0.50559
7352.37711,0.50597
7350.44837,0.50440
7348.51962,0.50226
7346.59088,0.50024
7344.66213,0.50011
7342.73338,0.50248
7340.80464,0.50295
7338.87589,0.49946
7336.94715,0.49672
7335.01840,0.49557
7333.08966,0.49627
7331.16091,0.50103
7329.23217,0.50591
7327.30342,0.50638
7325.37468,0.50404
7323.44593,0.50213
7321.51719,0.50119
7319.58844,0.50081
7317.65970,0.50348
7315.73095,0.51009
7313.80221,0.51356
7311.87346,0.50763
7309.94471,0.49723
7308.01597,0.49223
7306.08722,0.49664
7304.15848,0.50223
7302.22973,0.49922
7300.30099,0.49349
7298.37224,0.49504
7296.44350,0.50126
7294.51475,0.50453
7292.58601,0.50266
7290.65726,0.49822
7288.72852,0.49551
7286.79977,0.49800
7284.87103,0.50265
7282.94228,0.50370
7281.01353,0.50270
7279.08479,0.50321
7277.15604,0.50406
7275.22730,0.50431
7273.29855,0.50381
7271.36981,0.50133
7269.44106,0.49842
7267.51232,0.49775
7265.58357,0.49865
7263.65483,0.49977
7261.72608,0.50054
7259.79734,0.50032
7257.86859,0.49876
7255.93985,0.49585
7254.01110,0.49333
7252.08236,0.49282
7250.15361,0.49294
7248.22486,0.49289
7246.29612,0.49301
7244.36737,0.49297
7242.43863,0.49424
7240.50988,0.49718
7238.58114,0.49670
7236.65239,0.49165
7234.72365,0.48898
7232.79490,0.49145
7230.86616,0.49665
7228.93741,0.50227
7227.00867,0.50231
7225.07992,0.49589
7223.15118,0.49213
7221.22243,0.49484
7219.29369,0.49842
7217.36494,0.49967
7215.43619,0.50012
7213.50745,0.50031
7211.57870,0.50043
7209.64996,0.49935
7207.72121,0.49555
7205.79247,0.49211
7203.86372,0.49231
7201.93498,0.49405
7200.00623,0.49246
7198.07749,0.48642
7196.14874,0.48138
7194.22000,0.48288
7192.29125,0.48897
7190.36251,0.49204
7188.43376,0.48848
7186.50501,0.48145
7184.57627,0.47603
7182.64752,0.47529
7180.71878,0.47863
7178.79003,0.48341
7176.86129,0.48687
7174.93254,0.48842
7173.00380,0.48904
7171.07505,0.48914
7169.14631,0.48914
7167.21756,0.48844
7165.28882,0.48643
7163.36007,0.48466
7161.43133,0.48314
7159.50258,0.48158
7157.57384,0.48336
7155.64509,0.48635
7153.71634,0.48455
7151.78760,0.48250
7149.85885,0.48557
7147.93011,0.48955
7146.00136,0.49001
7144.07262,0.48832
7142.14387,0.48801
7140.21513,0.48888
7138.28638,0.48949
7136.35764,0.48980
7134.42889,0.48875
7132.50015,0.48620
7130.57140,0.48375
7128.64266,0.48309
7126.71391,0.48483
7124.78516,0.48720
7122.85642,0.48776
7120.92767,0.48675
7118.99893,0.48583
7117.07018,0.48504
7115.14144,0.48437
7113.21269,0.48529
7111.28395,0.48733
7109.35520,0.48740
7107.42646,0.48482
7105.49771,0.48278
7103.56897,0.48409
7101.64022,0.48656
7099.71148,0.48676
7097.78273,0.48622
7095.85399,0.48589
7093.92524,0.48554
7091.99649,0.48629
7090.06775,0.48604
7088.13900,0.48334
7086.21026,0.47962
7084.28151,0.47734
7082.35277,0.47950
7080.42402,0.48363
7078.49528,0.48461
7076.56653,0.48270
7074.63779,0.48112
7072.70904,0.48195
7070.78030,0.48589
7068.85155,0.49063
7066.92281,0.49055
7064.99406,0.48484
7063.06532,0.48014
7061.13657,0.47900
7059.20782,0.47862
7057.27908,0.47985
7055.35033,0.48299
7053.42159,0.48439
7051.49284,0.48416
7049.56410,0.48486
7047.63535,0.48573
7045.70661,0.48478
7043.77786,0.48200
7041.84912,0.47842
7039.92037,0.47550
7037.99163,0.47547
7036.06288,0.47902
7034.13414,0.48328
7032.20539,0.48418
7030.27664,0.48233
7028.34790,0.48182
7026.41915,0.48251
7024.49041,0.48289
7022.56166,0.48414
7020.63292,0.48521
7018.70417,0.48421
7016.77543,0.48360
7014.84668,0.48463
7012.91794,0.48398
7010.98919,0.48163
7009.06045,0.48116
7007.13170,0.48319
7005.20296,0.48564
7003.27421,0.48630
7001.34547,0.48546
6999.41672,0.48499
6997.48797,0.48439
6995.55923,0.48318
6993.63048,0.48344
6991.70174,0.48517
6989.77299,0.48492
6987.84425,0.48186
6985.91550,0.47872
6983.98676,0.47768
6982.05801,0.47895
6980.12927,0.48032
6978.20052,0.48060
6976.27178,0.48175
6974.34303,0.48367
6972.41429,0.48377
6970.48554,0.48307
6968.55680,0.48284
6966.62805,0.48123
6964.69930,0.47997
6962.77056,0.48127
6960.84181,0.48285
6958.91307,0.48425
6956.98432,0.48598
6955.05558,0.48478
6953.12683,0.48013
6951.19809,0.47761
6949.26934,0.47951
6947.34060,0.48200
6945.41185,0.48299
6943.48311,0.48323
6941.55436,0.48273
6939.62562,0.48162
6937.69687,0.48083
6935.76812,0.48091
6933.83938,0.48222
6931.91063,0.48423
6929.98189,0.48560
6928.05314,0.48620
6926.12440,0.48731
6924.19565,0.48916
6922.26691,0.48838
6920.33816,0.48369
6918.40942,0.48006
6916.48067,0.48019
6914.55193,0.48177
6912.62318,0.48361
6910.69444,0.48550
6908.76569,0.48680
6906.83695,0.48761
6904.90820,0.48663
6902.97945,0.48247
6901.05071,0.47801
6899.12196,0.47738
6897.19322,0.48055
6895.26447,0.48287
6893.33573,0.48190
6891.40698,0.48053
6889.47824,0.47993
6887.54949,0.47991
6885.62075,0.48164
6883.69200,0.48454
6881.76326,0.48676
6879.83451,0.48653
6877.90577,0.48429
6875.97702,0.48423
6874.04828,0.48696
6872.11953,0.48755
6870.19078,0.48499
6868.26204,0.48335
6866.33329,0.48503
6864.40455,0.48847
6862.47580,0.49021
6860.54706,0.48852
6858.61831,0.48466
6856.68957,0.48143
6854.76082,0.48031
6852.83208,0.48078
6850.90333,0.48265
6848.97459,0.48471
6847.04584,0.48528
6845.11710,0.48542
6843.18835,0.48612
6841.25960,0.48596
6839.33086,0.48384
6837.40211,0.48146
6835.47337,0.48143
6833.54462,0.48345
6831.61588,0.48533
6829.68713,0.48647
6827.75839,0.48666
6825.82964,0.48445
6823.90090,0.48183
6821.97215,0.48401
6820.04341,0.48851
6818.11466,0.48806
6816.18592,0.48347
6814.25717,0.48038
6812.32843,0.48146
6810.39968,0.48474
6808.47093,0.48674
6806.54219,0.48777
6804.61344,0.48881
6802.68470,0.48900
6800.75595,0.48869
6798.82721,0.48846
6796.89846,0.48878
6794.96972,0.48954
6793.04097,0.48905
6791.11223,0.48723
6789.18348,0.48588
6787.25474,0.48534
6785.32599,0.48541
6783.39725,0.48650
6781.46850,0.48728
6779.53975,0.48604
6777.61101,0.48458
6775.68226,0.48494
6773.75352,0.48550
6771.82477,0.48536
6769.89603,0.48638
6767.96728,0.48858
6766.03854,0.48969
6764.10979,0.48924
6762.18105,0.48844
6760.25230,0.48736
6758.32356,0.48639
6756.39481,0.48648
6754.46607,0.48685
6752.53732,0.48711
6750.60858,0.48743
6748.67983,0.48656
6746.75108,0.48512
6744.82234,0.48595
6742.89359,0.48820
6740.96485,0.48870
6739.03610,0.48803
6737.10736,0.48787
6735.17861,0.48746
6733.24987,0.48633
6731.32112,0.48635
6729.39238,0.48835
6727.46363,0.48971
6725.53489,0.48931
6723.60614,0.48928
6721.67740,0.49077
6719.74865,0.49243
6717.81991,0.49167
6715.89116,0.48858
6713.96241,0.48663
6712.03367,0.48635
6710.10492,0.48616
6708.17618,0.48720
6706.24743,0.48927
6704.31869,0.49004
6702.38994,0.48912
6700.46120,0.48743
6698.53245,0.48697
6696.60371,0.48920
6694.67496,0.49222
6692.74622,0.49377
6690.81747,0.49288
6688.88873,0.49036
6686.95998,0.48981
6685.03123,0.49264
6683.10249,0.49491
6681.17374,0.49453
6679.24500,0.49471
6677.31625,0.49566
6675.38751,0.49464
6673.45876,0.49364
6671.53002,0.49533
6669.60127,0.49631
6667.67253,0.49355
6665.74378,0.49081
6663.81504,0.49078
6661.88629,0.49045
6659.95755,0.48838
6658.02880,0.48751
6656.10006,0.48877
6654.17131,0.48968
6652.24256,0.49066
6650.31382,0.49285
6648.38507,0.49467
6646.45633,0.49606
6644.52758,0.49637
6642.59884,0.49486
6640.67009,0.49365
6638.74135,0.49327
6636.81260,0.49306
6634.88386,0.49391
6632.95511,0.49535
6631.02637,0.49508
6629.09762,0.49311
6627.16888,0.49135
6625.24013,0.49018
6623.31139,0.49045
6621.38264,0.49259
6619.45389,0.49424
6617.52515,0.49476
6615.59640,0.49524
6613.66766,0.49492
6611.73891,0.49415
6609.81017,0.49458
6607.88142,0.49528
6605.95268,0.49471
6604.02393,0.49377
6602.09519,0.49337
6600.16644,0.49286
6598.23770,0.49265
6596.30895,0.49339
6594.38021,0.49361
6592.45146,0.49316
6590.52271,0.49339
6588.59397,0.49336
6586.66522,0.49231
6584.73648,0.49232
6582.80773,0.49337
6580.87899,0.49320
6578.95024,0.49278
6577.02150,0.49334
6575.09275,0.49377
6573.16401,0.49351
6571.23526,0.49255
6569.30652,0.49179
6567.37777,0.49224
6565.44903,0.49301
6563.52028,0.49374
6561.59154,0.49511
6559.66279,0.49637
6557.73404,0.49691
6555.80530,0.49732
6553.87655,0.49675
6551.94781,0.49420
6550.01906,0.49153
6548.09032,0.49148
6546.16157,0.49398
6544.23283,0.49629
6542.30408,0.49602
6540.37534,0.49435
6538.44659,0.49427
6536.51785,0.49515
6534.58910,0.49485
6532.66036,0.49418
6530.73161,0.49423
6528.80287,0.49467
6526.87412,0.49577
6524.94537,0.49757
6523.01663,0.49942
6521.08788,0.50100
6519.15914,0.50153
6517.23039,0.50132
6515.30165,0.50103
6513.37290,0.49928
6511.44416,0.49670
6509.51541,0.49553
6507.58667,0.49570
6505.65792,0.49700
6503.72918,0.49794
6501.80043,0.49563
6499.87169,0.49265
6497.94294,0.49365
6496.01419,0.49605
6494.08545,0.49542
6492.15670,0.49373
6490.22796,0.49462
6488.29921,0.49737
6486.37047,0.49940
6484.44172,0.50017
6482.51298,0.50044
6480.58423,0.50010
6478.65549,0.49886
6476.72674,0.49796
6474.79800,0.49806
6472.86925,0.49788
6470.94051,0.49669
6469.01176,0.49577
6467.08302,0.49600
6465.15427,0.49610
6463.22552,0.49612
6461.29678,0.49744
6459.36803,0.49881
6457.43929,0.49870
6455.51054,0.49761
6453.58180,0.49681
6451.65305,0.49716
6449.72431,0.49766
6447.79556,0.49679
6445.86682,0.49611
6443.93807,0.49736
6442.00933,0.49857
6440.08058,0.49832
6438.15184,0.49746
6436.22309,0.49727
6434.29434,0.49809
6432.36560,0.49849
6430.43685,0.49875
6428.50811,0.50026
6426.57936,0.50193
6424.65062,0.50159
6422.72187,0.49984
6420.79313,0.49944
6418.86438,0.50015
6416.93564,0.50001
6415.00689,0.49975
6413.07815,0.50031
6411.14940,0.50030
6409.22066,0.49942
6407.29191,0.49938
6405.36317,0.49982
6403.43442,0.49985
6401.50567,0.49982
6399.57693,0.49970
6397.64818,0.50004
6395.71944,0.50039
6393.79069,0.49957
6391.86195,0.49957
6389.93320,0.50189
6388.00446,0.50355
6386.07571,0.50253
6384.14697,0.50058
6382.21822,0.50001
6380.28948,0.50143
6378.36073,0.50282
6376.43199,0.50295
6374.50324,0.50274
6372.57450,0.50227
6370.64575,0.50155
6368.71700,0.50120
6366.78826,0.50104
6364.85951,0.50060
6362.93077,0.50035
6361.00202,0.50104
6359.07328,0.50247
6357.14453,0.50383
6355.21579,0.50428
6353.28704,0.50337
6351.35830,0.50134
6349.42955,0.49991
6347.50081,0.50042
6345.57206,0.50092
6343.64332,0.50017
6341.71457,0.49990
6339.78582,0.50100
6337.85708,0.50310
6335.92833,0.50547
6333.99959,0.50630
6332.07084,0.50469
6330.14210,0.50204
6328.21335,0.50022
6326.28461,0.50019
6324.35586,0.50109
6322.42712,0.50150
6320.49837,0.50165
6318.56963,0.50199
6316.64088,0.50203
6314.71214,0.50140
6312.78339,0.50026
6310.85465,0.49994
6308.92590,0.50110
6306.99715,0.50250
6305.06841,0.50318
6303.13966,0.50335
6301.21092,0.50332
6299.28217,0.50354
6297.35343,0.50497
6295.42468,0.50663
6293.49594,0.50631
6291.56719,0.50451
6289.63845,0.50262
6287.70970,0.50143
6285.78096,0.50181
6283.85221,0.50287
6281.92347,0.50325
6279.99472,0.50351
6278.06598,0.50440
6276.13723,0.50487
6274.20848,0.50381
6272.27974,0.50302
6270.35099,0.50396
6268.42225,0.50411
6266.49350,0.50189
6264.56476,0.49984
6262.63601,0.49968
6260.70727,0.50068
6258.77852,0.50183
6256.84978,0.50274
6254.92103,0.50422
6252.99229,0.50576
6251.06354,0.50542
6249.13480,0.50398
6247.20605,0.50344
6245.27730,0.50397
6243.34856,0.50435
6241.41981,0.50378
6239.49107,0.50333
6237.56232,0.50412
6235.63358,0.50533
6233.70483,0.50575
6231.77609,0.50533
6229.84734,0.50472
6227.91860,0.50420
6225.98985,0.50357
6224.06111,0.50312
6222.13236,0.50371
6220.20362,0.50528
6218.27487,0.50653
6216.34613,0.50640
6214.41738,0.50493
6212.48863,0.50307
6210.55989,0.50189
6208.63114,0.50198
6206.70240,0.50270
6204.77365,0.50235
6202.84491,0.50116
6200.91616,0.50096
6198.98742,0.50173
6197.05867,0.50329
6195.12993,0.50596
6193.20118,0.50783
6191.27244,0.50750
6189.34369,0.50692
6187.41495,0.50740
6185.48620,0.50762
6183.55746,0.50694
6181.62871,0.50629
6179.69996,0.50633
6177.77122,0.50651
6175.84247,0.50628
6173.91373,0.50615
6171.98498,0.50619
6170.05624,0.50609
6168.12749,0.50586
6166.19875,0.50581
6164.27000,0.50699
6162.34126,0.50855
6160.41251,0.50828
6158.48377,0.50676
6156.55502,0.50562
6154.62628,0.50558
6152.69753,0.50656
6150.76878,0.50715
6148.84004,0.50670
6146.91129,0.50570
6144.98255,0.50482
6143.05380,0.50475
6141.12506,0.50487
6139.19631,0.50558
6137.26757,0.50813
6135.33882,0.51007
6133.41008,0.50901
6131.48133,0.50699
6129.55259,0.50621
6127.62384,0.50665
6125.69510,0.50740
6123.76635,0.50751
6121.83761,0.50742
6119.90886,0.50803
6117.98011,0.50868
6116.05137,0.50844
6114.12262,0.50742
6112.19388,0.50651
6110.26513,0.50629
6108.33639,0.50594
6106.40764,0.50509
6104.47890,0.50474
6102.55015,0.50516
6100.62141,0.50571
6098.69266,0.50563
6096.76392,0.50553
6094.83517,0.50704
6092.90643,0.50952
6090.97768,0.51067
6089.04893,0.51026
6087.12019,0.50946
6085.19144,0.50938
6083.26270,0.51029
6081.33395,0.51034
6079.40521,0.50910
6077.47646,0.50839
6075.54772,0.50791
6073.61897,0.50738
6071.69023,0.50822
6069.76148,0.50945
6067.83274,0.50863
6065.90399,0.50634
6063.97525,0.50531
6062.04650,0.50595
6060.11776,0.50688
6058.18901,0.50815
6056.26026,0.50923
6054.33152,0.50871
6052.40277,0.50738
6050.47403,0.50654
6048.54528,0.50659
6046.61654,0.50837
6044.68779,0.51068
6042.75905,0.51052
6040.83030,0.50868
6038.90156,0.50772
6036.97281,0.50707
6035.04407,0.50642
6033.11532,0.50709
6031.18658,0.50833
6029.25783,0.50837
6027.32909,0.50743
6025.40034,0.50663
6023.47159,0.50632
6021.54285,0.50656
6019.61410,0.50668
6017.68536,0.50549
6015.75661,0.50411
6013.82787,0.50439
6011.89912,0.50544
6009.97038,0.50586
6008.04163,0.50531
6006.11289,0.50450
6004.18414,0.50479
6002.25540,0.50580
6000.32665,0.50610
5998.39791,0.50589
5996.46916,0.50654
5994.54041,0.50787
5992.61167,0.50778
5990.68292,0.50612
5988.75418,0.50474
5986.82543,0.50453
5984.89669,0.50515
5982.96794,0.50504
5981.03920,0.50389
5979.11045,0.50306
5977.18171,0.50296
5975.25296,0.50354
5973.32422,0.50439
5971.39547,0.50499
5969.46673,0.50504
5967.53798,0.50408
5965.60924,0.50348
5963.68049,0.50403
5961.75174,0.50378
5959.82300,0.50218
5957.89425,0.50131
5955.96551,0.50213
5954.03676,0.50345
5952.10802,0.50402
5950.17927,0.50350
5948.25053,0.50309
5946.32178,0.50399
5944.39304,0.50496
5942.46429,0.50486
5940.53555,0.50392
5938.60680,0.50248
5936.67806,0.50134
5934.74931,0.50124
5932.82057,0.50171
5930.89182,0.50181
5928.96307,0.50174
5927.03433,0.50193
5925.10558,0.50222
5923.17684,0.50260
5921.24809,0.50282
5919.31935,0.50278
5917.39060,0.50250
5915.46186,0.50147
5913.53311,0.50051
5911.60437,0.50116
5909.67562,0.50288
5907.74688,0.50406
5905.81813,0.50377
5903.88939,0.50278
5901.96064,0.50290
5900.03189,0.50381
5898.10315,0.50352
5896.17440,0.50235
5894.24566,0.50252
5892.31691,0.50400
5890.38817,0.50481
5888.45942,0.50430
5886.53068,0.50358
5884.60193,0.50409
5882.67319,0.50557
5880.74444,0.50654
5878.81570,0.50673
5876.88695,0.50659
5874.95821,0.50575
5873.02946,0.50405
5871.10072,0.50276
5869.17197,0.50279
5867.24322,0.50383
5865.31448,0.50496
5863.38573,0.50566
5861.45699,0.50632
5859.52824,0.50637
5857.59950,0.50539
5855.67075,0.50447
5853.74201,0.50407
5851.81326,0.50442
5849.88452,0.50558
5847.95577,0.50637
5846.02703,0.50572
5844.09828,0.50436
5842.16954,0.50405
5840.24079,0.50428
5838.31205,0.50408
5836.38330,0.50439
5834.45455,0.50494
5832.52581,0.50497
5830.59706,0.50514
5828.66832,0.50530
5826.73957,0.50494
5824.81083,0.50453
5822.88208,0.50455
5820.95334,0.50491
5819.02459,0.50494
5817.09585,0.50419
5815.16710,0.50319
5813.23836,0.50267
5811.30961,0.50277
5809.38087,0.50303
5807.45212,0.50323
5805.52337,0.50359
5803.59463,0.50370
5801.66588,0.50321
5799.73714,0.50325
5797.80839,0.50410
5795.87965,0.50433
5793.95090,0.50408
5792.02216,0.50429
5790.09341,0.50446
5788.16467,0.50413
5786.23592,0.50416
5784.30718,0.50436
5782.37843,0.50419
5780.44969,0.50480
5778.52094,0.50631
5776.59220,0.50680
5774.66345,0.50572
5772.73470,0.50428
5770.80596,0.50331
5768.87721,0.50329
5766.94847,0.50471
5765.01972,0.50615
5763.09098,0.50629
5761.16223,0.50596
5759.23349,0.50588
5757.30474,0.50640
5755.37600,0.50710
5753.44725,0.50677
5751.51851,0.50636
5749.58976,0.50693
5747.66102,0.50721
5745.73227,0.50656
5743.80352,0.50585
5741.87478,0.50592
5739.94603,0.50675
5738.01729,0.50750
5736.08854,0.50774
5734.15980,0.50710
5732.23105,0.50566
5730.30231,0.50504
5728.37356,0.50572
5726.44482,0.50611
5724.51607,0.50570
5722.58733,0.50587
5720.65858,0.50664
5718.72984,0.50630
5716.80109,0.50526
5714.87235,0.50562
5712.94360,0.50697
5711.01485,0.50711
5709.08611,0.50633
5707.15736,0.50635
5705.22862,0.50685
5703.29987,0.50657
5701.37113,0.50578
5699.44238,0.50542
5697.51364,0.50550
5695.58489,0.50598
5693.65615,0.50641
5691.72740,0.50594
5689.79866,0.50533
5687.86991,0.50526
5685.94117,0.50524
5684.01242,0.50521
5682.08368,0.50543
5680.15493,0.50594
5678.22618,0.50599
5676.29744,0.50534
5674.36869,0.50484
5672.43995,0.50438
5670.51120,0.50357
5668.58246,0.50345
5666.65371,0.50477
5664.72497,0.50636
5662.79622,0.50702
5660.86748,0.50691
5658.93873,0.50640
5657.00999,0.50586
5655.08124,0.50550
5653.15250,0.50524
5651.22375,0.50538
5649.29500,0.50621
5647.36626,0.50702
5645.43751,0.50719
5643.50877,0.50715
5641.58002,0.50692
5639.65128,0.50570
5637.72253,0.50483
5635.79379,0.50614
5633.86504,0.50809
5631.93630,0.50875
5630.00755,0.50836
5628.07881,0.50761
5626.15006,0.50686
5624.22132,0.50626
5622.29257,0.50585
5620.36383,0.50600
5618.43508,0.50678
5616.50633,0.50756
5614.57759,0.50774
5612.64884,0.50720
5610.72010,0.50654
5608.79135,0.50632
5606.86261,0.50662
5604.93386,0.50755
5603.00512,0.50834
5601.07637,0.50784
5599.14763,0.50651
5597.21888,0.50588
5595.29014,0.50689
5593.36139,0.50847
5591.43265,0.50847
5589.50390,0.50718
5587.57516,0.50694
5585.64641,0.50791
5583.71766,0.50807
5581.78892,0.50695
5579.86017,0.50573
5577.93143,0.50511
5576.00268,0.50523
5574.07394,0.50618
5572.14519,0.50777
5570.21645,0.50889
5568.28770,0.50830
5566.35896,0.50679
5564.43021,0.50621
5562.50147,0.50689
5560.57272,0.50803
5558.64398,0.50924
5556.71523,0.50985
5554.78648,0.50927
5552.85774,0.50870
5550.92899,0.50876
5549.00025,0.50826
5547.07150,0.50708
5545.14276,0.50645
5543.21401,0.50700
5541.28527,0.50798
5539.35652,0.50846
5537.42778,0.50860
5535.49903,0.50834
5533.57029,0.50796
5531.64154,0.50838
5529.71280,0.50899
5527.78405,0.50889
5525.85531,0.50866
5523.92656,0.50883
5521.99781,0.50891
5520.06907,0.50848
5518.14032,0.50781
5516.21158,0.50739
5514.28283,0.50753
5512.35409,0.50789
5510.42534,0.50804
5508.49660,0.50812
5506.56785,0.50813
5504.63911,0.50813
5502.71036,0.50800
5500.78162,0.50734
5498.85287,0.50654
5496.92413,0.50636
5494.99538,0.50699
5493.06664,0.50822
5491.13789,0.50951
5489.20914,0.51022
5487.28040,0.51022
5485.35165,0.50991
5483.42291,0.50950
5481.49416,0.50872
5479.56542,0.50786
5477.63667,0.50772
5475.70793,0.50827
5473.77918,0.50893
5471.85044,0.50916
5469.92169,0.50841
5467.99295,0.50728
5466.06420,0.50696
5464.13546,0.50737
5462.20671,0.50785
5460.27796,0.50826
5458.34922,0.50883
5456.42047,0.50970
5454.49173,0.51038
5452.56298,0.51000
5450.63424,0.50885
5448.70549,0.50825
5446.77675,0.50851
5444.84800,0.50891
5442.91926,0.50914
5440.99051,0.50938
5439.06177,0.50939
5437.13302,0.50883
5435.20428,0.50859
5433.27553,0.50949
5431.34679,0.51033
5429.41804,0.51021
5427.48929,0.50984
5425.56055,0.50976
5423.63180,0.50978
5421.70306,0.50907
5419.77431,0.50788
5417.84557,0.50760
5415.91682,0.50826
5413.98808,0.50892
5412.05933,0.50883
5410.13059,0.50811
5408.20184,0.50806
5406.27310,0.50874
5404.34435,0.50885
5402.41561,0.50835
5400.48686,0.50823
5398.55811,0.50871
5396.62937,0.50915
5394.70062,0.50899
5392.77188,0.50834
5390.84313,0.50823
5388.91439,0.50892
5386.98564,0.50941
5385.05690,0.50963
5383.12815,0.51001
5381.19941,0.51022
5379.27066,0.50990
5377.34192,0.50930
5375.41317,0.50905
5373.48443,0.50926
5371.55568,0.50893
5369.62694,0.50760
5367.69819,0.50632
5365.76944,0.50613
5363.84070,0.50648
5361.91195,0.50619
5359.98321,0.50560
5358.05446,0.50590
5356.12572,0.50654
5354.19697,0.50640
5352.26823,0.50563
5350.33948,0.50478
5348.41074,0.50416
5346.48199,0.50391
5344.55325,0.50408
5342.62450,0.50408
5340.69576,0.50309
5338.76701,0.50163
5336.83827,0.50081
5334.90952,0.50094
5332.98077,0.50154
5331.05203,0.50150
5329.12328,0.50059
5327.19454,0.49973
5325.26579,0.49915
5323.33705,0.49848
5321.40830,0.49779
5319.47956,0.49734
5317.55081,0.49716
5315.62207,0.49713
5313.69332,0.49717
5311.76458,0.49640
5309.83583,0.49432
5307.90709,0.49265
5305.97834,0.49244
5304.04959,0.49193
5302.12085,0.49011
5300.19210,0.48835
5298.26336,0.48743
5296.33461,0.48659
5294.40587,0.48545
5292.47712,0.48435
5290.54838,0.48308
5288.61963,0.48154
5286.69089,0.48044
5284.76214,0.47935
5282.83340,0.47723
5280.90465,0.47497
5278.97591,0.47382
5277.04716,0.47310
5275.11842,0.47157
5273.18967,0.46943
5271.26092,0.46751
5269.33218,0.46600
5267.40343,0.46481
5265.47469,0.46331
5263.54594,0.46079
5261.61720,0.45781
5259.68845,0.45558
5257.75971,0.45415
5255.83096,0.45276
5253.90222,0.45143
5251.97347,0.45017
5250.04473,0.44830
5248.11598,0.44589
5246.18724,0.44374
5244.25849,0.44198
5242.32975,0.43980
5240.40100,0.43671
5238.47225,0.43392
5236.54351,0.43268
5234.61476,0.43191
5232.68602,0.43001
5230.75727,0.42785
5228.82853,0.42668
5226.89978,0.42590
5224.97104,0.42473
5223.04229,0.42339
5221.11355,0.42219
5219.18480,0.42084
5217.25606,0.41918
5215.32731,0.41774
5213.39857,0.41669
5211.46982,0.41577
5209.54107,0.41514
5207.61233,0.41490
5205.68358,0.41426
5203.75484,0.41291
5201.82609,0.41200
5199.89735,0.41223
5197.96860,0.41312
5196.03986,0.41392
5194.11111,0.41412
5192.18237,0.41379
5190.25362,0.41348
5188.32488,0.41387
5186.39613,0.41484
5184.46739,0.41541
5182.53864,0.41574
5180.60990,0.41625
5178.68115,0.41659
5176.75240,0.41682
5174.82366,0.41723
5172.89491,0.41777
5170.96617,0.41817
5169.03742,0.41828
5167.10868,0.41845
5165.17993,0.41900
5163.25119,0.41976
5161.32244,0.42025
5159.39370,0.42066
5157.46495,0.42135
5155.53621,0.42205
5153.60746,0.42237
5151.67872,0.42259
5149.74997,0.42314
5147.82123,0.42402
5145.89248,0.42518
5143.96373,0.42616
5142.03499,0.42666
5140.10624,0.42730
5138.17750,0.42810
5136.24875,0.42856
5134.32001,0.42892
5132.39126,0.42970
5130.46252,0.43079
5128.53377,0.43158
5126.60503,0.43193
5124.67628,0.43238
5122.74754,0.43330
5120.81879,0.43443
5118.89005,0.43527
5116.96130,0.43550
5115.03255,0.43523
5113.10381,0.43497
5111.17506,0.43531
5109.24632,0.43655
5107.31757,0.43821
5105.38883,0.43950
5103.46008,0.44025
5101.53134,0.44069
5099.60259,0.44106
5097.67385,0.44129
5095.74510,0.44108
5093.81636,0.44087
5091.88761,0.44143
5089.95887,0.44235
5088.03012,0.44311
5086.10138,0.44399
5084.17263,0.44480
5082.24388,0.44533
5080.31514,0.44567
5078.38639,0.44588
5076.45765,0.44641
5074.52890,0.44723
5072.60016,0.44751
5070.67141,0.44724
5068.74267,0.44691
5066.81392,0.44652
5064.88518,0.44641
5062.95643,0.44720
5061.02769,0.44879
5059.09894,0.45022
5057.17020,0.45089
5055.24145,0.45112
5053.31270,0.45152
5051.38396,0.45229
5049.45521,0.45310
5047.52647,0.45353
5045.59772,0.45364
5043.66898,0.45382
5041.74023,0.45443
5039.81149,0.45494
5037.88274,0.45473
5035.95400,0.45444
5034.02525,0.45486
5032.09651,0.45593
5030.16776,0.45693
5028.23902,0.45728
5026.31027,0.45757
5024.38153,0.45841
5022.45278,0.45891
5020.52403,0.45848
5018.59529,0.45808
5016.66654,0.45846
5014.73780,0.45943
5012.80905,0.46042
5010.88031,0.46092
5008.95156,0.46103
5007.02282,0.46118
5005.09407,0.46139
5003.16533,0.46158
5001.23658,0.46187
4999.30784,0.46234
4997.37909,0.46264
4995.45035,0.46276
4993.52160,0.46295
4991.59286,0.46296
4989.66411,0.46311
4987.73536,0.46395
4985.80662,0.46479
4983.87787,0.46512
4981.94913,0.46531
4980.02038,0.46558
4978.09164,0.46601
4976.16289,0.46640
4974.23415,0.46649
4972.30540,0.46669
4970.37666,0.46731
4968.44791,0.46783
4966.51917,0.46788
4964.59042,0.46772
4962.66168,0.46784
4960.73293,0.46846
4958.80418,0.46923
4956.87544,0.46973
4954.94669,0.46991
4953.01795,0.47006
4951.08920,0.47010
4949.16046,0.46975
4947.23171,0.46950
4945.30297,0.46971
4943.37422,0.46974
4941.44548,0.46969
4939.51673,0.47040
4937.58799,0.47157
4935.65924,0.47184
4933.73050,0.47088
4931.80175,0.47003
4929.87301,0.47032
4927.94426,0.47090
4926.01551,0.47074
4924.08677,0.47028
4922.15802,0.47029
4920.22928,0.47065
4918.30053,0.47059
4916.37179,0.47001
4914.44304,0.46973
4912.51430,0.47034
4910.58555,0.47137
4908.65681,0.47198
4906.72806,0.47212
4904.79932,0.47201
4902.87057,0.47150
4900.94183,0.47087
4899.01308,0.47058
4897.08434,0.47053
4895.15559,0.47051
4893.22684,0.47037
4891.29810,0.47002
4889.36935,0.46982
4887.44061,0.46975
4885.51186,0.46924
4883.58312,0.46841
4881.65437,0.46798
4879.72563,0.46814
4877.79688,0.46827
4875.86814,0.46804
4873.93939,0.46769
4872.01065,0.46748
4870.08190,0.46748
4868.15316,0.46745
4866.22441,0.46720
4864.29566,0.46692
4862.36692,0.46700
4860.43817,0.46767
4858.50943,0.46825
4856.58068,0.46815
4854.65194,0.46761
4852.72319,0.46707
4850.79445,0.46683
4848.86570,0.46667
4846.93696,0.46616
4845.00821,0.46555
4843.07947,0.46524
4841.15072,0.46516
4839.22198,0.46506
4837.29323,0.46466
4835.36449,0.46389
4833.43574,0.46330
4831.50699,0.46338
4829.57825,0.46374
4827.64950,0.46366
4825.72076,0.46334
4823.79201,0.46333
4821.86327,0.46363
4819.93452,0.46389
4818.00578,0.46367
4816.07703,0.46289
4814.14829,0.46210
4812.21954,0.46169
4810.29080,0.46165
4808.36205,0.46163
4806.43331,0.46110
4804.50456,0.46031
4802.57582,0.46014
4800.64707,0.46066
4798.71832,0.46099
4796.78958,0.46074
4794.86083,0.46032
4792.93209,0.46016
4791.00334,0.46031
4789.07460,0.46057
4787.14585,0.46061
4785.21711,0.46025
4783.28836,0.45989
4781.35962,0.45980
4779.43087,0.45969
4777.50213,0.45948
4775.57338,0.45933
4773.64464,0.45927
4771.71589,0.45940
4769.78714,0.45971
4767.85840,0.45962
4765.92965,0.45899
4764.00091,0.45871
4762.07216,0.45909
4760.14342,0.45944
4758.21467,0.45948
4756.28593,0.45954
4754.35718,0.45977
4752.42844,0.45995
4750.49969,0.45973
4748.57095,0.45914
4746.64220,0.45873
4744.71346,0.45870
4742.78471,0.45863
4740.85597,0.45835
4738.92722,0.45822
4736.99847,0.45864
4735.06973,0.45935
4733.14098,0.45986
4731.21224,0.46002
4729.28349,0.46003
4727.35475,0.46009
4725.42600,0.46014
4723.49726,0.46008
4721.56851,0.46004
4719.63977,0.46018
4717.71102,0.46045
4715.78228,0.46080
4713.85353,0.46104
4711.92479,0.46078
4709.99604,0.46049
4708.06729,0.46064
4706.13855,0.46074
4704.20980,0.46075
4702.28106,0.46089
4700.35231,0.46080
4698.42357,0.46060
4696.49482,0.46079
4694.56608,0.46125
4692.63733,0.46147
4690.70859,0.46135
4688.77984,0.46138
4686.85110,0.46172
4684.92235,0.46165
4682.99361,0.46084
4681.06486,0.45993
4679.13612,0.45925
4677.20737,0.45855
4675.27862,0.45789
4673.34988,0.45742
4671.42113,0.45693
4669.49239,0.45633
4667.56364,0.45583
4665.63490,0.45549
4663.70615,0.45533
4661.77741,0.45563
4659.84866,0.45648
4657.91992,0.45751
4655.99117,0.45835
4654.06243,0.45893
4652.13368,0.45928
4650.20494,0.45956
4648.27619,0.46004
4646.34745,0.46051
4644.41870,0.46038
4642.48995,0.45969
4640.56121,0.45908
4638.63246,0.45894
4636.70372,0.45897
4634.77497,0.45872
4632.84623,0.45836
4630.91748,0.45792
4628.98874,0.45721
4627.05999,0.45667
4625.13125,0.45668
4623.20250,0.45675
4621.27376,0.45639
4619.34501,0.45591
4617.41627,0.45575
4615.48752,0.45555
4613.55877,0.45509
4611.63003,0.45468
4609.70128,0.45438
4607.77254,0.45438
4605.84379,0.45469
4603.91505,0.45506
4601.98630,0.45554
4600.05756,0.45620
4598.12881,0.45687
4596.20007,0.45744
4594.27132,0.45788
4592.34258,0.45802
4590.41383,0.45779
4588.48509,0.45754
4586.55634,0.45735
4584.62760,0.45697
4582.69885,0.45635
4580.77010,0.45562
4578.84136,0.45506
4576.91261,0.45479
4574.98387,0.45413
4573.05512,0.45274
4571.12638,0.45190
4569.19763,0.45243
4567.26889,0.45324
4565.34014,0.45356
4563.41140,0.45373
4561.48265,0.45383
4559.55391,0.45371
4557.62516,0.45369
4555.69642,0.45386
4553.76767,0.45384
4551.83893,0.45359
4549.91018,0.45325
4547.98143,0.45290
4546.05269,0.45266
4544.12394,0.45246
4542.19520,0.45219
4540.26645,0.45186
4538.33771,0.45152
4536.40896,0.45131
4534.48022,0.45117
4532.55147,0.45090
4530.62273,0.45052
4528.69398,0.45016
4526.76524,0.44971
4524.83649,0.44911
4522.90775,0.44899
4520.97900,0.44940
4519.05025,0.44925
4517.12151,0.44850
4515.19276,0.44803
4513.26402,0.44798
4511.33527,0.44789
4509.40653,0.44752
4507.47778,0.44694
4505.54904,0.44647
4503.62029,0.44646
4501.69155,0.44666
4499.76280,0.44672
4497.83406,0.44651
4495.90531,0.44584
4493.97657,0.44498
4492.04782,0.44446
4490.11908,0.44441
4488.19033,0.44445
4486.26158,0.44436
4484.33284,0.44433
4482.40409,0.44424
4480.47535,0.44388
4478.54660,0.44357
4476.61786,0.44355
4474.68911,0.44361
4472.76037,0.44331
4470.83162,0.44253
4468.90288,0.44180
4466.97413,0.44138
4465.04539,0.44092
4463.11664,0.44032
4461.18790,0.43982
4459.25915,0.43943
4457.33041,0.43923
4455.40166,0.43925
4453.47291,0.43911
4451.54417,0.43863
4449.61542,0.43795
4447.68668,0.43703
4445.75793,0.43604
4443.82919,0.43519
4441.90044,0.43438
4439.97170,0.43367
4438.04295,0.43312
4436.11421,0.43255
4434.18546,0.43178
4432.25672,0.43085
4430.32797,0.42997
4428.39923,0.42920
4426.47048,0.42872
4424.54173,0.42863
4422.61299,0.42825
4420.68424,0.42724
4418.75550,0.42621
4416.82675,0.42540
4414.89801,0.42442
4412.96926,0.42338
4411.04052,0.42237
4409.11177,0.42142
4407.18303,0.42063
4405.25428,0.41994
4403.32554,0.41928
4401.39679,0.41887
4399.46805,0.41873
4397.53930,0.41867
4395.61056,0.41867
4393.68181,0.41869
4391.75306,0.41867
4389.82432,0.41863
4387.89557,0.41827
4385.96683,0.41761
4384.03808,0.41716
4382.10934,0.41717
4380.18059,0.41733
4378.25185,0.41712
4376.32310,0.41652
4374.39436,0.41596
4372.46561,0.41549
4370.53687,0.41473
4368.60812,0.41365
4366.67938,0.41282
4364.75063,0.41257
4362.82189,0.41267
4360.89314,0.41281
4358.96439,0.41290
4357.03565,0.41283
4355.10690,0.41263
4353.17816,0.41230
4351.24941,0.41167
4349.32067,0.41078
4347.39192,0.40974
4345.46318,0.40856
4343.53443,0.40756
4341.60569,0.40685
4339.67694,0.40598
4337.74820,0.40484
4335.81945,0.40389
4333.89071,0.40322
4331.96196,0.40258
4330.03321,0.40191
4328.10447,0.40151
4326.17572,0.40152
4324.24698,0.40153
4322.31823,0.40164
4320.38949,0.40240
4318.46074,0.40384
4316.53200,0.40545
4314.60325,0.40671
4312.67451,0.40755
4310.74576,0.40815
4308.81702,0.40845
4306.88827,0.40837
4304.95953,0.40806
4303.03078,0.40778
4301.10204,0.40751
4299.17329,0.40712
4297.24454,0.40675
4295.31580,0.40658
4293.38705,0.40634
4291.45831,0.40595
4289.52956,0.40583
4287.60082,0.40587
4285.67207,0.40536
4283.74333,0.40426
4281.81458,0.40339
4279.88584,0.40308
4277.95709,0.40260
4276.02835,0.40178
4274.09960,0.40116
4272.17086,0.40056
4270.24211,0.39975
4268.31336,0.39904
4266.38462,0.39856
4264.45587,0.39823
4262.52713,0.39802
4260.59838,0.39778
4258.66964,0.39723
4256.74089,0.39654
4254.81215,0.39617
4252.88340,0.39592
4250.95466,0.39564
4249.02591,0.39560
4247.09717,0.39573
4245.16842,0.39566
4243.23968,0.39526
4241.31093,0.39503
4239.38219,0.39534
4237.45344,0.39571
4235.52469,0.39560
4233.59595,0.39520
4231.66720,0.39506
4229.73846,0.39504
4227.80971,0.39474
4225.88097,0.39439
4223.95222,0.39425
4222.02348,0.39410
4220.09473,0.39386
4218.16599,0.39353
4216.23724,0.39296
4214.30850,0.39208
4212.37975,0.39136
4210.45101,0.39127
4208.52226,0.39152
4206.59352,0.39153
4204.66477,0.39116
4202.73602,0.39064
4200.80728,0.39023
4198.87853,0.38990
4196.94979,0.38964
4195.02104,0.38966
4193.09230,0.38977
4191.16355,0.38958
4189.23481,0.38926
4187.30606,0.38897
4185.37732,0.38856
4183.44857,0.38822
4181.51983,0.38801
4179.59108,0.38772
4177.66234,0.38742
4175.73359,0.38723
4173.80484,0.38700
4171.87610,0.38668
4169.94735,0.38638
4168.01861,0.38603
4166.08986,0.38561
4164.16112,0.38544
4162.23237,0.38557
4160.30363,0.38563
4158.37488,0.38535
4156.44614,0.38484
4154.51739,0.38448
4152.58865,0.38436
4150.65990,0.38418
4148.73116,0.38370
4146.80241,0.38303
4144.87367,0.38239
4142.94492,0.38176
4141.01617,0.38099
4139.08743,0.38028
4137.15868,0.37976
4135.22994,0.37914
4133.30119,0.37818
4131.37245,0.37704
4129.44370,0.37606
4127.51496,0.37538
4125.58621,0.37485
4123.65747,0.37415
4121.72872,0.37331
4119.79998,0.37261
4117.87123,0.37207
4115.94249,0.37138
4114.01374,0.37051
4112.08500,0.36973
4110.15625,0.36920
4108.22750,0.36870
4106.29876,0.36772
4104.37001,0.36626
4102.44127,0.36495
4100.51252,0.36397
4098.58378,0.36303
4096.65503,0.36193
4094.72629,0.36067
4092.79754,0.35942
4090.86880,0.35840
4088.94005,0.35751
4087.01131,0.35661
4085.08256,0.35563
4083.15382,0.35447
4081.22507,0.35316
4079.29632,0.35195
4077.36758,0.35077
4075.43883,0.34926
4073.51009,0.34761
4071.58134,0.34618
4069.65260,0.34478
4067.72385,0.34326
4065.79511,0.34175
4063.86636,0.34029
4061.93762,0.33900
4060.00887,0.33793
4058.08013,0.33677
4056.15138,0.33555
4054.22264,0.33475
4052.29389,0.33426
4050.36515,0.33382
4048.43640,0.33350
4046.50765,0.33311
4044.57891,0.33238
4042.65016,0.33157
4040.72142,0.33110
4038.79267,0.33085
4036.86393,0.33066
4034.93518,0.33070
4033.00644,0.33099
4031.07769,0.33155
4029.14895,0.33228
4027.22020,0.33273
4025.29146,0.33273
4023.36271,0.33276
4021.43397,0.33317
4019.50522,0.33367
4017.57648,0.33411
4015.64773,0.33469
4013.71898,0.33519
4011.79024,0.33523
4009.86149,0.33492
4007.93275,0.33463
4006.00400,0.33446
4004.07526,0.33442
4002.14651,0.33459
4000.21777,0.33486
3998.28902,0.33510
3996.36028,0.33542
3994.43153,0.33588
3992.50279,0.33620
3990.57404,0.33621
3988.64530,0.33603
3986.71655,0.33583
3984.78780,0.33579
3982.85906,0.33594
3980.93031,0.33617
3979.00157,0.33650
3977.07282,0.33677
3975.14408,0.33675
3973.21533,0.33663
3971.28659,0.33655
3969.35784,0.33646
3967.42910,0.33651
3965.50035,0.33679
3963.57161,0.33712
3961.64286,0.33735
3959.71412,0.33746
3957.78537,0.33752
3955.85663,0.33736
3953.92788,0.33697
3951.99913,0.33683
3950.07039,0.33701
3948.14164,0.33707
3946.21290,0.33696
3944.28415,0.33685
3942.35541,0.33690
3940.42666,0.33721
3938.49792,0.33762
3936.56917,0.33796
3934.64043,0.33812
3932.71168,0.33824
3930.78294,0.33840
3928.85419,0.33844
3926.92545,0.33847
3924.99670,0.33861
3923.06795,0.33862
3921.13921,0.33850
3919.21046,0.33854
3917.28172,0.33874
3915.35297,0.33879
3913.42423,0.33878
3911.49548,0.33896
3909.56674,0.33895
3907.63799,0.33858
3905.70925,0.33839
3903.78050,0.33862
3901.85176,0.33884
3899.92301,0.33891
3897.99427,0.33911
3896.06552,0.33933
3894.13678,0.33937
3892.20803,0.33929
3890.27928,0.33909
3888.35054,0.33891
3886.42179,0.33903
3884.49305,0.33933
3882.56430,0.33937
3880.63556,0.33929
3878.70681,0.33934
3876.77807,0.33928
3874.84932,0.33896
3872.92058,0.33866
3870.99183,0.33851
3869.06309,0.33837
3867.13434,0.33829
3865.20560,0.33847
3863.27685,0.33875
3861.34811,0.33871
3859.41936,0.33838
3857.49061,0.33829
3855.56187,0.33859
3853.63312,0.33871
3851.70438,0.33831
3849.77563,0.33791
3847.84689,0.33760
3845.91814,0.33720
3843.98940,0.33676
3842.06065,0.33641
3840.13191,0.33614
3838.20316,0.33581
3836.27442,0.33540
3834.34567,0.33500
3832.41693,0.33458
3830.48818,0.33421
3828.55943,0.33389
3826.63069,0.33347
3824.70194,0.33308
3822.77320,0.33282
3820.84445,0.33237
3818.91571,0.33151
3816.98696,0.33056
3815.05822,0.32984
3813.12947,0.32930
3811.20073,0.32892
3809.27198,0.32871
3807.34324,0.32826
3805.41449,0.32740
3803.48575,0.32663
3801.55700,0.32640
3799.62826,0.32637
3797.69951,0.32581
3795.77076,0.32473
3793.84202,0.32371
3791.91327,0.32300
3789.98453,0.32225
3788.05578,0.32133
3786.12704,0.32052
3784.19829,0.31997
3782.26955,0.31945
3780.34080,0.31883
3778.41206,0.31805
3776.48331,0.31707
3774.55457,0.31621
3772.62582,0.31558
3770.69708,0.31474
3768.76833,0.31350
3766.83959,0.31227
3764.91084,0.31114
3762.98209,0.30987
3761.05335,0.30848
3759.12460,0.30713
3757.19586,0.30607
3755.26711,0.30530
3753.33837,0.30444
3751.40962,0.30310
3749.48088,0.30144
3747.55213,0.30002
3745.62339,0.29858
3743.69464,0.29662
3741.76590,0.29468
3739.83715,0.29311
3737.90841,0.29142
3735.97966,0.28920
3734.05091,0.28669
3732.12217,0.28434
3730.19342,0.28221
3728.26468,0.28012
3726.33593,0.27785
3724.40719,0.27530
3722.47844,0.27261
3720.54970,0.27004
3718.62095,0.26752
3716.69221,0.26496
3714.76346,0.26234
3712.83472,0.25919
3710.90597,0.25533
3708.97723,0.25140
3707.04848,0.24749
3705.11974,0.24338
3703.19099,0.23917
3701.26224,0.23481
3699.33350,0.23029
3697.40475,0.22566
3695.47601,0.22085
3693.54726,0.21595
3691.61852,0.21104
3689.68977,0.20550
3687.76103,0.19886
3685.83228,0.19212
3683.90354,0.18540
3681.97479,0.17667
3680.04605,0.16340
3678.11730,0.14733
3676.18856,0.13706
3674.25981,0.13857
3672.33107,0.14418
3670.40232,0.14734
3668.47357,0.14782
3666.54483,0.14667
3664.61608,0.14450
3662.68734,0.14147
3660.75859,0.13853
3658.82985,0.13669
3656.90110,0.13540
3654.97236,0.13375
3653.04361,0.13206
3651.11487,0.13067
3649.18612,0.12916
3647.25738,0.12710
3645.32863,0.12493
3643.39989,0.12328
3641.47114,0.12207
3639.54239,0.12072
3637.61365,0.11891
3635.68490,0.11706
3633.75616,0.11566
3631.82741,0.11462
3629.89867,0.11342
3627.96992,0.11171
3626.04118,0.10999
3624.11243,0.10857
3622.18369,0.10754
3620.25494,0.10685
3618.32620,0.10595
3616.39745,0.10473
3614.46871,0.10359
3612.53996,0.10267
3610.61122,0.10183
3608.68247,0.10089
3606.75372,0.10007
3604.82498,0.09973
3602.89623,0.09951
3600.96749,0.09884
3599.03874,0.09798
3597.11000,0.09744
3595.18125,0.09693
3593.25251,0.09611
3591.32376,0.09538
3589.39502,0.09498
3587.46627,0.09442
3585.53753,0.09371
3583.60878,0.09322
3581.68004,0.09279
3579.75129,0.09238
3577.82254,0.09209
3575.89380,0.09168
3573.96505,0.09105
3572.03631,0.09040
3570.10756,0.08972
3568.17882,0.08883
3566.25007,0.08796
3564.32133,0.08755
3562.39258,0.08748
3560.46384,0.08732
3558.53509,0.08699
3556.60635,0.08652
3554.67760,0.08590
3552.74886,0.08522
3550.82011,0.08464
3548.89137,0.08431
3546.96262,0.08427
3545.03387,0.08430
3543.10513,0.08425
3541.17638,0.08422
3539.24764,0.08410
3537.31889,0.08363
3535.39015,0.08291
3533.46140,0.08250
3531.53266,0.08249
3529.60391,0.08238
3527.67517,0.08202
3525.74642,0.08169
3523.81768,0.08143
3521.88893,0.08098
3519.96019,0.08046
3518.03144,0.08040
3516.10270,0.08068
3514.17395,0.08076
3512.24520,0.08053
3510.31646,0.08029
3508.38771,0.08002
3506.45897,0.07978
3504.53022,0.07981
3502.60148,0.07976
3500.67273,0.07918
3498.74399,0.07844
3496.81524,0.07807
3494.88650,0.07809
3492.95775,0.07817
3491.02901,0.07806
3489.10026,0.07771
3487.17152,0.07741
3485.24277,0.07745
3483.31402,0.07763
3481.38528,0.07763
3479.45653,0.07728
3477.52779,0.07639
3475.59904,0.07555
3473.67030,0.07553
3471.74155,0.07588
3469.81281,0.07588
3467.88406,0.07548
3465.95532,0.07482
3464.02657,0.07431
3462.09783,0.07437
3460.16908,0.07470
3458.24034,0.07474
3456.31159,0.07439
3454.38285,0.07391
3452.45410,0.07352
3450.52535,0.07350
3448.59661,0.07397
3446.66786,0.07444
3444.73912,0.07438
3442.81037,0.07382
3440.88163,0.07324
3438.95288,0.07317
3437.02414,0.07358
3435.09539,0.07363
3433.16665,0.07308
3431.23790,0.07277
3429.30916,0.07299
3427.38041,0.07329
3425.45167,0.07332
3423.52292,0.07300
3421.59418,0.07256
3419.66543,0.07230
3417.73668,0.07230
3415.80794,0.07243
3413.87919,0.07238
3411.95045,0.07220
3410.02170,0.07218
3408.09296,0.07229
3406.16421,0.07233
3404.23547,0.07232
3402.30672,0.07218
3400.37798,0.07176
3398.44923,0.07143
3396.52049,0.07168
3394.59174,0.07202
3392.66300,0.07198
3390.73425,0.07186
3388.80550,0.07184
3386.87676,0.07201
3384.94801,0.07234
3383.01927,0.07247
3381.09052,0.07228
3379.16178,0.07200
3377.23303,0.07179
3375.30429,0.07188
3373.37554,0.07214
3371.44680,0.07215
3369.51805,0.07197
3367.58931,0.07202
3365.66056,0.07213
3363.73182,0.07192
3361.80307,0.07164
3359.87433,0.07176
3357.94558,0.07210
3356.01683,0.07227
3354.08809,0.07224
3352.15934,0.07213
3350.23060,0.07209
3348.30185,0.07237
3346.37311,0.07279
3344.44436,0.07279
3342.51562,0.07230
3340.58687,0.07215
3338.65813,0.07280
3336.72938,0.07357
3334.80064,0.07378
3332.87189,0.07369
3330.94315,0.07367
3329.01440,0.07373
3327.08566,0.07371
3325.15691,0.07351
3323.22816,0.07342
3321.29942,0.07358
3319.37067,0.07364
3317.44193,0.07351
3315.51318,0.07340
3313.58444,0.07338
3311.65569,0.07348
3309.72695,0.07373
3307.79820,0.07402
3305.86946,0.07429
3303.94071,0.07448
3302.01197,0.07445
3300.08322,0.07427
3298.15448,0.07420
3296.22573,0.07455
3294.29698,0.07515
3292.36824,0.07550
3290.43949,0.07535
3288.51075,0.07482
3286.58200,0.07429
3284.65326,0.07423
3282.72451,0.07478
3280.79577,0.07538
3278.86702,0.07559
3276.93828,0.07579
3275.00953,0.07636
3273.08079,0.07670
3271.15204,0.07631
3269.22330,0.07580
3267.29455,0.07596
3265.36581,0.07666
3263.43706,0.07703
3261.50831,0.07661
3259.57957,0.07610
3257.65082,0.07630
3255.72208,0.07700
3253.79333,0.07748
3251.86459,0.07758
3249.93584,0.07760
3248.00710,0.07778
3246.07835,0.07818
3244.14961,0.07869
3242.22086,0.07878
3240.29212,0.07832
3238.36337,0.07805
3236.43463,0.07838
3234.50588,0.07903
3232.57713,0.07956
3230.64839,0.07982
3228.71964,0.08002
3226.79090,0.08023
3224.86215,0.08036
3222.93341,0.08056
3221.00466,0.08103
3219.07592,0.08142
3217.14717,0.08129
3215.21843,0.08087
3213.28968,0.08051
3211.36094,0.08042
3209.43219,0.08093
3207.50345,0.08180
3205.57470,0.08230
3203.64596,0.08235
3201.71721,0.08252
3199.78846,0.08281
3197.85972,0.08279
3195.93097,0.08257
3194.00223,0.08287
3192.07348,0.08387
3190.14474,0.08465
3188.21599,0.08469
3186.28725,0.08463
3184.35850,0.08489
3182.42976,0.08525
3180.50101,0.08572
3178.57227,0.08612
3176.64352,0.08607
3174.71478,0.08581
3172.78603,0.08592
3170.85729,0.08635
3168.92854,0.08669
3166.99979,0.08685
3165.07105,0.08702
3163.14230,0.08725
3161.21356,0.08756
3159.28481,0.08790
3157.35607,0.08814
3155.42732,0.08836
3153.49858,0.08851
3151.56983,0.08856
3149.64109,0.08873
3147.71234,0.08910
3145.78360,0.08947
3143.85485,0.08987
3141.92611,0.09031
3139.99736,0.09057
3138.06861,0.09071
3136.13987,0.09125
3134.21112,0.09206
3132.28238,0.09249
3130.35363,0.09249
3128.42489,0.09257
3126.49614,0.09285
3124.56740,0.09303
3122.63865,0.09312
3120.70991,0.09350
3118.78116,0.09394
3116.85242,0.09393
3114.92367,0.09381
3112.99493,0.09381
3111.06618,0.09355
3109.13744,0.09311
3107.20869,0.09294
3105.27994,0.09316
3103.35120,0.09377
3101.42245,0.09451
3099.49371,0.09492
3097.56496,0.09506
3095.63622,0.09514
3093.70747,0.09496
3091.77873,0.09440
3089.84998,0.09371
3087.92124,0.09307
3085.99249,0.09271
3084.06375,0.09285
3082.13500,0.09333
3080.20626,0.09395
3078.27751,0.09470
3076.34877,0.09542
3074.42002,0.09586
3072.49127,0.09592
3070.56253,0.09572
3068.63378,0.09529
3066.70504,0.09450
3064.77629,0.09348
3062.84755,0.09271
3060.91880,0.09262
3058.99006,0.09320
3057.06131,0.09425
3055.13257,0.09555
3053.20382,0.09686
3051.27508,0.09808
3049.34633,0.09917
3047.41759,0.10000
3045.48884,0.10038
3043.56009,0.10029
3041.63135,0.09995
3039.70260,0.09923
3037.77386,0.09790
3035.84511,0.09611
3033.91637,0.09410
3031.98762,0.09201
3030.05888,0.09019
3028.13013,0.08925
3026.20139,0.08963
3024.27264,0.09131
3022.34390,0.09397
3020.41515,0.09707
3018.48641,0.09999
3016.55766,0.10236
3014.62892,0.10405
3012.70017,0.10512
3010.77142,0.10564
3008.84268,0.10549
3006.91393,0.10479
3004.98519,0.10413
3003.05644,0.10384
3001.12770,0.10377
2999.19895,0.10395
2997.27021,0.10442
2995.34146,0.10476
2993.41272,0.10459
2991.48397,0.10389
2989.55523,0.10262
2987.62648,0.10097
2985.69774,0.09943
2983.76899,0.09808
2981.84025,0.09663
2979.91150,0.09499
2977.98275,0.09307
2976.05401,0.09067
2974.12526,0.08796
2972.19652,0.08544
2970.26777,0.08323
2968.33903,0.08115
2966.41028,0.07921
2964.48154,0.07758
2962.55279,0.07628
2960.62405,0.07536
2958.69530,0.07514
2956.76656,0.07553
2954.83781,0.07600
2952.90907,0.07639
2950.98032,0.07688
2949.05157,0.07740
2947.12283,0.07758
2945.19408,0.07720
2943.26534,0.07638
2941.33659,0.07527
2939.40785,0.07411
2937.47910,0.07309
2935.55036,0.07207
2933.62161,0.07104
2931.69287,0.07047
2929.76412,0.07051
2927.83538,0.07099
2925.90663,0.07170
2923.97789,0.07219
2922.04914,0.07244
2920.12040,0.07309
2918.19165,0.07427
2916.26290,0.07551
2914.33416,0.07661
2912.40541,0.07770
2910.47667,0.07884
2908.54792,0.07989
2906.61918,0.08086
2904.69043,0.08199
2902.76169,0.08324
2900.83294,0.08443
2898.90420,0.08549
2896.97545,0.08639
2895.04671,0.08711
2893.11796,0.08776
2891.18922,0.08847
2889.26047,0.08942
2887.33172,0.09043
2885.40298,0.09101
2883.47423,0.09098
2881.54549,0.09060
2879.61674,0.09004
2877.68800,0.08929
2875.75925,0.08862
2873.83051,0.08831
2871.90176,0.08842
2869.97302,0.08880
2868.04427,0.08917
2866.11553,0.08932
2864.18678,0.08913
2862.25804,0.08856
2860.32929,0.08783
2858.40055,0.08740
2856.47180,0.08779
2854.54305,0.08910
2852.61431,0.09102
2850.68556,0.09334
2848.75682,0.09621
2846.82807,0.09968
2844.89933,0.10335
2842.97058,0.10698
2841.04184,0.11057
2839.11309,0.11381
2837.18435,0.11657
2835.25560,0.11903
2833.32686,0.12113
2831.39811,0.12281
2829.46937,0.12433
2827.54062,0.12585
2825.61188,0.12724
2823.68313,0.12836
2821.75438,0.12939
2819.82564,0.13055
2817.89689,0.13170
2815.96815,0.13275
2814.03940,0.13382
2812.11066,0.13494
2810.18191,0.13604
2808.25317,0.13706
2806.32442,0.13793
2804.39568,0.13875
2802.46693,0.13968
2800.53819,0.14060
2798.60944,0.14130
2796.68070,0.14183
2794.75195,0.14239
2792.82320,0.14300
2790.89446,0.14360
2788.96571,0.14421
2787.03697,0.14486
2785.10822,0.14548
2783.17948,0.14606
2781.25073,0.14653
2779.32199,0.14691
2777.39324,0.14743
2775.46450,0.14808
2773.53575,0.14869
2771.60701,0.14917
2769.67826,0.14958
2767.74952,0.15003
2765.82077,0.15048
2763.89203,0.15087
2761.96328,0.15129
2760.03453,0.15176
2758.10579,0.15205
2756.17704,0.15213
2754.24830,0.15231
2752.31955,0.15263
2750.39081,0.15290
2748.46206,0.15315
2746.53332,0.15346
2744.60457,0.15380
2742.67583,0.15411
2740.74708,0.15432
2738.81834,0.15453
2736.88959,0.15486
2734.96085,0.15519
2733.03210,0.15547
2731.10336,0.15583
2729.17461,0.15631
2727.24586,0.15668
2725.31712,0.15674
2723.38837,0.15696
2721.45963,0.15780
2719.53088,0.15882
2717.60214,0.15951
2715.67339,0.15985
2713.74465,0.16019
2711.81590,0.16078
2709.88716,0.16159
2707.95841,0.16252
2706.02967,0.16333
2704.10092,0.16384
2702.17218,0.16433
2700.24343,0.16491
2698.31468,0.16543
2696.38594,0.16587
2694.45719,0.16633
2692.52845,0.16691
2690.59970,0.16756
2688.67096,0.16813
2686.74221,0.16869
2684.81347,0.16922
2682.88472,0.16968
2680.95598,0.17016
2679.02723,0.17072
2677.09849,0.17121
2675.16974,0.17160
2673.24100,0.17198
2671.31225,0.17239
2669.38351,0.17292
2667.45476,0.17362
2665.52601,0.17423
2663.59727,0.17464
2661.66852,0.17502
2659.73978,0.17543
2657.81103,0.17578
2655.88229,0.17608
2653.95354,0.17639
2652.02480,0.17676
2650.09605,0.17720
2648.16731,0.17772
2646.23856,0.17830
2644.30982,0.17876
2642.38107,0.17906
2640.45233,0.17946
2638.52358,0.18001
2636.59484,0.18041
2634.66609,0.18057
2632.73734,0.18074
2630.80860,0.18104
2628.87985,0.18144
2626.95111,0.18185
2625.02236,0.18231
2623.09362,0.18275
2621.16487,0.18291
2619.23613,0.18272
2617.30738,0.18262
2615.37864,0.18283
2613.44989,0.18302
2611.52115,0.18300
2609.59240,0.18289
2607.66366,0.18281
2605.73491,0.18275
2603.80616,0.18270
2601.87742,0.18273
2599.94867,0.18293
2598.01993,0.18328
2596.09118,0.18365
2594.16244,0.18399
2592.23369,0.18426
2590.30495,0.18445
2588.37620,0.18469
2586.44746,0.18488
2584.51871,0.18494
2582.58997,0.18513
2580.66122,0.18544
2578.73248,0.18548
2576.80373,0.18527
2574.87499,0.18523
2572.94624,0.18548
2571.01749,0.18565
2569.08875,0.18559
2567.16000,0.18546
2565.23126,0.18542
2563.30251,0.18551
2561.37377,0.18565
2559.44502,0.18559
2557.51628,0.18523
2555.58753,0.18499
2553.65879,0.18495
2551.73004,0.18478
2549.80130,0.18443
2547.87255,0.18405
2545.94381,0.18364
2544.01506,0.18333
2542.08631,0.18314
2540.15757,0.18282
2538.22882,0.18232
2536.30008,0.18170
2534.37133,0.18094
2532.44259,0.18005
2530.51384,0.17910
2528.58510,0.17818
2526.65635,0.17731
2524.72761,0.17647
2522.79886,0.17569
2520.87012,0.17507
2518.94137,0.17471
2517.01263,0.17462
2515.08388,0.17476
2513.15514,0.17506
2511.22639,0.17545
2509.29764,0.17596
2507.36890,0.17668
2505.44015,0.17757
2503.51141,0.17873
2501.58266,0.18036
2499.65392,0.18238
2497.72517,0.18438
2495.79643,0.18622
2493.86768,0.18800
2491.93894,0.18966
2490.01019,0.19127
2488.08145,0.19282
2486.15270,0.19417
2484.22396,0.19539
2482.29521,0.19665
2480.36647,0.19789
2478.43772,0.19897
2476.50897,0.19994
2474.58023,0.20093
2472.65148,0.20189
2470.72274,0.20259
2468.79399,0.20308
2466.86525,0.20365
2464.93650,0.20431
2463.00776,0.20490
2461.07901,0.20535
2459.15027,0.20566
2457.22152,0.20593
2455.29278,0.20620
2453.36403,0.20650
2451.43529,0.20695
2449.50654,0.20741
2447.57779,0.20763
2445.64905,0.20772
2443.72030,0.20803
2441.79156,0.20856
2439.86281,0.20896
2437.93407,0.20912
2436.00532,0.20917
2434.07658,0.20929
2432.14783,0.20946
2430.21909,0.20953
2428.29034,0.20963
2426.36160,0.20988
2424.43285,0.21015
2422.50411,0.21027
2420.57536,0.21034
2418.64662,0.21046
2416.71787,0.21062
2414.78912,0.21070
2412.86038,0.21072
2410.93163,0.21072
2409.00289,0.21076
2407.07414,0.21093
2405.14540,0.21109
2403.21665,0.21106
2401.28791,0.21088
2399.35916,0.21066
2397.43042,0.21055
2395.50167,0.21068
2393.57293,0.21088
2391.64418,0.21089
2389.71544,0.21075
2387.78669,0.21066
2385.85795,0.21062
2383.92920,0.21061
2382.00045,0.21062
2380.07171,0.21060
2378.14296,0.21061
2376.21422,0.21062
2374.28547,0.21056
2372.35673,0.21050
2370.42798,0.21046
2368.49924,0.21036
2366.57049,0.21019
2364.64175,0.21000
2362.71300,0.20982
2360.78426,0.20963
2358.85551,0.20946
2356.92677,0.20926
2354.99802,0.20908
2353.06927,0.20901
2351.14053,0.20893
2349.21178,0.20870
2347.28304,0.20844
2345.35429,0.20825
2343.42555,0.20803
2341.49680,0.20762
2339.56806,0.20712
2337.63931,0.20693
2335.71057,0.20727
2333.78182,0.20772
2331.85308,0.20784
2329.92433,0.20774
2327.99559,0.20769
2326.06684,0.20766
2324.13810,0.20755
2322.20935,0.20737
2320.28060,0.20711
2318.35186,0.20682
2316.42311,0.20660
2314.49437,0.20638
2312.56562,0.20605
2310.63688,0.20584
2308.70813,0.20591
2306.77939,0.20601
2304.85064,0.20601
2302.92190,0.20604
2300.99315,0.20596
2299.06441,0.20552
2297.13566,0.20500
2295.20692,0.20480
2293.27817,0.20487
2291.34943,0.20485
2289.42068,0.20466
2287.49193,0.20447
2285.56319,0.20436
2283.63444,0.20424
2281.70570,0.20402
2279.77695,0.20370
2277.84821,0.20346
2275.91946,0.20330
2273.99072,0.20294
2272.06197,0.20230
2270.13323,0.20165
2268.20448,0.20120
2266.27574,0.20091
2264.34699,0.20051
2262.41825,0.19996
2260.48950,0.19957
2258.56075,0.19937
2256.63201,0.19918
2254.70326,0.19885
2252.77452,0.19846
2250.84577,0.19820
2248.91703,0.19807
2246.98828,0.19800
2245.05954,0.19786
2243.13079,0.19757
2241.20205,0.19725
2239.27330,0.19701
2237.34456,0.19688
2235.41581,0.19683
2233.48707,0.19679
2231.55832,0.19673
2229.62958,0.19664
2227.70083,0.19652
2225.77208,0.19644
2223.84334,0.19651
2221.91459,0.19669
2219.98585,0.19682
2218.05710,0.19696
2216.12836,0.19713
2214.19961,0.19729
2212.27087,0.19747
2210.34212,0.19765
2208.41338,0.19777
2206.48463,0.19787
2204.55589,0.19799
2202.62714,0.19804
2200.69840,0.19796
2198.76965,0.19785
2196.84090,0.19775
2194.91216,0.19767
2192.98341,0.19772
2191.05467,0.19776
2189.12592,0.19759
2187.19718,0.19737
2185.26843,0.19730
2183.33969,0.19723
2181.41094,0.19697
2179.48220,0.19653
2177.55345,0.19602
2175.62471,0.19558
2173.69596,0.19532
2171.76722,0.19513
2169.83847,0.19485
2167.90973,0.19439
2165.98098,0.19382
2164.05223,0.19331
2162.12349,0.19299
2160.19474,0.19279
2158.26600,0.19263
2156.33725,0.19233
2154.40851,0.19186
2152.47976,0.19140
2150.55102,0.19109
2148.62227,0.19087
2146.69353,0.19066
2144.76478,0.19039
2142.83604,0.19002
2140.90729,0.18960
2138.97855,0.18930
2137.04980,0.18917
2135.12106,0.18918
2133.19231,0.18937
2131.26356,0.18973
2129.33482,0.19002
2127.40607,0.19022
2125.47733,0.19046
2123.54858,0.19064
2121.61984,0.19072
2119.69109,0.19085
2117.76235,0.19120
2115.83360,0.19170
2113.90486,0.19207
2111.97611,0.19223
2110.04737,0.19237
2108.11862,0.19262
2106.18988,0.19287
2104.26113,0.19308
2102.33238,0.19326
2100.40364,0.19338
2098.47489,0.19342
2096.54615,0.19347
2094.61740,0.19351
2092.68866,0.19346
2090.75991,0.19340
2088.83117,0.19350
2086.90242,0.19366
2084.97368,0.19373
2083.04493,0.19370
2081.11619,0.19368
2079.18744,0.19365
2077.25870,0.19349
2075.32995,0.19322
2073.40121,0.19298
2071.47246,0.19283
2069.54371,0.19270
2067.61497,0.19255
2065.68622,0.19239
2063.75748,0.19222
2061.82873,0.19205
2059.89999,0.19191
2057.97124,0.19164
2056.04250,0.19116
2054.11375,0.19066
2052.18501,0.19016
2050.25626,0.18955
2048.32752,0.18888
2046.39877,0.18816
2044.47003,0.18734
2042.54128,0.18640
2040.61254,0.18535
2038.68379,0.18424
2036.75504,0.18323
2034.82630,0.18247
2032.89755,0.18191
2030.96881,0.18139
2029.04006,0.18077
2027.11132,0.18005
2025.18257,0.17952
2023.25383,0.17925
2021.32508,0.17898
2019.39634,0.17852
2017.46759,0.17792
2015.53885,0.17728
2013.61010,0.17652
2011.68136,0.17550
2009.75261,0.17430
2007.82386,0.17317
2005.89512,0.17224
2003.96637,0.17157
2002.03763,0.17116
2000.10888,0.17084
1998.18014,0.17054
1996.25139,0.17023
1994.32265,0.16988
1992.39390,0.16960
1990.46516,0.16953
1988.53641,0.16953
1986.60767,0.16937
1984.67892,0.16908
1982.75018,0.16879
1980.82143,0.16860
1978.89269,0.16840
1976.96394,0.16811
1975.03519,0.16785
1973.10645,0.16764
1971.17770,0.16743
1969.24896,0.16713
1967.32021,0.16668
1965.39147,0.16618
1963.46272,0.16577
1961.53398,0.16526
1959.60523,0.16464
1957.67649,0.16418
1955.74774,0.16389
1953.81900,0.16358
1951.89025,0.16307
1949.96151,0.16236
1948.03276,0.16171
1946.10402,0.16135
1944.17527,0.16134
1942.24652,0.16164
1940.31778,0.16207
1938.38903,0.16258
1936.46029,0.16336
1934.53154,0.16444
1932.60280,0.16552
1930.67405,0.16629
1928.74531,0.16670
1926.81656,0.16680
1924.88782,0.16675
1922.95907,0.16667
1921.03033,0.16655
1919.10158,0.16628
1917.17284,0.16567
1915.24409,0.16468
1913.31534,0.16352
1911.38660,0.16242
1909.45785,0.16132
1907.52911,0.15990
1905.60036,0.15817
1903.67162,0.15649
1901.74287,0.15510
1899.81413,0.15383
1897.88538,0.15247
1895.95664,0.15112
1894.02789,0.14976
1892.09915,0.14833
1890.17040,0.14696
1888.24166,0.14592
1886.31291,0.14515
1884.38417,0.14436
1882.45542,0.14350
1880.52667,0.14279
1878.59793,0.14221
1876.66918,0.14164
1874.74044,0.14113
1872.81169,0.14071
1870.88295,0.14037
1868.95420,0.14031
1867.02546,0.14070
1865.09671,0.14155
1863.16797,0.14274
1861.23922,0.14414
1859.31048,0.14568
1857.38173,0.14734
1855.45299,0.14905
1853.52424,0.15078
1851.59549,0.15252
1849.66675,0.15412
1847.73800,0.15537
1845.80926,0.15627
1843.88051,0.15693
1841.95177,0.15724
1840.02302,0.15712
1838.09428,0.15672
1836.16553,0.15612
1834.23679,0.15534
1832.30804,0.15442
1830.37930,0.15327
1828.45055,0.15189
1826.52181,0.15040
1824.59306,0.14883
1822.66432,0.14733
1820.73557,0.14594
1818.80682,0.14439
1816.87808,0.14258
1814.94933,0.14074
1813.02059,0.13904
1811.09184,0.13734
1809.16310,0.13541
1807.23435,0.13319
1805.30561,0.13074
1803.37686,0.12814
1801.44812,0.12543
1799.51937,0.12301
1797.59063,0.12161
1795.66188,0.12138
1793.73314,0.12187
1791.80439,0.12276
1789.87565,0.12395
1787.94690,0.12535
1786.01815,0.12674
1784.08941,0.12779
1782.16066,0.12850
1780.23192,0.12908
1778.30317,0.12950
1776.37443,0.12967
1774.44568,0.12970
1772.51694,0.12965
1770.58819,0.12946
1768.65945,0.12920
1766.73070,0.12880
1764.80196,0.12810
1762.87321,0.12707
1760.94447,0.12583
1759.01572,0.12435
1757.08697,0.12235
1755.15823,0.11998
1753.22948,0.11747
1751.30074,0.11434
1749.37199,0.11031
1747.44325,0.10561
1745.51450,0.10006
1743.58576,0.09367
1741.65701,0.08670
1739.72827,0.07949
1737.79952,0.07330
1735.87078,0.06885
1733.94203,0.06573
1732.01329,0.06438
1730.08454,0.06479
1728.15580,0.06648
1726.22705,0.06917
1724.29830,0.07278
1722.36956,0.07698
1720.44081,0.08118
1718.51207,0.08526
1716.58332,0.08883
1714.65458,0.09108
1712.72583,0.09213
1710.79709,0.09244
1708.86834,0.09237
1706.93960,0.09198
1705.01085,0.09132
1703.08211,0.09063
1701.15336,0.08972
1699.22462,0.08852
1697.29587,0.08754
1695.36713,0.08640
1693.43838,0.08497
1691.50963,0.08370
1689.58089,0.08262
1687.65214,0.08169
1685.72340,0.08069
1683.79465,0.07955
1681.86591,0.07869
1679.93716,0.07798
1678.00842,0.07710
1676.07967,0.07608
1674.15093,0.07512
1672.22218,0.07438
1670.29344,0.07374
1668.36469,0.07308
1666.43595,0.07243
1664.50720,0.07177
1662.57845,0.07114
1660.64971,0.07065
1658.72096,0.07034
1656.79222,0.07018
1654.86347,0.06986
1652.93473,0.06916
1651.00598,0.06879
1649.07724,0.06873
1647.14849,0.06833
1645.21975,0.06764
1643.29100,0.06708
1641.36226,0.06675
1639.43351,0.06656
1637.50477,0.06629
1635.57602,0.06582
1633.64728,0.06532
1631.71853,0.06495
1629.78978,0.06456
1627.86104,0.06408
1625.93229,0.06365
1624.00355,0.06324
1622.07480,0.06282
1620.14606,0.06252
1618.21731,0.06233
1616.28857,0.06211
1614.35982,0.06176
1612.43108,0.06131
1610.50233,0.06086
1608.57359,0.06033
1606.64484,0.05959
1604.71610,0.05875
1602.78735,0.05810
1600.85861,0.05797
1598.92986,0.05842
1597.00111,0.05914
1595.07237,0.05969
1593.14362,0.05982
1591.21488,0.05965
1589.28613,0.05947
1587.35739,0.05931
1585.42864,0.05916
1583.49990,0.05922
1581.57115,0.05958
1579.64241,0.06000
1577.71366,0.06023
1575.78492,0.06031
1573.85617,0.06047
1571.92743,0.06081
1569.99868,0.06119
1568.06993,0.06137
1566.14119,0.06144
1564.21244,0.06167
1562.28370,0.06205
1560.35495,0.06248
1558.42621,0.06306
1556.49746,0.06370
1554.56872,0.06415
1552.63997,0.06447
1550.71123,0.06490
1548.78248,0.06544
1546.85374,0.06586
1544.92499,0.06630
1542.99625,0.06691
1541.06750,0.06755
1539.13876,0.06799
1537.21001,0.06831
1535.28126,0.06868
1533.35252,0.06918
1531.42377,0.06972
1529.49503,0.07024
1527.56628,0.07081
1525.63754,0.07134
1523.70879,0.07164
1521.78005,0.07157
1519.85130,0.07128
1517.92256,0.07094
1515.99381,0.07050
1514.06507,0.07014
1512.13632,0.06994
1510.20758,0.06974
1508.27883,0.06948
1506.35008,0.06894
1504.42134,0.06791
1502.49259,0.06652
1500.56385,0.06466
1498.63510,0.06218
1496.70636,0.05959
1494.77761,0.05826
1492.84887,0.05891
1490.92012,0.06090
1488.99138,0.06272
1487.06263,0.06334
1485.13389,0.06324
1483.20514,0.06291
1481.27640,0.06236
1479.34765,0.06173
1477.41891,0.06107
1475.49016,0.06023
1473.56141,0.05897
1471.63267,0.05736
1469.70392,0.05598
1467.77518,0.05515
1465.84643,0.05467
1463.91769,0.05421
1461.98894,0.05379
1460.06020,0.05353
1458.13145,0.05315
1456.20271,0.05240
1454.27396,0.05197
1452.34522,0.05240
1450.41647,0.05339
1448.48773,0.05441
1446.55898,0.05519
1444.63024,0.05577
1442.70149,0.05623
1440.77274,0.05664
1438.84400,0.05710
1436.91525,0.05749
1434.98651,0.05763
1433.05776,0.05770
1431.12902,0.05779
1429.20027,0.05782
1427.27153,0.05787
1425.34278,0.05793
1423.41404,0.05796
1421.48529,0.05795
1419.55655,0.05790
1417.62780,0.05801
1415.69906,0.05837
1413.77031,0.05883
1411.84156,0.05944
1409.91282,0.06018
1407.98407,0.06087
1406.05533,0.06147
1404.12658,0.06194
1402.19784,0.06222
1400.26909,0.06253
1398.34035,0.06301
1396.41160,0.06357
1394.48286,0.06413
1392.55411,0.06474
1390.62537,0.06532
1388.69662,0.06566
1386.76788,0.06576
1384.83913,0.06572
1382.91039,0.06549
1380.98164,0.06520
1379.05289,0.06518
1377.12415,0.06556
1375.19540,0.06609
1373.26666,0.06638
1371.33791,0.06653
1369.40917,0.06679
1367.48042,0.06713
1365.55168,0.06745
1363.62293,0.06783
1361.69419,0.06815
1359.76544,0.06827
1357.83670,0.06839
1355.90795,0.06866
1353.97921,0.06904
1352.05046,0.06952
1350.12172,0.07016
1348.19297,0.07091
1346.26422,0.07152
1344.33548,0.07175
1342.40673,0.07181
1340.47799,0.07191
1338.54924,0.07191
1336.62050,0.07181
1334.69175,0.07179
1332.76301,0.07197
1330.83426,0.07221
1328.90552,0.07232
1326.97677,0.07227
1325.04803,0.07220
1323.11928,0.07224
1321.19054,0.07232
1319.26179,0.07225
1317.33304,0.07222
1315.40430,0.07250
1313.47555,0.07306
1311.54681,0.07387
1309.61806,0.07479
1307.68932,0.07565
1305.76057,0.07643
1303.83183,0.07716
1301.90308,0.07790
1299.97434,0.07859
1298.04559,0.07893
1296.11685,0.07896
1294.18810,0.07895
1292.25936,0.07882
1290.33061,0.07840
1288.40187,0.07782
1286.47312,0.07733
1284.54437,0.07688
1282.61563,0.07642
1280.68688,0.07612
1278.75814,0.07612
1276.82939,0.07635
1274.90065,0.07655
1272.97190,0.07661
1271.04316,0.07672
1269.11441,0.07687
1267.18567,0.07688
1265.25692,0.07677
1263.32818,0.07677
1261.39943,0.07703
1259.47069,0.07741
1257.54194,0.07775
1255.61320,0.07813
1253.68445,0.07846
1251.75570,0.07862
1249.82696,0.07880
1247.89821,0.07908
1245.96947,0.07925
1244.04072,0.07938
1242.11198,0.07969
1240.18323,0.08016
1238.25449,0.08072
1236.32574,0.08123
1234.39700,0.08158
1232.46825,0.08187
1230.53951,0.08229
1228.61076,0.08273
1226.68202,0.08307
1224.75327,0.08335
1222.82452,0.08339
1220.89578,0.08290
1218.96703,0.08203
1217.03829,0.08106
1215.10954,0.08002
1213.18080,0.07895
1211.25205,0.07781
1209.32331,0.07660
1207.39456,0.07559
1205.46582,0.07496
1203.53707,0.07457
1201.60833,0.07430
1199.67958,0.07418
1197.75084,0.07415
1195.82209,0.07393
1193.89335,0.07343
1191.96460,0.07285
1190.03585,0.07256
1188.10711,0.07245
1186.17836,0.07218
1184.24962,0.07181
1182.32087,0.07145
1180.39213,0.07109
1178.46338,0.07082
1176.53464,0.07057
1174.60589,0.07043
1172.67715,0.07046
1170.74840,0.07062
1168.81966,0.07081
1166.89091,0.07075
1164.96217,0.07020
1163.03342,0.06940
1161.10467,0.06892
1159.17593,0.06921
1157.24718,0.07018
1155.31844,0.07145
1153.38969,0.07287
1151.46095,0.07427
1149.53220,0.07544
1147.60346,0.07642
1145.67471,0.07732
1143.74597,0.07807
1141.81722,0.07873
1139.88848,0.07952
1137.95973,0.08027
1136.03099,0.08061
1134.10224,0.08066
1132.17350,0.08075
1130.24475,0.08085
1128.31600,0.08089
1126.38726,0.08093
1124.45851,0.08102
1122.52977,0.08118
1120.60102,0.08139
1118.67228,0.08154
1116.74353,0.08168
1114.81479,0.08203
1112.88604,0.08267
1110.95730,0.08349
1109.02855,0.08437
1107.09981,0.08498
1105.17106,0.08536
1103.24232,0.08597
1101.31357,0.08692
1099.38483,0.08784
1097.45608,0.08854
1095.52733,0.08917
1093.59859,0.08979
1091.66984,0.09044
1089.74110,0.09118
1087.81235,0.09202
1085.88361,0.09281
1083.95486,0.09336
1082.02612,0.09352
1080.09737,0.09342
1078.16863,0.09342
1076.23988,0.09354
1074.31114,0.09363
1072.38239,0.09370
1070.45365,0.09371
1068.52490,0.09353
1066.59615,0.09303
1064.66741,0.09218
1062.73866,0.09127
1060.80992,0.09082
1058.88117,0.09080
1056.95243,0.09065
1055.02368,0.09049
1053.09494,0.09107
1051.16619,0.09248
1049.23745,0.09404
1047.30870,0.09546
1045.37996,0.09712
1043.45121,0.09923
1041.52247,0.10136
1039.59372,0.10306
1037.66498,0.10442
1035.73623,0.10568
1033.80748,0.10683
1031.87874,0.10801
1029.94999,0.10939
1028.02125,0.11067
1026.09250,0.11177
1024.16376,0.11300
1022.23501,0.11415
1020.30627,0.11461
1018.37752,0.11431
1016.44878,0.11339
1014.52003,0.11174
1012.59129,0.10941
1010.66254,0.10674
1008.73380,0.10392
1006.80505,0.10096
1004.87631,0.09810
1002.94756,0.09585
1001.01881,0.09421
999.09007,0.09274
997.16132,0.09136
995.23258,0.09010
993.30383,0.08900
991.37509,0.08798
989.44634,0.08694
987.51760,0.08592
985.58885,0.08494
983.66011,0.08392
981.73136,0.08290
979.80262,0.08202
977.87387,0.08127
975.94513,0.08043
974.01638,0.07931
972.08763,0.07803
970.15889,0.07685
968.23014,0.07587
966.30140,0.07506
964.37265,0.07434
962.44391,0.07377
960.51516,0.07337
958.58642,0.07294
956.65767,0.07242
954.72893,0.07203
952.80018,0.07178
950.87144,0.07169
948.94269,0.07180
947.01395,0.07183
945.08520,0.07152
943.15646,0.07098
941.22771,0.07057
939.29896,0.07056
937.37022,0.07059
935.44147,0.07025
933.51273,0.06986
931.58398,0.06984
929.65524,0.06994
927.72649,0.06976
925.79775,0.06943
923.86900,0.06921
921.94026,0.06908
920.01151,0.06877
918.08277,0.06805
916.15402,0.06720
914.22528,0.06656
912.29653,0.06615
910.36779,0.06594
908.43904,0.06581
906.51029,0.06553
904.58155,0.06502
902.65280,0.06455
900.72406,0.06447
898.79531,0.06437
896.86657,0.06384
894.93782,0.06334
893.00908,0.06328
891.08033,0.06340
889.15159,0.06340
887.22284,0.06344
885.29410,0.06349
883.36535,0.06314
881.43661,0.06230
879.50786,0.06121
877.57911,0.06014
875.65037,0.05955
873.72162,0.05975
871.79288,0.06041
869.86413,0.06105
867.93539,0.06141
866.00664,0.06145
864.07790,0.06140
862.14915,0.06135
860.22041,0.06115
858.29166,0.06094
856.36292,0.06094
854.43417,0.06089
852.50543,0.06038
850.57668,0.05959
848.64794,0.05888
846.71919,0.05833
844.79044,0.05790
842.86170,0.05743
840.93295,0.05670
839.00421,0.05593
837.07546,0.05565
835.14672,0.05568
833.21797,0.05531
831.28923,0.05456
829.36048,0.05390
827.43174,0.05329
825.50299,0.05255
823.57425,0.05181
821.64550,0.05122
819.71676,0.05071
817.78801,0.05006
815.85926,0.04930
813.93052,0.04865
812.00177,0.04827
810.07303,0.04825
808.14428,0.04845
806.21554,0.04860
804.28679,0.04866
802.35805,0.04853
800.42930,0.04824
798.50056,0.04793
796.57181,0.04760
794.64307,0.04729
792.71432,0.04720
790.78558,0.04717
788.85683,0.04698
786.92809,0.04679
784.99934,0.04666
783.07059,0.04646
781.14185,0.04617
779.21310,0.04585
777.28436,0.04544
775.35561,0.04495
773.42687,0.04463
771.49812,0.04458
769.56938,0.04454
767.64063,0.04438
765.71189,0.04450
763.78314,0.04501
761.85440,0.04525
759.92565,0.04485
757.99691,0.04431
756.06816,0.04405
754.13942,0.04386
752.21067,0.04343
750.28192,0.04287
748.35318,0.04259
746.42443,0.04313
744.49569,0.04409
742.56694,0.04426
740.63820,0.04364
738.70945,0.04302
736.78071,0.04276
734.85196,0.04283
732.92322,0.04293
730.99447,0.04290
729.06573,0.04276
727.13698,0.04267
725.20824,0.04278
723.27949,0.04291
721.35074,0.04315
719.42200,0.04367
717.49325,0.04427
715.56451,0.04472
713.63576,0.04490
711.70702,0.04475
709.77827,0.04457
707.84953,0.04509
705.92078,0.04677
703.99204,0.04925
702.06329,0.05180
700.13455,0.05391
698.20580,0.05504
696.27706,0.05471
694.34831,0.05345
692.41957,0.05267
690.49082,0.05327
688.56207,0.05480
686.63333,0.05654
684.70458,0.05839
682.77584,0.06019
680.84709,0.06176
678.91835,0.06363
676.98960,0.06652
675.06086,0.07040
673.13211,0.07432
671.20337,0.07690
669.27462,0.07696
667.34588,0.07433
665.41713,0.07075
663.48839,0.06805
661.55964,0.06609
659.63090,0.06436
657.70215,0.06337
655.77340,0.06346
653.84466,0.06374
651.91591,0.06306
649.98717,0.06160
648.05842,0.06055
646.12968,0.06047
644.20093,0.06080
642.27219,0.06049
640.34344,0.05895
638.41470,0.05685
636.48595,0.05538
634.55721,0.05512
632.62846,0.05562
630.69972,0.05580
628.77097,0.05563
626.84222,0.05594
624.91348,0.05696
622.98473,0.05816
621.05599,0.05880
619.12724,0.05891
617.19850,0.05883
615.26975,0.05867
613.34101,0.05873
611.41226,0.05878
609.48352,0.05821
607.55477,0.05703
605.62603,0.05638
603.69728,0.05745
601.76854,0.05963
599.83979,0.06151
