7497.03301,0.50307
7495.10426,0.50718
7493.17552,0.50914
7491.24677,0.51019
7489.31803,0.50966
7487.38928,0.50514
7485.46054,0.49957
7483.53179,0.49753
7481.60305,0.49942
7479.67430,0.50255
7477.74556,0.50430
7475.81681,0.50486
7473.88807,0.50600
7471.95932,0.50685
7470.03057,0.50556
7468.10183,0.50360
7466.17308,0.50200
7464.24434,0.49900
7462.31559,0.49507
7460.38685,0.49332
7458.45810,0.49550
7456.52936,0.49983
7454.60061,0.50230
7452.67187,0.50193
7450.74312,0.50122
7448.81438,0.50208
7446.88563,0.50217
7444.95689,0.49926
7443.02814,0.49793
7441.09940,0.50000
7439.17065,0.50046
7437.24190,0.50053
7435.31316,0.50371
7433.38441,0.50388
7431.45567,0.49732
7429.52692,0.49109
7427.59818,0.49107
7425.66943,0.49666
7423.74069,0.50242
7421.81194,0.50542
7419.88320,0.50673
7417.95445,0.50474
7416.02571,0.50209
7414.09696,0.50343
7412.16822,0.50529
7410.23947,0.50360
7408.31073,0.49964
7406.38198,0.49533
7404.45323,0.49121
7402.52449,0.49048
7400.59574,0.49530
7398.66700,0.50071
7396.73825,0.50223
7394.80951,0.50161
7392.88076,0.50209
7390.95202,0.50431
7389.02327,0.50510
7387.09453,0.50253
7385.16578,0.50102
7383.23704,0.50205
7381.30829,0.50226
7379.37955,0.50300
7377.45080,0.50409
7375.52205,0.50343
7373.59331,0.50252
7371.66456,0.49805
7369.73582,0.48865
7367.80707,0.48373
7365.87833,0.48714
7363.94958,0.49236
7362.02084,0.49711
7360.09209,0.50143
7358.16335,0.50263
7356.23460,0.50298
7354.30586,0.50451
7352.37711,0.50427
7350.44837,0.50213
7348.51962,0.50089
7346.59088,0.50279
7344.66213,0.50723
7342.73338,0.50947
7340.80464,0.50681
7338.87589,0.50382
7336.94715,0.50380
7335.01840,0.50455
7333.08966,0.50596
7331.16091,0.50720
7329.23217,0.50421
7327.30342,0.49862
7325.37468,0.49602
7323.44593,0.49536
7321.51719,0.49354
7319.58844,0.49291
7317.65970,0.49405
7315.73095,0.49277
7313.80221,0.48966
7311.87346,0.48954
7309.94471,0.49182
7308.01597,0.49357
7306.08722,0.49573
7304.15848,0.49741
7302.22973,0.49674
7300.30099,0.49615
7298.37224,0.49782
7296.44350,0.49950
7294.51475,0.49797
7292.58601,0.49382
7290.65726,0.49007
7288.72852,0.49063
7286.79977,0.49604
7284.87103,0.50008
7282.94228,0.50055
7281.01353,0.50031
7279.08479,0.49948
7277.15604,0.49894
7275.22730,0.49850
7273.29855,0.49718
7271.36981,0.49920
7269.44106,0.50373
7267.51232,0.50311
7265.58357,0.49806
7263.65483,0.49455
7261.72608,0.49428
7259.79734,0.49580
7257.86859,0.49579
7255.93985,0.49331
7254.01110,0.49164
7252.08236,0.49197
7250.15361,0.49165
7248.22486,0.49115
7246.29612,0.49271
7244.36737,0.49451
7242.43863,0.49646
7240.50988,0.49990
7238.58114,0.50147
7236.65239,0.50027
7234.72365,0.49948
7232.79490,0.49882
7230.86616,0.49714
7228.93741,0.49661
7227.00867,0.49757
7225.07992,0.49721
7223.15118,0.49522
7221.22243,0.49509
7219.29369,0.49781
7217.36494,0.50103
7215.43619,0.50390
7213.50745,0.50539
7211.57870,0.50417
7209.64996,0.50163
7207.72121,0.49924
7205.79247,0.49746
7203.86372,0.49589
7201.93498,0.49391
7200.00623,0.49224
7198.07749,0.49064
7196.14874,0.48908
7194.22000,0.48938
7192.29125,0.49012
7190.36251,0.48895
7188.43376,0.48710
7186.50501,0.48503
7184.57627,0.48190
7182.64752,0.47990
7180.71878,0.48201
7178.79003,0.48719
7176.86129,0.49263
7174.93254,0.49605
7173.00380,0.49524
7171.07505,0.49224
7169.14631,0.49201
7167.21756,0.49478
7165.28882,0.49684
7163.36007,0.49621
7161.43133,0.49263
7159.50258,0.48836
7157.57384,0.48711
7155.64509,0.48678
7153.71634,0.48494
7151.78760,0.48605
7149.85885,0.49010
7147.93011,0.49070
7146.00136,0.48755
7144.07262,0.48459
7142.14387,0.48281
7140.21513,0.48328
7138.28638,0.48528
7136.35764,0.48499
7134.42889,0.48317
7132.50015,0.48270
7130.57140,0.48345
7128.64266,0.48547
7126.71391,0.48863
7124.78516,0.49123
7122.85642,0.49265
7120.92767,0.49228
7118.99893,0.48891
7117.07018,0.48587
7115.14144,0.48690
7113.21269,0.48837
7111.28395,0.48746
7109.35520,0.48667
7107.42646,0.48616
7105.49771,0.48416
7103.56897,0.48279
7101.64022,0.48388
7099.71148,0.48440
7097.78273,0.48228
7095.85399,0.47941
7093.92524,0.47763
7091.99649,0.47785
7090.06775,0.48108
7088.13900,0.48758
7086.21026,0.49395
7084.28151,0.49450
7082.35277,0.48940
7080.42402,0.48520
7078.49528,0.48469
7076.56653,0.48511
7074.63779,0.48451
7072.70904,0.48317
7070.78030,0.48314
7068.85155,0.48505
7066.92281,0.48472
7064.99406,0.48166
7063.06532,0.48032
7061.13657,0.48153
7059.20782,0.48334
7057.27908,0.48352
7055.35033,0.48303
7053.42159,0.48549
7051.49284,0.48853
7049.56410,0.48813
7047.63535,0.48561
7045.70661,0.48231
7043.77786,0.47929
7041.84912,0.47872
7039.92037,0.48036
7037.99163,0.48194
7036.06288,0.48240
7034.13414,0.48306
7032.20539,0.48470
7030.27664,0.48607
7028.34790,0.48639
7026.41915,0.48505
7024.49041,0.48241
7022.56166,0.48014
7020.63292,0.47887
7018.70417,0.47898
7016.77543,0.48056
7014.84668,0.48149
7012.91794,0.47950
7010.98919,0.47538
7009.06045,0.47277
7007.13170,0.47417
7005.20296,0.47772
7003.27421,0.48064
7001.34547,0.48357
6999.41672,0.48569
6997.48797,0.48443
6995.55923,0.48280
6993.63048,0.48423
6991.70174,0.48633
6989.77299,0.48670
6987.84425,0.48617
6985.91550,0.48670
6983.98676,0.48809
6982.05801,0.48714
6980.12927,0.48386
6978.20052,0.48160
6976.27178,0.48032
6974.34303,0.47904
6972.41429,0.47905
6970.48554,0.48056
6968.55680,0.48296
6966.62805,0.48552
6964.69930,0.48638
6962.77056,0.48595
6960.84181,0.48684
6958.91307,0.48836
6956.98432,0.48764
6955.05558,0.48456
6953.12683,0.48248
6951.19809,0.48354
6949.26934,0.48487
6947.34060,0.48388
6945.41185,0.48297
6943.48311,0.48435
6941.55436,0.48645
6939.62562,0.48767
6937.69687,0.48754
6935.76812,0.48697
6933.83938,0.48706
6931.91063,0.48631
6929.98189,0.48508
6928.05314,0.48438
6926.12440,0.48309
6924.19565,0.48309
6922.26691,0.48452
6920.33816,0.48483
6918.40942,0.48589
6916.48067,0.48827
6914.55193,0.48838
6912.62318,0.48553
6910.69444,0.48279
6908.76569,0.48162
6906.83695,0.48156
6904.90820,0.48260
6902.97945,0.48381
6901.05071,0.48396
6899.12196,0.48441
6897.19322,0.48674
6895.26447,0.48856
6893.33573,0.48706
6891.40698,0.48510
6889.47824,0.48582
6887.54949,0.48651
6885.62075,0.48550
6883.69200,0.48482
6881.76326,0.48628
6879.83451,0.48969
6877.90577,0.49006
6875.97702,0.48551
6874.04828,0.48322
6872.11953,0.48596
6870.19078,0.48854
6868.26204,0.48751
6866.33329,0.48454
6864.40455,0.48340
6862.47580,0.48518
6860.54706,0.48788
6858.61831,0.48914
6856.68957,0.48825
6854.76082,0.48693
6852.83208,0.48656
6850.90333,0.48677
6848.97459,0.48701
6847.04584,0.48754
6845.11710,0.48845
6843.18835,0.48901
6841.25960,0.48883
6839.33086,0.48838
6837.40211,0.48767
6835.47337,0.48552
6833.54462,0.48258
6831.61588,0.48294
6829.68713,0.48670
6827.75839,0.48753
6825.82964,0.48488
6823.90090,0.48485
6821.97215,0.48783
6820.04341,0.49010
6818.11466,0.49030
6816.18592,0.48813
6814.25717,0.48634
6812.32843,0.48823
6810.39968,0.49068
6808.47093,0.48911
6806.54219,0.48486
6804.61344,0.48206
6802.68470,0.48206
6800.75595,0.48384
6798.82721,0.48684
6796.89846,0.48942
6794.96972,0.48879
6793.04097,0.48602
6791.11223,0.48495
6789.18348,0.48602
6787.25474,0.48681
6785.32599,0.48716
6783.39725,0.48829
6781.46850,0.49021
6779.53975,0.49181
6777.61101,0.49138
6775.68226,0.48999
6773.75352,0.48996
6771.82477,0.49039
6769.89603,0.49069
6767.96728,0.49091
6766.03854,0.48911
6764.10979,0.48583
6762.18105,0.48501
6760.25230,0.48687
6758.32356,0.48782
6756.39481,0.48769
6754.46607,0.48845
6752.53732,0.48912
6750.60858,0.48874
6748.67983,0.48851
6746.75108,0.48859
6744.82234,0.48815
6742.89359,0.48754
6740.96485,0.48673
6739.03610,0.48648
6737.10736,0.48905
6735.17861,0.49222
6733.24987,0.49144
6731.32112,0.48896
6729.39238,0.48887
6727.46363,0.49005
6725.53489,0.49059
6723.60614,0.49031
6721.67740,0.48995
6719.74865,0.49038
6717.81991,0.49039
6715.89116,0.48877
6713.96241,0.48681
6712.03367,0.48563
6710.10492,0.48506
6708.17618,0.48390
6706.24743,0.48162
6704.31869,0.48113
6702.38994,0.48425
6700.46120,0.48859
6698.53245,0.49222
6696.60371,0.49530
6694.67496,0.49754
6692.74622,0.49672
6690.81747,0.49360
6688.88873,0.49312
6686.95998,0.49493
6685.03123,0.49415
6683.10249,0.49103
6681.17374,0.48972
6679.24500,0.49070
6677.31625,0.49076
6675.38751,0.48988
6673.45876,0.49044
6671.53002,0.49206
6669.60127,0.49344
6667.67253,0.49429
6665.74378,0.49453
6663.81504,0.49482
6661.88629,0.49574
6659.95755,0.49581
6658.02880,0.49391
6656.10006,0.49101
6654.17131,0.48916
6652.24256,0.48984
6650.31382,0.49124
6648.38507,0.49216
6646.45633,0.49321
6644.52758,0.49246
6642.59884,0.49032
6640.67009,0.49020
6638.74135,0.49121
6636.81260,0.49092
6634.88386,0.49057
6632.95511,0.49120
6631.02637,0.49145
6629.09762,0.49125
6627.16888,0.49117
6625.24013,0.49114
6623.31139,0.49154
6621.38264,0.49162
6619.45389,0.49088
6617.52515,0.49112
6615.59640,0.49276
6613.66766,0.49354
6611.73891,0.49301
6609.81017,0.49252
6607.88142,0.49251
6605.95268,0.49380
6604.02393,0.49491
6602.09519,0.49293
6600.16644,0.49093
6598.23770,0.49263
6596.30895,0.49527
6594.38021,0.49542
6592.45146,0.49371
6590.52271,0.49164
6588.59397,0.49057
6586.66522,0.49205
6584.73648,0.49381
6582.80773,0.49318
6580.87899,0.49268
6578.95024,0.49420
6577.02150,0.49586
6575.09275,0.49670
6573.16401,0.49793
6571.23526,0.49918
6569.30652,0.49806
6567.37777,0.49517
6565.44903,0.49436
6563.52028,0.49711
6561.59154,0.49999
6559.66279,0.49956
6557.73404,0.49742
6555.80530,0.49650
6553.87655,0.49682
6551.94781,0.49769
6550.01906,0.49900
6548.09032,0.49966
6546.16157,0.49862
6544.23283,0.49761
6542.30408,0.49846
6540.37534,0.49933
6538.44659,0.49859
6536.51785,0.49833
6534.58910,0.49865
6532.66036,0.49736
6530.73161,0.49567
6528.80287,0.49589
6526.87412,0.49761
6524.94537,0.49850
6523.01663,0.49693
6521.08788,0.49466
6519.15914,0.49499
6517.23039,0.49772
6515.30165,0.49975
6513.37290,0.49974
6511.44416,0.49856
6509.51541,0.49753
6507.58667,0.49734
6505.65792,0.49751
6503.72918,0.49794
6501.80043,0.49932
6499.87169,0.50114
6497.94294,0.50241
6496.01419,0.50331
6494.08545,0.50316
6492.15670,0.50029
6490.22796,0.49709
6488.29921,0.49799
6486.37047,0.50171
6484.44172,0.50379
6482.51298,0.50363
6480.58423,0.50255
6478.65549,0.50060
6476.72674,0.49831
6474.79800,0.49750
6472.86925,0.49847
6470.94051,0.49884
6469.01176,0.49786
6467.08302,0.49787
6465.15427,0.49916
6463.22552,0.49952
6461.29678,0.49955
6459.36803,0.50079
6457.43929,0.50130
6455.51054,0.50050
6453.58180,0.50062
6451.65305,0.50133
6449.72431,0.50120
6447.79556,0.50029
6445.86682,0.49896
6443.93807,0.49754
6442.00933,0.49623
6440.08058,0.49624
6438.15184,0.49863
6436.22309,0.50050
6434.29434,0.50008
6432.36560,0.49957
6430.43685,0.49937
6428.50811,0.49900
6426.57936,0.49868
6424.65062,0.49884
6422.72187,0.50077
6420.79313,0.50343
6418.86438,0.50434
6416.93564,0.50315
6415.00689,0.50101
6413.07815,0.49953
6411.14940,0.49944
6409.22066,0.49982
6407.29191,0.50021
6405.36317,0.50127
6403.43442,0.50214
6401.50567,0.50158
6399.57693,0.49973
6397.64818,0.49780
6395.71944,0.49691
6393.79069,0.49674
6391.86195,0.49764
6389.93320,0.49931
6388.00446,0.49962
6386.07571,0.49909
6384.14697,0.49929
6382.21822,0.50005
6380.28948,0.50175
6378.36073,0.50340
6376.43199,0.50243
6374.50324,0.49997
6372.57450,0.49929
6370.64575,0.50044
6368.71700,0.50137
6366.78826,0.50114
6364.85951,0.50096
6362.93077,0.50126
6361.00202,0.50128
6359.07328,0.50143
6357.14453,0.50194
6355.21579,0.50301
6353.28704,0.50368
6351.35830,0.50189
6349.42955,0.49919
6347.50081,0.49877
6345.57206,0.50046
6343.64332,0.50172
6341.71457,0.50171
6339.78582,0.50280
6337.85708,0.50551
6335.92833,0.50658
6333.99959,0.50480
6332.07084,0.50209
6330.14210,0.50053
6328.21335,0.50163
6326.28461,0.50355
6324.35586,0.50351
6322.42712,0.50295
6320.49837,0.50410
6318.56963,0.50592
6316.64088,0.50619
6314.71214,0.50470
6312.78339,0.50307
6310.85465,0.50226
6308.92590,0.50264
6306.99715,0.50323
6305.06841,0.50217
6303.13966,0.50114
6301.21092,0.50228
6299.28217,0.50333
6297.35343,0.50276
6295.42468,0.50272
6293.49594,0.50381
6291.56719,0.50478
6289.63845,0.50550
6287.70970,0.50547
6285.78096,0.50469
6283.85221,0.50499
6281.92347,0.50585
6279.99472,0.50572
6278.06598,0.50550
6276.13723,0.50515
6274.20848,0.50400
6272.27974,0.50337
6270.35099,0.50373
6268.42225,0.50382
6266.49350,0.50308
6264.56476,0.50194
6262.63601,0.50238
6260.70727,0.50552
6258.77852,0.50828
6256.84978,0.50792
6254.92103,0.50572
6252.99229,0.50435
6251.06354,0.50518
6249.13480,0.50678
6247.20605,0.50726
6245.27730,0.50668
6243.34856,0.50540
6241.41981,0.50390
6239.49107,0.50343
6237.56232,0.50404
6235.63358,0.50419
6233.70483,0.50399
6231.77609,0.50478
6229.84734,0.50557
6227.91860,0.50464
6225.98985,0.50325
6224.06111,0.50276
6222.13236,0.50303
6220.20362,0.50438
6218.27487,0.50579
6216.34613,0.50646
6214.41738,0.50709
6212.48863,0.50694
6210.55989,0.50602
6208.63114,0.50575
6206.70240,0.50653
6204.77365,0.50778
6202.84491,0.50780
6200.91616,0.50602
6198.98742,0.50451
6197.05867,0.50460
6195.12993,0.50525
6193.20118,0.50541
6191.27244,0.50492
6189.34369,0.50429
6187.41495,0.50486
6185.48620,0.50600
6183.55746,0.50637
6181.62871,0.50720
6179.69996,0.50813
6177.77122,0.50792
6175.84247,0.50810
6173.91373,0.50867
6171.98498,0.50835
6170.05624,0.50781
6168.12749,0.50779
6166.19875,0.50794
6164.27000,0.50734
6162.34126,0.50608
6160.41251,0.50613
6158.48377,0.50820
6156.55502,0.51019
6154.62628,0.50989
6152.69753,0.50775
6150.76878,0.50637
6148.84004,0.50693
6146.91129,0.50803
6144.98255,0.50789
6143.05380,0.50696
6141.12506,0.50746
6139.19631,0.50869
6137.26757,0.50833
6135.33882,0.50717
6133.41008,0.50675
6131.48133,0.50743
6129.55259,0.50815
6127.62384,0.50746
6125.69510,0.50656
6123.76635,0.50686
6121.83761,0.50777
6119.90886,0.50842
6117.98011,0.50854
6116.05137,0.50876
6114.12262,0.50978
6112.19388,0.51091
6110.26513,0.51067
6108.33639,0.50969
6106.40764,0.51004
6104.47890,0.51122
6102.55015,0.51157
6100.62141,0.51132
6098.69266,0.51107
6096.76392,0.51090
6094.83517,0.51042
6092.90643,0.50945
6090.97768,0.50914
6089.04893,0.50921
6087.12019,0.50911
6085.19144,0.50993
6083.26270,0.51063
6081.33395,0.50967
6079.40521,0.50864
6077.47646,0.50927
6075.54772,0.51106
6073.61897,0.51161
6071.69023,0.50982
6069.76148,0.50838
6067.83274,0.50938
6065.90399,0.51028
6063.97525,0.50863
6062.04650,0.50639
6060.11776,0.50632
6058.18901,0.50801
6056.26026,0.50945
6054.33152,0.51017
6052.40277,0.51091
6050.47403,0.51149
6048.54528,0.51110
6046.61654,0.50991
6044.68779,0.50879
6042.75905,0.50868
6040.83030,0.50980
6038.90156,0.51031
6036.97281,0.50957
6035.04407,0.50894
6033.11532,0.50858
6031.18658,0.50802
6029.25783,0.50766
6027.32909,0.50813
6025.40034,0.50868
6023.47159,0.50815
6021.54285,0.50727
6019.61410,0.50712
6017.68536,0.50785
6015.75661,0.50908
6013.82787,0.50974
6011.89912,0.50887
6009.97038,0.50706
6008.04163,0.50563
6006.11289,0.50515
6004.18414,0.50599
6002.25540,0.50756
6000.32665,0.50866
5998.39791,0.50929
5996.46916,0.50947
5994.54041,0.50899
5992.61167,0.50825
5990.68292,0.50815
5988.75418,0.50897
5986.82543,0.50900
5984.89669,0.50710
5982.96794,0.50477
5981.03920,0.50358
5979.11045,0.50406
5977.18171,0.50575
5975.25296,0.50706
5973.32422,0.50728
5971.39547,0.50679
5969.46673,0.50583
5967.53798,0.50501
5965.60924,0.50513
5963.68049,0.50575
5961.75174,0.50583
5959.82300,0.50556
5957.89425,0.50566
5955.96551,0.50610
5954.03676,0.50600
5952.10802,0.50488
5950.17927,0.50377
5948.25053,0.50381
5946.32178,0.50464
5944.39304,0.50473
5942.46429,0.50365
5940.53555,0.50276
5938.60680,0.50299
5936.67806,0.50392
5934.74931,0.50455
5932.82057,0.50470
5930.89182,0.50516
5928.96307,0.50628
5927.03433,0.50739
5925.10558,0.50759
5923.17684,0.50696
5921.24809,0.50583
5919.31935,0.50408
5917.39060,0.50265
5915.46186,0.50265
5913.53311,0.50371
5911.60437,0.50453
5909.67562,0.50453
5907.74688,0.50413
5905.81813,0.50379
5903.88939,0.50395
5901.96064,0.50452
5900.03189,0.50487
5898.10315,0.50505
5896.17440,0.50570
5894.24566,0.50692
5892.31691,0.50783
5890.38817,0.50781
5888.45942,0.50682
5886.53068,0.50489
5884.60193,0.50325
5882.67319,0.50369
5880.74444,0.50533
5878.81570,0.50550
5876.88695,0.50462
5874.95821,0.50514
5873.02946,0.50675
5871.10072,0.50797
5869.17197,0.50836
5867.24322,0.50764
5865.31448,0.50667
5863.38573,0.50671
5861.45699,0.50706
5859.52824,0.50712
5857.59950,0.50733
5855.67075,0.50715
5853.74201,0.50645
5851.81326,0.50652
5849.88452,0.50753
5847.95577,0.50853
5846.02703,0.50901
5844.09828,0.50927
5842.16954,0.50957
5840.24079,0.50924
5838.31205,0.50819
5836.38330,0.50775
5834.45455,0.50806
5832.52581,0.50804
5830.59706,0.50774
5828.66832,0.50800
5826.73957,0.50887
5824.81083,0.50899
5822.88208,0.50755
5820.95334,0.50578
5819.02459,0.50528
5817.09585,0.50625
5815.16710,0.50755
5813.23836,0.50841
5811.30961,0.50874
5809.38087,0.50814
5807.45212,0.50744
5805.52337,0.50787
5803.59463,0.50839
5801.66588,0.50737
5799.73714,0.50547
5797.80839,0.50448
5795.87965,0.50469
5793.95090,0.50519
5792.02216,0.50522
5790.09341,0.50500
5788.16467,0.50544
5786.23592,0.50631
5784.30718,0.50648
5782.37843,0.50574
5780.44969,0.50550
5778.52094,0.50670
5776.59220,0.50803
5774.66345,0.50795
5772.73470,0.50727
5770.80596,0.50761
5768.87721,0.50834
5766.94847,0.50823
5765.01972,0.50827
5763.09098,0.50850
5761.16223,0.50779
5759.23349,0.50741
5757.30474,0.50826
5755.37600,0.50846
5753.44725,0.50764
5751.51851,0.50739
5749.58976,0.50784
5747.66102,0.50864
5745.73227,0.50981
5743.80352,0.51069
5741.87478,0.51027
5739.94603,0.50893
5738.01729,0.50805
5736.08854,0.50722
5734.15980,0.50590
5732.23105,0.50587
5730.30231,0.50771
5728.37356,0.50931
5726.44482,0.50929
5724.51607,0.50863
5722.58733,0.50827
5720.65858,0.50815
5718.72984,0.50811
5716.80109,0.50788
5714.87235,0.50750
5712.94360,0.50715
5711.01485,0.50714
5709.08611,0.50741
5707.15736,0.50678
5705.22862,0.50549
5703.29987,0.50521
5701.37113,0.50592
5699.44238,0.50632
5697.51364,0.50599
5695.58489,0.50570
5693.65615,0.50622
5691.72740,0.50730
5689.79866,0.50789
5687.86991,0.50775
5685.94117,0.50749
5684.01242,0.50730
5682.08368,0.50723
5680.15493,0.50734
5678.22618,0.50740
5676.29744,0.50731
5674.36869,0.50742
5672.43995,0.50794
5670.51120,0.50843
5668.58246,0.50818
5666.65371,0.50726
5664.72497,0.50669
5662.79622,0.50679
5660.86748,0.50708
5658.93873,0.50730
5657.00999,0.50685
5655.08124,0.50600
5653.15250,0.50589
5651.22375,0.50603
5649.29500,0.50591
5647.36626,0.50661
5645.43751,0.50801
5643.50877,0.50900
5641.58002,0.50981
5639.65128,0.51040
5637.72253,0.50976
5635.79379,0.50833
5633.86504,0.50729
5631.93630,0.50737
5630.00755,0.50901
5628.07881,0.51085
5626.15006,0.51156
5624.22132,0.51152
5622.29257,0.51103
5620.36383,0.51072
5618.43508,0.51069
5616.50633,0.50983
5614.57759,0.50857
5612.64884,0.50832
5610.72010,0.50895
5608.79135,0.50970
5606.86261,0.51000
5604.93386,0.50933
5603.00512,0.50781
5601.07637,0.50690
5599.14763,0.50768
5597.21888,0.50915
5595.29014,0.50990
5593.36139,0.51036
5591.43265,0.51108
5589.50390,0.51097
5587.57516,0.50976
5585.64641,0.50914
5583.71766,0.50963
5581.78892,0.50987
5579.86017,0.50920
5577.93143,0.50858
5576.00268,0.50880
5574.07394,0.50994
5572.14519,0.51111
5570.21645,0.51082
5568.28770,0.50946
5566.35896,0.50845
5564.43021,0.50800
5562.50147,0.50829
5560.57272,0.50942
5558.64398,0.51023
5556.71523,0.51007
5554.78648,0.51013
5552.85774,0.51124
5550.92899,0.51250
5549.00025,0.51259
5547.07150,0.51160
5545.14276,0.51089
5543.21401,0.51122
5541.28527,0.51160
5539.35652,0.51118
5537.42778,0.51064
5535.49903,0.51029
5533.57029,0.50970
5531.64154,0.50940
5529.71280,0.50945
5527.78405,0.50959
5525.85531,0.51033
5523.92656,0.51140
5521.99781,0.51183
5520.06907,0.51154
5518.14032,0.51115
5516.21158,0.51088
5514.28283,0.51068
5512.35409,0.51076
5510.42534,0.51096
5508.49660,0.51110
5506.56785,0.51154
5504.63911,0.51167
5502.71036,0.51074
5500.78162,0.50974
5498.85287,0.50934
5496.92413,0.50913
5494.99538,0.50948
5493.06664,0.51045
5491.13789,0.51067
5489.20914,0.50984
5487.28040,0.50942
5485.35165,0.51024
5483.42291,0.51168
5481.49416,0.51232
5479.56542,0.51144
5477.63667,0.51055
5475.70793,0.51098
5473.77918,0.51135
5471.85044,0.51044
5469.92169,0.50961
5467.99295,0.50978
5466.06420,0.51004
5464.13546,0.51006
5462.20671,0.51054
5460.27796,0.51103
5458.34922,0.51055
5456.42047,0.50963
5454.49173,0.50926
5452.56298,0.50947
5450.63424,0.51018
5448.70549,0.51119
5446.77675,0.51172
5444.84800,0.51132
5442.91926,0.51049
5440.99051,0.51009
5439.06177,0.51016
5437.13302,0.51002
5435.20428,0.50994
5433.27553,0.51080
5431.34679,0.51204
5429.41804,0.51257
5427.48929,0.51270
5425.56055,0.51304
5423.63180,0.51339
5421.70306,0.51345
5419.77431,0.51272
5417.84557,0.51161
5415.91682,0.51145
5413.98808,0.51173
5412.05933,0.51142
5410.13059,0.51144
5408.20184,0.51174
5406.27310,0.51132
5404.34435,0.51085
5402.41561,0.51109
5400.48686,0.51135
5398.55811,0.51132
5396.62937,0.51158
5394.70062,0.51206
5392.77188,0.51218
5390.84313,0.51184
5388.91439,0.51100
5386.98564,0.50941
5385.05690,0.50785
5383.12815,0.50794
5381.19941,0.50944
5379.27066,0.51030
5377.34192,0.50973
5375.41317,0.50935
5373.48443,0.51026
5371.55568,0.51069
5369.62694,0.50937
5367.69819,0.50790
5365.76944,0.50784
5363.84070,0.50869
5361.91195,0.50889
5359.98321,0.50788
5358.05446,0.50689
5356.12572,0.50699
5354.19697,0.50771
5352.26823,0.50804
5350.33948,0.50775
5348.41074,0.50730
5346.48199,0.50689
5344.55325,0.50624
5342.62450,0.50521
5340.69576,0.50422
5338.76701,0.50365
5336.83827,0.50343
5334.90952,0.50318
5332.98077,0.50273
5331.05203,0.50210
5329.12328,0.50124
5327.19454,0.50106
5325.26579,0.50197
5323.33705,0.50237
5321.40830,0.50165
5319.47956,0.50084
5317.55081,0.49977
5315.62207,0.49809
5313.69332,0.49678
5311.76458,0.49618
5309.83583,0.49566
5307.90709,0.49517
5305.97834,0.49432
5304.04959,0.49257
5302.12085,0.49108
5300.19210,0.49048
5298.26336,0.48927
5296.33461,0.48732
5294.40587,0.48605
5292.47712,0.48542
5290.54838,0.48488
5288.61963,0.48415
5286.69089,0.48270
5284.76214,0.48086
5282.83340,0.47916
5280.90465,0.47743
5278.97591,0.47574
5277.04716,0.47442
5275.11842,0.47301
5273.18967,0.47099
5271.26092,0.46868
5269.33218,0.46667
5267.40343,0.46536
5265.47469,0.46440
5263.54594,0.46288
5261.61720,0.46051
5259.68845,0.45785
5257.75971,0.45521
5255.83096,0.45257
5253.90222,0.45042
5251.97347,0.44886
5250.04473,0.44683
5248.11598,0.44425
5246.18724,0.44237
5244.25849,0.44108
5242.32975,0.43935
5240.40100,0.43741
5238.47225,0.43598
5236.54351,0.43477
5234.61476,0.43301
5232.68602,0.43072
5230.75727,0.42863
5228.82853,0.42688
5226.89978,0.42559
5224.97104,0.42494
5223.04229,0.42386
5221.11355,0.42194
5219.18480,0.42050
5217.25606,0.42010
5215.32731,0.41972
5213.39857,0.41898
5211.46982,0.41821
5209.54107,0.41735
5207.61233,0.41657
5205.68358,0.41610
5203.75484,0.41582
5201.82609,0.41565
5199.89735,0.41553
5197.96860,0.41562
5196.03986,0.41571
5194.11111,0.41530
5192.18237,0.41473
5190.25362,0.41457
5188.32488,0.41479
5186.39613,0.41482
5184.46739,0.41454
5182.53864,0.41497
5180.60990,0.41632
5178.68115,0.41725
5176.75240,0.41744
5174.82366,0.41768
5172.89491,0.41772
5170.96617,0.41739
5169.03742,0.41780
5167.10868,0.41920
5165.17993,0.42062
5163.25119,0.42169
5161.32244,0.42237
5159.39370,0.42266
5157.46495,0.42311
5155.53621,0.42363
5153.60746,0.42337
5151.67872,0.42268
5149.74997,0.42296
5147.82123,0.42436
5145.89248,0.42566
5143.96373,0.42616
5142.03499,0.42647
5140.10624,0.42755
5138.17750,0.42904
5136.24875,0.42997
5134.32001,0.43050
5132.39126,0.43099
5130.46252,0.43144
5128.53377,0.43223
5126.60503,0.43319
5124.67628,0.43383
5122.74754,0.43440
5120.81879,0.43506
5118.89005,0.43572
5116.96130,0.43646
5115.03255,0.43713
5113.10381,0.43771
5111.17506,0.43832
5109.24632,0.43866
5107.31757,0.43882
5105.38883,0.43950
5103.46008,0.44047
5101.53134,0.44067
5099.60259,0.44035
5097.67385,0.44077
5095.74510,0.44204
5093.81636,0.44327
5091.88761,0.44409
5089.95887,0.44454
5088.03012,0.44459
5086.10138,0.44460
5084.17263,0.44507
5082.24388,0.44555
5080.31514,0.44554
5078.38639,0.44556
5076.45765,0.44633
5074.52890,0.44765
5072.60016,0.44866
5070.67141,0.44921
5068.74267,0.44971
5066.81392,0.45013
5064.88518,0.45027
5062.95643,0.45059
5061.02769,0.45142
5059.09894,0.45198
5057.17020,0.45178
5055.24145,0.45191
5053.31270,0.45304
5051.38396,0.45377
5049.45521,0.45327
5047.52647,0.45294
5045.59772,0.45367
5043.66898,0.45453
5041.74023,0.45487
5039.81149,0.45510
5037.88274,0.45540
5035.95400,0.45589
5034.02525,0.45686
5032.09651,0.45787
5030.16776,0.45826
5028.23902,0.45822
5026.31027,0.45840
5024.38153,0.45903
5022.45278,0.45945
5020.52403,0.45943
5018.59529,0.45960
5016.66654,0.45989
5014.73780,0.45982
5012.80905,0.46001
5010.88031,0.46111
5008.95156,0.46230
5007.02282,0.46283
5005.09407,0.46321
5003.16533,0.46365
5001.23658,0.46364
4999.30784,0.46332
4997.37909,0.46357
4995.45035,0.46451
4993.52160,0.46524
4991.59286,0.46553
4989.66411,0.46581
4987.73536,0.46615
4985.80662,0.46658
4983.87787,0.46707
4981.94913,0.46720
4980.02038,0.46708
4978.09164,0.46743
4976.16289,0.46839
4974.23415,0.46932
4972.30540,0.46980
4970.37666,0.47011
4968.44791,0.47043
4966.51917,0.47040
4964.59042,0.47017
4962.66168,0.47050
4960.73293,0.47104
4958.80418,0.47116
4956.87544,0.47124
4954.94669,0.47156
4953.01795,0.47209
4951.08920,0.47252
4949.16046,0.47211
4947.23171,0.47104
4945.30297,0.47040
4943.37422,0.47027
4941.44548,0.47046
4939.51673,0.47106
4937.58799,0.47167
4935.65924,0.47228
4933.73050,0.47302
4931.80175,0.47321
4929.87301,0.47291
4927.94426,0.47292
4926.01551,0.47319
4924.08677,0.47314
4922.15802,0.47264
4920.22928,0.47212
4918.30053,0.47202
4916.37179,0.47214
4914.44304,0.47192
4912.51430,0.47170
4910.58555,0.47195
4908.65681,0.47218
4906.72806,0.47213
4904.79932,0.47197
4902.87057,0.47173
4900.94183,0.47146
4899.01308,0.47155
4897.08434,0.47202
4895.15559,0.47212
4893.22684,0.47149
4891.29810,0.47075
4889.36935,0.47060
4887.44061,0.47089
4885.51186,0.47092
4883.58312,0.47071
4881.65437,0.47061
4879.72563,0.47040
4877.79688,0.46989
4875.86814,0.46940
4873.93939,0.46914
4872.01065,0.46876
4870.08190,0.46824
4868.15316,0.46814
4866.22441,0.46832
4864.29566,0.46838
4862.36692,0.46854
4860.43817,0.46883
4858.50943,0.46875
4856.58068,0.46825
4854.65194,0.46773
4852.72319,0.46741
4850.79445,0.46720
4848.86570,0.46713
4846.93696,0.46754
4845.00821,0.46813
4843.07947,0.46819
4841.15072,0.46757
4839.22198,0.46658
4837.29323,0.46585
4835.36449,0.46579
4833.43574,0.46612
4831.50699,0.46644
4829.57825,0.46655
4827.64950,0.46635
4825.72076,0.46574
4823.79201,0.46492
4821.86327,0.46454
4819.93452,0.46454
4818.00578,0.46427
4816.07703,0.46393
4814.14829,0.46372
4812.21954,0.46337
4810.29080,0.46295
4808.36205,0.46266
4806.43331,0.46257
4804.50456,0.46250
4802.57582,0.46223
4800.64707,0.46211
4798.71832,0.46215
4796.78958,0.46200
4794.86083,0.46176
4792.93209,0.46146
4791.00334,0.46141
4789.07460,0.46210
4787.14585,0.46293
4785.21711,0.46310
4783.28836,0.46273
4781.35962,0.46213
4779.43087,0.46143
4777.50213,0.46086
4775.57338,0.46045
4773.64464,0.46042
4771.71589,0.46079
4769.78714,0.46094
4767.85840,0.46080
4765.92965,0.46075
4764.00091,0.46055
4762.07216,0.46026
4760.14342,0.46017
4758.21467,0.46015
4756.28593,0.46041
4754.35718,0.46091
4752.42844,0.46096
4750.49969,0.46063
4748.57095,0.46068
4746.64220,0.46098
4744.71346,0.46088
4742.78471,0.46049
4740.85597,0.46047
4738.92722,0.46094
4736.99847,0.46127
4735.06973,0.46111
4733.14098,0.46086
4731.21224,0.46076
4729.28349,0.46062
4727.35475,0.46087
4725.42600,0.46187
4723.49726,0.46294
4721.56851,0.46331
4719.63977,0.46319
4717.71102,0.46294
4715.78228,0.46258
4713.85353,0.46234
4711.92479,0.46212
4709.99604,0.46164
4708.06729,0.46128
4706.13855,0.46141
4704.20980,0.46207
4702.28106,0.46268
4700.35231,0.46250
4698.42357,0.46207
4696.49482,0.46222
4694.56608,0.46269
4692.63733,0.46309
4690.70859,0.46324
4688.77984,0.46289
4686.85110,0.46233
4684.92235,0.46215
4682.99361,0.46219
4681.06486,0.46192
4679.13612,0.46137
4677.20737,0.46072
4675.27862,0.46018
4673.34988,0.45986
4671.42113,0.45939
4669.49239,0.45865
4667.56364,0.45819
4665.63490,0.45826
4663.70615,0.45854
4661.77741,0.45874
4659.84866,0.45887
4657.91992,0.45912
4655.99117,0.45943
4654.06243,0.45978
4652.13368,0.46047
4650.20494,0.46138
4648.27619,0.46187
4646.34745,0.46191
4644.41870,0.46198
4642.48995,0.46210
4640.56121,0.46205
4638.63246,0.46193
4636.70372,0.46173
4634.77497,0.46111
4632.84623,0.46026
4630.91748,0.45965
4628.98874,0.45914
4627.05999,0.45852
4625.13125,0.45804
4623.20250,0.45797
4621.27376,0.45830
4619.34501,0.45868
4617.41627,0.45840
4615.48752,0.45745
4613.55877,0.45660
4611.63003,0.45612
4609.70128,0.45608
4607.77254,0.45665
4605.84379,0.45751
4603.91505,0.45799
4601.98630,0.45789
4600.05756,0.45783
4598.12881,0.45831
4596.20007,0.45905
4594.27132,0.45973
4592.34258,0.46007
4590.41383,0.45986
4588.48509,0.45927
4586.55634,0.45877
4584.62760,0.45860
4582.69885,0.45852
4580.77010,0.45822
4578.84136,0.45740
4576.91261,0.45611
4574.98387,0.45504
4573.05512,0.45464
4571.12638,0.45472
4569.19763,0.45504
4567.26889,0.45538
4565.34014,0.45534
4563.41140,0.45483
4561.48265,0.45454
4559.55391,0.45496
4557.62516,0.45532
4555.69642,0.45498
4553.76767,0.45459
4551.83893,0.45472
4549.91018,0.45502
4547.98143,0.45494
4546.05269,0.45453
4544.12394,0.45417
4542.19520,0.45386
4540.26645,0.45344
4538.33771,0.45312
4536.40896,0.45294
4534.48022,0.45263
4532.55147,0.45234
4530.62273,0.45224
4528.69398,0.45204
4526.76524,0.45157
4524.83649,0.45103
4522.90775,0.45065
4520.97900,0.45035
4519.05025,0.45009
4517.12151,0.45004
4515.19276,0.45007
4513.26402,0.44976
4511.33527,0.44922
4509.40653,0.44895
4507.47778,0.44888
4505.54904,0.44859
4503.62029,0.44820
4501.69155,0.44821
4499.76280,0.44828
4497.83406,0.44779
4495.90531,0.44701
4493.97657,0.44642
4492.04782,0.44617
4490.11908,0.44624
4488.19033,0.44628
4486.26158,0.44616
4484.33284,0.44605
4482.40409,0.44580
4480.47535,0.44537
4478.54660,0.44491
4476.61786,0.44443
4474.68911,0.44398
4472.76037,0.44371
4470.83162,0.44366
4468.90288,0.44368
4466.97413,0.44331
4465.04539,0.44242
4463.11664,0.44156
4461.18790,0.44132
4459.25915,0.44140
4457.33041,0.44097
4455.40166,0.44003
4453.47291,0.43942
4451.54417,0.43929
4449.61542,0.43887
4447.68668,0.43800
4445.75793,0.43730
4443.82919,0.43688
4441.90044,0.43640
4439.97170,0.43585
4438.04295,0.43544
4436.11421,0.43490
4434.18546,0.43408
4432.25672,0.43323
4430.32797,0.43223
4428.39923,0.43101
4426.47048,0.42995
4424.54173,0.42938
4422.61299,0.42913
4420.68424,0.42869
4418.75550,0.42766
4416.82675,0.42625
4414.89801,0.42499
4412.96926,0.42397
4411.04052,0.42316
4409.11177,0.42265
4407.18303,0.42213
4405.25428,0.42138
4403.32554,0.42072
4401.39679,0.42026
4399.46805,0.41988
4397.53930,0.41968
4395.61056,0.41971
4393.68181,0.41977
4391.75306,0.41971
4389.82432,0.41962
4387.89557,0.41972
4385.96683,0.41994
4384.03808,0.41980
4382.10934,0.41940
4380.18059,0.41912
4378.25185,0.41867
4376.32310,0.41778
4374.39436,0.41681
4372.46561,0.41610
4370.53687,0.41569
4368.60812,0.41541
4366.67938,0.41491
4364.75063,0.41425
4362.82189,0.41410
4360.89314,0.41472
4358.96439,0.41539
4357.03565,0.41534
4355.10690,0.41457
4353.17816,0.41360
4351.24941,0.41264
4349.32067,0.41141
4347.39192,0.41008
4345.46318,0.40930
4343.53443,0.40902
4341.60569,0.40850
4339.67694,0.40750
4337.74820,0.40648
4335.81945,0.40566
4333.89071,0.40491
4331.96196,0.40407
4330.03321,0.40316
4328.10447,0.40270
4326.17572,0.40281
4324.24698,0.40309
4322.31823,0.40349
4320.38949,0.40420
4318.46074,0.40524
4316.53200,0.40648
4314.60325,0.40744
4312.67451,0.40798
4310.74576,0.40851
4308.81702,0.40895
4306.88827,0.40897
4304.95953,0.40872
4303.03078,0.40857
4301.10204,0.40864
4299.17329,0.40881
4297.24454,0.40900
4295.31580,0.40907
4293.38705,0.40890
4291.45831,0.40855
4289.52956,0.40801
4287.60082,0.40719
4285.67207,0.40636
4283.74333,0.40588
4281.81458,0.40563
4279.88584,0.40519
4277.95709,0.40437
4276.02835,0.40330
4274.09960,0.40255
4272.17086,0.40214
4270.24211,0.40140
4268.31336,0.40037
4266.38462,0.39964
4264.45587,0.39918
4262.52713,0.39869
4260.59838,0.39815
4258.66964,0.39778
4256.74089,0.39773
4254.81215,0.39798
4252.88340,0.39819
4250.95466,0.39796
4249.02591,0.39736
4247.09717,0.39690
4245.16842,0.39696
4243.23968,0.39741
4241.31093,0.39768
4239.38219,0.39770
4237.45344,0.39775
4235.52469,0.39765
4233.59595,0.39739
4231.66720,0.39713
4229.73846,0.39686
4227.80971,0.39660
4225.88097,0.39622
4223.95222,0.39564
4222.02348,0.39527
4220.09473,0.39516
4218.16599,0.39485
4216.23724,0.39421
4214.30850,0.39355
4212.37975,0.39299
4210.45101,0.39262
4208.52226,0.39267
4206.59352,0.39300
4204.66477,0.39320
4202.73602,0.39303
4200.80728,0.39262
4198.87853,0.39222
4196.94979,0.39191
4195.02104,0.39156
4193.09230,0.39124
4191.16355,0.39099
4189.23481,0.39063
4187.30606,0.39023
4185.37732,0.38985
4183.44857,0.38940
4181.51983,0.38893
4179.59108,0.38849
4177.66234,0.38810
4175.73359,0.38788
4173.80484,0.38778
4171.87610,0.38773
4169.94735,0.38760
4168.01861,0.38741
4166.08986,0.38754
4164.16112,0.38784
4162.23237,0.38770
4160.30363,0.38726
4158.37488,0.38691
4156.44614,0.38659
4154.51739,0.38624
4152.58865,0.38590
4150.65990,0.38532
4148.73116,0.38438
4146.80241,0.38346
4144.87367,0.38291
4142.94492,0.38266
4141.01617,0.38236
4139.08743,0.38180
4137.15868,0.38107
4135.22994,0.38039
4133.30119,0.37963
4131.37245,0.37859
4129.44370,0.37752
4127.51496,0.37683
4125.58621,0.37631
4123.65747,0.37545
4121.72872,0.37446
4119.79998,0.37385
4117.87123,0.37340
4115.94249,0.37268
4114.01374,0.37178
4112.08500,0.37096
4110.15625,0.37036
4108.22750,0.36977
4106.29876,0.36873
4104.37001,0.36723
4102.44127,0.36605
4100.51252,0.36535
4098.58378,0.36439
4096.65503,0.36308
4094.72629,0.36191
4092.79754,0.36086
4090.86880,0.35970
4088.94005,0.35841
4087.01131,0.35712
4085.08256,0.35602
4083.15382,0.35518
4081.22507,0.35430
4079.29632,0.35313
4077.36758,0.35172
4075.43883,0.35024
4073.51009,0.34897
4071.58134,0.34785
4069.65260,0.34642
4067.72385,0.34461
4065.79511,0.34288
4063.86636,0.34156
4061.93762,0.34067
4060.00887,0.33991
4058.08013,0.33890
4056.15138,0.33773
4054.22264,0.33673
4052.29389,0.33610
4050.36515,0.33572
4048.43640,0.33518
4046.50765,0.33446
4044.57891,0.33377
4042.65016,0.33301
4040.72142,0.33218
4038.79267,0.33161
4036.86393,0.33131
4034.93518,0.33122
4033.00644,0.33159
4031.07769,0.33244
4029.14895,0.33322
4027.22020,0.33352
4025.29146,0.33345
4023.36271,0.33345
4021.43397,0.33380
4019.50522,0.33453
4017.57648,0.33527
4015.64773,0.33569
4013.71898,0.33581
4011.79024,0.33587
4009.86149,0.33618
4007.93275,0.33663
4006.00400,0.33673
4004.07526,0.33637
4002.14651,0.33581
4000.21777,0.33538
3998.28902,0.33548
3996.36028,0.33611
3994.43153,0.33686
3992.50279,0.33745
3990.57404,0.33779
3988.64530,0.33786
3986.71655,0.33766
3984.78780,0.33728
3982.85906,0.33713
3980.93031,0.33725
3979.00157,0.33733
3977.07282,0.33740
3975.14408,0.33753
3973.21533,0.33764
3971.28659,0.33769
3969.35784,0.33758
3967.42910,0.33741
3965.50035,0.33735
3963.57161,0.33753
3961.64286,0.33779
3959.71412,0.33786
3957.78537,0.33783
3955.85663,0.33784
3953.92788,0.33782
3951.99913,0.33781
3950.07039,0.33797
3948.14164,0.33832
3946.21290,0.33853
3944.28415,0.33848
3942.35541,0.33849
3940.42666,0.33843
3938.49792,0.33799
3936.56917,0.33770
3934.64043,0.33785
3932.71168,0.33818
3930.78294,0.33859
3928.85419,0.33896
3926.92545,0.33928
3924.99670,0.33950
3923.06795,0.33945
3921.13921,0.33939
3919.21046,0.33951
3917.28172,0.33964
3915.35297,0.33979
3913.42423,0.33991
3911.49548,0.33997
3909.56674,0.33998
3907.63799,0.33986
3905.70925,0.33974
3903.78050,0.33981
3901.85176,0.33998
3899.92301,0.34012
3897.99427,0.34018
3896.06552,0.34020
3894.13678,0.34020
3892.20803,0.34026
3890.27928,0.34039
3888.35054,0.34029
3886.42179,0.33998
3884.49305,0.33966
3882.56430,0.33943
3880.63556,0.33943
3878.70681,0.33952
3876.77807,0.33959
3874.84932,0.33966
3872.92058,0.33969
3870.99183,0.33971
3869.06309,0.33975
3867.13434,0.33973
3865.20560,0.33975
3863.27685,0.33978
3861.34811,0.33959
3859.41936,0.33930
3857.49061,0.33926
3855.56187,0.33950
3853.63312,0.33964
3851.70438,0.33934
3849.77563,0.33889
3847.84689,0.33853
3845.91814,0.33813
3843.98940,0.33752
3842.06065,0.33692
3840.13191,0.33654
3838.20316,0.33640
3836.27442,0.33652
3834.34567,0.33656
3832.41693,0.33636
3830.48818,0.33594
3828.55943,0.33516
3826.63069,0.33433
3824.70194,0.33385
3822.77320,0.33335
3820.84445,0.33263
3818.91571,0.33207
3816.98696,0.33177
3815.05822,0.33157
3813.12947,0.33125
3811.20073,0.33064
3809.27198,0.32985
3807.34324,0.32908
3805.41449,0.32849
3803.48575,0.32806
3801.55700,0.32753
3799.62826,0.32673
3797.69951,0.32590
3795.77076,0.32530
3793.84202,0.32486
3791.91327,0.32408
3789.98453,0.32300
3788.05578,0.32210
3786.12704,0.32144
3784.19829,0.32090
3782.26955,0.32037
3780.34080,0.31946
3778.41206,0.31830
3776.48331,0.31737
3774.55457,0.31675
3772.62582,0.31610
3770.69708,0.31516
3768.76833,0.31398
3766.83959,0.31284
3764.91084,0.31170
3762.98209,0.31056
3761.05335,0.30958
3759.12460,0.30853
3757.19586,0.30720
3755.26711,0.30591
3753.33837,0.30489
3751.40962,0.30381
3749.48088,0.30241
3747.55213,0.30116
3745.62339,0.29978
3743.69464,0.29778
3741.76590,0.29585
3739.83715,0.29440
3737.90841,0.29269
3735.97966,0.29017
3734.05091,0.28748
3732.12217,0.28529
3730.19342,0.28325
3728.26468,0.28114
3726.33593,0.27894
3724.40719,0.27647
3722.47844,0.27373
3720.54970,0.27096
3718.62095,0.26810
3716.69221,0.26503
3714.76346,0.26200
3712.83472,0.25898
3710.90597,0.25550
3708.97723,0.25169
3707.04848,0.24778
3705.11974,0.24375
3703.19099,0.23957
3701.26224,0.23519
3699.33350,0.23067
3697.40475,0.22581
3695.47601,0.22090
3693.54726,0.21635
3691.61852,0.21164
3689.68977,0.20597
3687.76103,0.19937
3685.83228,0.19261
3683.90354,0.18559
3681.97479,0.17670
3680.04605,0.16353
3678.11730,0.14749
3676.18856,0.13687
3674.25981,0.13808
3672.33107,0.14409
3670.40232,0.14789
3668.47357,0.14849
3666.54483,0.14721
3664.61608,0.14517
3662.68734,0.14227
3660.75859,0.13920
3658.82985,0.13730
3656.90110,0.13620
3654.97236,0.13458
3653.04361,0.13247
3651.11487,0.13062
3649.18612,0.12909
3647.25738,0.12752
3645.32863,0.12576
3643.39989,0.12393
3641.47114,0.12226
3639.54239,0.12082
3637.61365,0.11935
3635.68490,0.11778
3633.75616,0.11626
3631.82741,0.11470
3629.89867,0.11287
3627.96992,0.11091
3626.04118,0.10951
3624.11243,0.10856
3622.18369,0.10752
3620.25494,0.10634
3618.32620,0.10531
3616.39745,0.10441
3614.46871,0.10337
3612.53996,0.10248
3610.61122,0.10185
3608.68247,0.10108
3606.75372,0.10017
3604.82498,0.09954
3602.89623,0.09930
3600.96749,0.09902
3599.03874,0.09842
3597.11000,0.09767
3595.18125,0.09687
3593.25251,0.09597
3591.32376,0.09518
3589.39502,0.09468
3587.46627,0.09438
3585.53753,0.09415
3583.60878,0.09379
3581.68004,0.09316
3579.75129,0.09232
3577.82254,0.09146
3575.89380,0.09082
3573.96505,0.09042
3572.03631,0.09014
3570.10756,0.08977
3568.17882,0.08910
3566.25007,0.08824
3564.32133,0.08775
3562.39258,0.08776
3560.46384,0.08749
3558.53509,0.08659
3556.60635,0.08568
3554.67760,0.08522
3552.74886,0.08511
3550.82011,0.08501
3548.89137,0.08478
3546.96262,0.08457
3545.03387,0.08424
3543.10513,0.08358
3541.17638,0.08297
3539.24764,0.08278
3537.31889,0.08277
3535.39015,0.08258
3533.46140,0.08241
3531.53266,0.08234
3529.60391,0.08211
3527.67517,0.08185
3525.74642,0.08177
3523.81768,0.08167
3521.88893,0.08140
3519.96019,0.08108
3518.03144,0.08091
3516.10270,0.08088
3514.17395,0.08076
3512.24520,0.08052
3510.31646,0.08027
3508.38771,0.07981
3506.45897,0.07932
3504.53022,0.07920
3502.60148,0.07922
3500.67273,0.07909
3498.74399,0.07902
3496.81524,0.07900
3494.88650,0.07868
3492.95775,0.07816
3491.02901,0.07783
3489.10026,0.07756
3487.17152,0.07720
3485.24277,0.07690
3483.31402,0.07675
3481.38528,0.07673
3479.45653,0.07690
3477.52779,0.07712
3475.59904,0.07694
3473.67030,0.07613
3471.74155,0.07528
3469.81281,0.07493
3467.88406,0.07491
3465.95532,0.07505
3464.02657,0.07520
3462.09783,0.07503
3460.16908,0.07458
3458.24034,0.07421
3456.31159,0.07411
3454.38285,0.07431
3452.45410,0.07465
3450.52535,0.07463
3448.59661,0.07408
3446.66786,0.07345
3444.73912,0.07306
3442.81037,0.07293
3440.88163,0.07306
3438.95288,0.07321
3437.02414,0.07313
3435.09539,0.07300
3433.16665,0.07307
3431.23790,0.07324
3429.30916,0.07323
3427.38041,0.07298
3425.45167,0.07274
3423.52292,0.07283
3421.59418,0.07295
3419.66543,0.07246
3417.73668,0.07176
3415.80794,0.07172
3413.87919,0.07232
3411.95045,0.07277
3410.02170,0.07257
3408.09296,0.07216
3406.16421,0.07217
3404.23547,0.07239
3402.30672,0.07242
3400.37798,0.07218
3398.44923,0.07201
3396.52049,0.07208
3394.59174,0.07214
3392.66300,0.07201
3390.73425,0.07187
3388.80550,0.07192
3386.87676,0.07214
3384.94801,0.07223
3383.01927,0.07222
3381.09052,0.07223
3379.16178,0.07205
3377.23303,0.07176
3375.30429,0.07177
3373.37554,0.07187
3371.44680,0.07179
3369.51805,0.07174
3367.58931,0.07188
3365.66056,0.07207
3363.73182,0.07230
3361.80307,0.07254
3359.87433,0.07258
3357.94558,0.07251
3356.01683,0.07252
3354.08809,0.07239
3352.15934,0.07239
3350.23060,0.07283
3348.30185,0.07318
3346.37311,0.07307
3344.44436,0.07290
3342.51562,0.07294
3340.58687,0.07295
3338.65813,0.07284
3336.72938,0.07275
3334.80064,0.07269
3332.87189,0.07273
3330.94315,0.07297
3329.01440,0.07324
3327.08566,0.07358
3325.15691,0.07392
3323.22816,0.07377
3321.29942,0.07325
3319.37067,0.07312
3317.44193,0.07351
3315.51318,0.07369
3313.58444,0.07338
3311.65569,0.07321
3309.72695,0.07361
3307.79820,0.07428
3305.86946,0.07478
3303.94071,0.07478
3302.01197,0.07441
3300.08322,0.07411
3298.15448,0.07417
3296.22573,0.07440
3294.29698,0.07442
3292.36824,0.07427
3290.43949,0.07428
3288.51075,0.07450
3286.58200,0.07479
3284.65326,0.07516
3282.72451,0.07537
3280.79577,0.07524
3278.86702,0.07509
3276.93828,0.07521
3275.00953,0.07550
3273.08079,0.07567
3271.15204,0.07566
3269.22330,0.07575
3267.29455,0.07608
3265.36581,0.07636
3263.43706,0.07628
3261.50831,0.07606
3259.57957,0.07617
3257.65082,0.07668
3255.72208,0.07742
3253.79333,0.07794
3251.86459,0.07788
3249.93584,0.07763
3248.00710,0.07775
3246.07835,0.07820
3244.14961,0.07882
3242.22086,0.07914
3240.29212,0.07907
3238.36337,0.07912
3236.43463,0.07925
3234.50588,0.07930
3232.57713,0.07922
3230.64839,0.07893
3228.71964,0.07917
3226.79090,0.08034
3224.86215,0.08140
3222.93341,0.08160
3221.00466,0.08134
3219.07592,0.08109
3217.14717,0.08108
3215.21843,0.08132
3213.28968,0.08155
3211.36094,0.08153
3209.43219,0.08140
3207.50345,0.08162
3205.57470,0.08215
3203.64596,0.08254
3201.71721,0.08278
3199.78846,0.08300
3197.85972,0.08326
3195.93097,0.08372
3194.00223,0.08416
3192.07348,0.08429
3190.14474,0.08426
3188.21599,0.08424
3186.28725,0.08411
3184.35850,0.08400
3182.42976,0.08419
3180.50101,0.08464
3178.57227,0.08518
3176.64352,0.08564
3174.71478,0.08590
3172.78603,0.08615
3170.85729,0.08660
3168.92854,0.08703
3166.99979,0.08726
3165.07105,0.08735
3163.14230,0.08749
3161.21356,0.08771
3159.28481,0.08792
3157.35607,0.08811
3155.42732,0.08839
3153.49858,0.08880
3151.56983,0.08920
3149.64109,0.08951
3147.71234,0.08977
3145.78360,0.09011
3143.85485,0.09043
3141.92611,0.09047
3139.99736,0.09055
3138.06861,0.09099
3136.13987,0.09151
3134.21112,0.09173
3132.28238,0.09188
3130.35363,0.09217
3128.42489,0.09239
3126.49614,0.09272
3124.56740,0.09327
3122.63865,0.09353
3120.70991,0.09353
3118.78116,0.09361
3116.85242,0.09362
3114.92367,0.09348
3112.99493,0.09345
3111.06618,0.09367
3109.13744,0.09404
3107.20869,0.09426
3105.27994,0.09419
3103.35120,0.09425
3101.42245,0.09479
3099.49371,0.09563
3097.56496,0.09620
3095.63622,0.09613
3093.70747,0.09557
3091.77873,0.09475
3089.84998,0.09385
3087.92124,0.09298
3085.99249,0.09232
3084.06375,0.09212
3082.13500,0.09250
3080.20626,0.09340
3078.27751,0.09454
3076.34877,0.09545
3074.42002,0.09583
3072.49127,0.09576
3070.56253,0.09542
3068.63378,0.09484
3066.70504,0.09412
3064.77629,0.09335
3062.84755,0.09265
3060.91880,0.09233
3058.99006,0.09285
3057.06131,0.09410
3055.13257,0.09569
3053.20382,0.09719
3051.27508,0.09830
3049.34633,0.09914
3047.41759,0.09993
3045.48884,0.10050
3043.56009,0.10055
3041.63135,0.10000
3039.70260,0.09903
3037.77386,0.09775
3035.84511,0.09613
3033.91637,0.09414
3031.98762,0.09201
3030.05888,0.09009
3028.13013,0.08891
3026.20139,0.08913
3024.27264,0.09099
3022.34390,0.09391
3020.41515,0.09704
3018.48641,0.09979
3016.55766,0.10214
3014.62892,0.10419
3012.70017,0.10569
3010.77142,0.10620
3008.84268,0.10579
3006.91393,0.10511
3004.98519,0.10455
3003.05644,0.10407
3001.12770,0.10381
2999.19895,0.10400
2997.27021,0.10435
2995.34146,0.10442
2993.41272,0.10416
2991.48397,0.10372
2989.55523,0.10309
2987.62648,0.10200
2985.69774,0.10034
2983.76899,0.09845
2981.84025,0.09661
2979.91150,0.09474
2977.98275,0.09261
2976.05401,0.09031
2974.12526,0.08804
2972.19652,0.08577
2970.26777,0.08342
2968.33903,0.08121
2966.41028,0.07928
2964.48154,0.07766
2962.55279,0.07658
2960.62405,0.07604
2958.69530,0.07577
2956.76656,0.07573
2954.83781,0.07604
2952.90907,0.07665
2950.98032,0.07727
2949.05157,0.07757
2947.12283,0.07749
2945.19408,0.07720
2943.26534,0.07654
2941.33659,0.07548
2939.40785,0.07441
2937.47910,0.07347
2935.55036,0.07247
2933.62161,0.07157
2931.69287,0.07101
2929.76412,0.07083
2927.83538,0.07096
2925.90663,0.07126
2923.97789,0.07172
2922.04914,0.07234
2920.12040,0.07322
2918.19165,0.07445
2916.26290,0.07566
2914.33416,0.07660
2912.40541,0.07758
2910.47667,0.07885
2908.54792,0.08010
2906.61918,0.08107
2904.69043,0.08188
2902.76169,0.08278
2900.83294,0.08388
2898.90420,0.08512
2896.97545,0.08642
2895.04671,0.08753
2893.11796,0.08827
2891.18922,0.08889
2889.26047,0.08966
2887.33172,0.09040
2885.40298,0.09084
2883.47423,0.09086
2881.54549,0.09040
2879.61674,0.08963
2877.68800,0.08881
2875.75925,0.08822
2873.83051,0.08802
2871.90176,0.08821
2869.97302,0.08862
2868.04427,0.08905
2866.11553,0.08921
2864.18678,0.08900
2862.25804,0.08865
2860.32929,0.08837
2858.40055,0.08838
2856.47180,0.08893
2854.54305,0.09012
2852.61431,0.09181
2850.68556,0.09405
2848.75682,0.09691
2846.82807,0.10020
2844.89933,0.10370
2842.97058,0.10731
2841.04184,0.11084
2839.11309,0.11389
2837.18435,0.11641
2835.25560,0.11869
2833.32686,0.12085
2831.39811,0.12282
2829.46937,0.12458
2827.54062,0.12608
2825.61188,0.12734
2823.68313,0.12851
2821.75438,0.12976
2819.82564,0.13105
2817.89689,0.13222
2815.96815,0.13325
2814.03940,0.13420
2812.11066,0.13509
2810.18191,0.13607
2808.25317,0.13712
2806.32442,0.13799
2804.39568,0.13878
2802.46693,0.13966
2800.53819,0.14039
2798.60944,0.14096
2796.68070,0.14175
2794.75195,0.14283
2792.82320,0.14388
2790.89446,0.14456
2788.96571,0.14494
2787.03697,0.14538
2785.10822,0.14597
2783.17948,0.14647
2781.25073,0.14676
2779.32199,0.14713
2777.39324,0.14774
2775.46450,0.14842
2773.53575,0.14901
2771.60701,0.14939
2769.67826,0.14958
2767.74952,0.14997
2765.82077,0.15057
2763.89203,0.15102
2761.96328,0.15132
2760.03453,0.15171
2758.10579,0.15227
2756.17704,0.15283
2754.24830,0.15320
2752.31955,0.15344
2750.39081,0.15360
2748.46206,0.15372
2746.53332,0.15377
2744.60457,0.15381
2742.67583,0.15403
2740.74708,0.15441
2738.81834,0.15470
2736.88959,0.15484
2734.96085,0.15505
2733.03210,0.15548
2731.10336,0.15595
2729.17461,0.15634
2727.24586,0.15682
2725.31712,0.15745
2723.38837,0.15812
2721.45963,0.15879
2719.53088,0.15933
2717.60214,0.15969
2715.67339,0.16002
2713.74465,0.16057
2711.81590,0.16122
2709.88716,0.16174
2707.95841,0.16232
2706.02967,0.16310
2704.10092,0.16382
2702.17218,0.16435
2700.24343,0.16487
2698.31468,0.16554
2696.38594,0.16618
2694.45719,0.16666
2692.52845,0.16714
2690.59970,0.16778
2688.67096,0.16841
2686.74221,0.16893
2684.81347,0.16942
2682.88472,0.16995
2680.95598,0.17054
2679.02723,0.17126
2677.09849,0.17202
2675.16974,0.17254
2673.24100,0.17285
2671.31225,0.17306
2669.38351,0.17323
2667.45476,0.17356
2665.52601,0.17421
2663.59727,0.17494
2661.66852,0.17546
2659.73978,0.17579
2657.81103,0.17617
2655.88229,0.17662
2653.95354,0.17709
2652.02480,0.17754
2650.09605,0.17800
2648.16731,0.17856
2646.23856,0.17913
2644.30982,0.17951
2642.38107,0.17978
2640.45233,0.18014
2638.52358,0.18054
2636.59484,0.18083
2634.66609,0.18100
2632.73734,0.18105
2630.80860,0.18104
2628.87985,0.18127
2626.95111,0.18177
2625.02236,0.18225
2623.09362,0.18258
2621.16487,0.18285
2619.23613,0.18306
2617.30738,0.18313
2615.37864,0.18308
2613.44989,0.18310
2611.52115,0.18320
2609.59240,0.18318
2607.66366,0.18309
2605.73491,0.18306
2603.80616,0.18313
2601.87742,0.18329
2599.94867,0.18350
2598.01993,0.18374
2596.09118,0.18413
2594.16244,0.18456
2592.23369,0.18469
2590.30495,0.18470
2588.37620,0.18496
2586.44746,0.18533
2584.51871,0.18554
2582.58997,0.18562
2580.66122,0.18576
2578.73248,0.18590
2576.80373,0.18589
2574.87499,0.18595
2572.94624,0.18623
2571.01749,0.18637
2569.08875,0.18622
2567.16000,0.18596
2565.23126,0.18578
2563.30251,0.18583
2561.37377,0.18610
2559.44502,0.18635
2557.51628,0.18636
2555.58753,0.18609
2553.65879,0.18566
2551.73004,0.18522
2549.80130,0.18483
2547.87255,0.18458
2545.94381,0.18439
2544.01506,0.18402
2542.08631,0.18352
2540.15757,0.18308
2538.22882,0.18268
2536.30008,0.18212
2534.37133,0.18131
2532.44259,0.18028
2530.51384,0.17923
2528.58510,0.17826
2526.65635,0.17739
2524.72761,0.17672
2522.79886,0.17621
2520.87012,0.17576
2518.94137,0.17537
2517.01263,0.17511
2515.08388,0.17508
2513.15514,0.17532
2511.22639,0.17566
2509.29764,0.17609
2507.36890,0.17679
2505.44015,0.17786
2503.51141,0.17918
2501.58266,0.18073
2499.65392,0.18257
2497.72517,0.18454
2495.79643,0.18641
2493.86768,0.18825
2491.93894,0.19010
2490.01019,0.19183
2488.08145,0.19339
2486.15270,0.19477
2484.22396,0.19593
2482.29521,0.19701
2480.36647,0.19818
2478.43772,0.19943
2476.50897,0.20059
2474.58023,0.20155
2472.65148,0.20236
2470.72274,0.20302
2468.79399,0.20368
2466.86525,0.20441
2464.93650,0.20496
2463.00776,0.20521
2461.07901,0.20553
2459.15027,0.20604
2457.22152,0.20656
2455.29278,0.20700
2453.36403,0.20735
2451.43529,0.20756
2449.50654,0.20775
2447.57779,0.20817
2445.64905,0.20866
2443.72030,0.20881
2441.79156,0.20882
2439.86281,0.20900
2437.93407,0.20937
2436.00532,0.20978
2434.07658,0.21001
2432.14783,0.21003
2430.21909,0.21012
2428.29034,0.21036
2426.36160,0.21053
2424.43285,0.21063
2422.50411,0.21073
2420.57536,0.21075
2418.64662,0.21074
2416.71787,0.21085
2414.78912,0.21109
2412.86038,0.21134
2410.93163,0.21142
2409.00289,0.21140
2407.07414,0.21142
2405.14540,0.21142
2403.21665,0.21140
2401.28791,0.21140
2399.35916,0.21137
2397.43042,0.21131
2395.50167,0.21128
2393.57293,0.21122
2391.64418,0.21109
2389.71544,0.21110
2387.78669,0.21122
2385.85795,0.21125
2383.92920,0.21110
2382.00045,0.21093
2380.07171,0.21083
2378.14296,0.21077
2376.21422,0.21076
2374.28547,0.21075
2372.35673,0.21079
2370.42798,0.21089
2368.49924,0.21091
2366.57049,0.21071
2364.64175,0.21042
2362.71300,0.21026
2360.78426,0.21015
2358.85551,0.20991
2356.92677,0.20954
2354.99802,0.20933
2353.06927,0.20946
2351.14053,0.20952
2349.21178,0.20914
2347.28304,0.20859
2345.35429,0.20828
2343.42555,0.20821
2341.49680,0.20799
2339.56806,0.20759
2337.63931,0.20726
2335.71057,0.20721
2333.78182,0.20748
2331.85308,0.20787
2329.92433,0.20810
2327.99559,0.20812
2326.06684,0.20807
2324.13810,0.20792
2322.20935,0.20772
2320.28060,0.20762
2318.35186,0.20746
2316.42311,0.20702
2314.49437,0.20658
2312.56562,0.20643
2310.63688,0.20643
2308.70813,0.20635
2306.77939,0.20622
2304.85064,0.20626
2302.92190,0.20647
2300.99315,0.20657
2299.06441,0.20637
2297.13566,0.20590
2295.20692,0.20541
2293.27817,0.20516
2291.34943,0.20505
2289.42068,0.20484
2287.49193,0.20457
2285.56319,0.20441
2283.63444,0.20434
2281.70570,0.20422
2279.77695,0.20397
2277.84821,0.20360
2275.91946,0.20322
2273.99072,0.20287
2272.06197,0.20255
2270.13323,0.20230
2268.20448,0.20202
2266.27574,0.20160
2264.34699,0.20105
2262.41825,0.20063
2260.48950,0.20046
2258.56075,0.20021
2256.63201,0.19969
2254.70326,0.19917
2252.77452,0.19887
2250.84577,0.19868
2248.91703,0.19843
2246.98828,0.19817
2245.05954,0.19799
2243.13079,0.19774
2241.20205,0.19739
2239.27330,0.19712
2237.34456,0.19704
2235.41581,0.19699
2233.48707,0.19693
2231.55832,0.19699
2229.62958,0.19718
2227.70083,0.19738
2225.77208,0.19742
2223.84334,0.19736
2221.91459,0.19734
2219.98585,0.19735
2218.05710,0.19740
2216.12836,0.19752
2214.19961,0.19773
2212.27087,0.19797
2210.34212,0.19819
2208.41338,0.19840
2206.48463,0.19859
2204.55589,0.19871
2202.62714,0.19875
2200.69840,0.19867
2198.76965,0.19844
2196.84090,0.19830
2194.91216,0.19830
2192.98341,0.19823
2191.05467,0.19809
2189.12592,0.19782
2187.19718,0.19740
2185.26843,0.19706
2183.33969,0.19690
2181.41094,0.19679
2179.48220,0.19671
2177.55345,0.19652
2175.62471,0.19613
2173.69596,0.19569
2171.76722,0.19526
2169.83847,0.19487
2167.90973,0.19460
2165.98098,0.19438
2164.05223,0.19406
2162.12349,0.19363
2160.19474,0.19317
2158.26600,0.19266
2156.33725,0.19215
2154.40851,0.19181
2152.47976,0.19155
2150.55102,0.19117
2148.62227,0.19082
2146.69353,0.19061
2144.76478,0.19030
2142.83604,0.18991
2140.90729,0.18960
2138.97855,0.18938
2137.04980,0.18936
2135.12106,0.18952
2133.19231,0.18968
2131.26356,0.18981
2129.33482,0.19003
2127.40607,0.19038
2125.47733,0.19070
2123.54858,0.19079
2121.61984,0.19080
2119.69109,0.19110
2117.76235,0.19159
2115.83360,0.19196
2113.90486,0.19224
2111.97611,0.19248
2110.04737,0.19259
2108.11862,0.19268
2106.18988,0.19283
2104.26113,0.19304
2102.33238,0.19327
2100.40364,0.19343
2098.47489,0.19351
2096.54615,0.19355
2094.61740,0.19355
2092.68866,0.19357
2090.75991,0.19364
2088.83117,0.19373
2086.90242,0.19380
2084.97368,0.19384
2083.04493,0.19390
2081.11619,0.19403
2079.18744,0.19423
2077.25870,0.19422
2075.32995,0.19386
2073.40121,0.19349
2071.47246,0.19334
2069.54371,0.19327
2067.61497,0.19316
2065.68622,0.19295
2063.75748,0.19262
2061.82873,0.19223
2059.89999,0.19189
2057.97124,0.19156
2056.04250,0.19123
2054.11375,0.19091
2052.18501,0.19047
2050.25626,0.18985
2048.32752,0.18918
2046.39877,0.18857
2044.47003,0.18788
2042.54128,0.18692
2040.61254,0.18579
2038.68379,0.18468
2036.75504,0.18367
2034.82630,0.18277
2032.89755,0.18192
2030.96881,0.18112
2029.04006,0.18044
2027.11132,0.18005
2025.18257,0.17999
2023.25383,0.17998
2021.32508,0.17976
2019.39634,0.17940
2017.46759,0.17887
2015.53885,0.17804
2013.61010,0.17702
2011.68136,0.17602
2009.75261,0.17508
2007.82386,0.17416
2005.89512,0.17322
2003.96637,0.17233
2002.03763,0.17164
2000.10888,0.17114
1998.18014,0.17086
1996.25139,0.17079
1994.32265,0.17064
1992.39390,0.17026
1990.46516,0.16985
1988.53641,0.16962
1986.60767,0.16956
1984.67892,0.16954
1982.75018,0.16941
1980.82143,0.16915
1978.89269,0.16892
1976.96394,0.16888
1975.03519,0.16885
1973.10645,0.16853
1971.17770,0.16798
1969.24896,0.16742
1967.32021,0.16697
1965.39147,0.16659
1963.46272,0.16619
1961.53398,0.16571
1959.60523,0.16517
1957.67649,0.16459
1955.74774,0.16403
1953.81900,0.16352
1951.89025,0.16302
1949.96151,0.16238
1948.03276,0.16176
1946.10402,0.16137
1944.17527,0.16122
1942.24652,0.16136
1940.31778,0.16182
1938.38903,0.16254
1936.46029,0.16345
1934.53154,0.16447
1932.60280,0.16544
1930.67405,0.16624
1928.74531,0.16680
1926.81656,0.16710
1924.88782,0.16722
1922.95907,0.16716
1921.03033,0.16686
1919.10158,0.16632
1917.17284,0.16560
1915.24409,0.16485
1913.31534,0.16403
1911.38660,0.16308
1909.45785,0.16190
1907.52911,0.16046
1905.60036,0.15896
1903.67162,0.15745
1901.74287,0.15590
1899.81413,0.15437
1897.88538,0.15291
1895.95664,0.15145
1894.02789,0.15002
1892.09915,0.14877
1890.17040,0.14766
1888.24166,0.14653
1886.31291,0.14550
1884.38417,0.14470
1882.45542,0.14403
1880.52667,0.14331
1878.59793,0.14255
1876.66918,0.14193
1874.74044,0.14144
1872.81169,0.14097
1870.88295,0.14066
1868.95420,0.14072
1867.02546,0.14108
1865.09671,0.14168
1863.16797,0.14271
1861.23922,0.14420
1859.31048,0.14592
1857.38173,0.14773
1855.45299,0.14955
1853.52424,0.15130
1851.59549,0.15298
1849.66675,0.15451
1847.73800,0.15576
1845.80926,0.15671
1843.88051,0.15730
1841.95177,0.15737
1840.02302,0.15718
1838.09428,0.15689
1836.16553,0.15641
1834.23679,0.15567
1832.30804,0.15473
1830.37930,0.15360
1828.45055,0.15226
1826.52181,0.15069
1824.59306,0.14891
1822.66432,0.14725
1820.73557,0.14581
1818.80682,0.14429
1816.87808,0.14271
1814.94933,0.14121
1813.02059,0.13957
1811.09184,0.13768
1809.16310,0.13567
1807.23435,0.13351
1805.30561,0.13108
1803.37686,0.12836
1801.44812,0.12569
1799.51937,0.12356
1797.59063,0.12222
1795.66188,0.12168
1793.73314,0.12195
1791.80439,0.12298
1789.87565,0.12440
1787.94690,0.12578
1786.01815,0.12696
1784.08941,0.12786
1782.16066,0.12847
1780.23192,0.12886
1778.30317,0.12914
1776.37443,0.12946
1774.44568,0.12984
1772.51694,0.12998
1770.58819,0.12969
1768.65945,0.12928
1766.73070,0.12893
1764.80196,0.12850
1762.87321,0.12770
1760.94447,0.12636
1759.01572,0.12469
1757.08697,0.12265
1755.15823,0.12025
1753.22948,0.11773
1751.30074,0.11471
1749.37199,0.11073
1747.44325,0.10596
1745.51450,0.10048
1743.58576,0.09418
1741.65701,0.08716
1739.72827,0.07973
1737.79952,0.07328
1735.87078,0.06862
1733.94203,0.06547
1732.01329,0.06433
1730.08454,0.06502
1728.15580,0.06674
1726.22705,0.06936
1724.29830,0.07300
1722.36956,0.07720
1720.44081,0.08126
1718.51207,0.08537
1716.58332,0.08923
1714.65458,0.09169
1712.72583,0.09286
1710.79709,0.09319
1708.86834,0.09295
1706.93960,0.09238
1705.01085,0.09161
1703.08211,0.09081
1701.15336,0.08989
1699.22462,0.08879
1697.29587,0.08772
1695.36713,0.08645
1693.43838,0.08513
1691.50963,0.08409
1689.58089,0.08305
1687.65214,0.08193
1685.72340,0.08080
1683.79465,0.07958
1681.86591,0.07855
1679.93716,0.07780
1678.00842,0.07711
1676.07967,0.07618
1674.15093,0.07510
1672.22218,0.07421
1670.29344,0.07341
1668.36469,0.07272
1666.43595,0.07229
1664.50720,0.07193
1662.57845,0.07148
1660.64971,0.07095
1658.72096,0.07044
1656.79222,0.07006
1654.86347,0.06970
1652.93473,0.06914
1651.00598,0.06869
1649.07724,0.06851
1647.14849,0.06824
1645.21975,0.06777
1643.29100,0.06728
1641.36226,0.06691
1639.43351,0.06661
1637.50477,0.06620
1635.57602,0.06564
1633.64728,0.06522
1631.71853,0.06493
1629.78978,0.06467
1627.86104,0.06443
1625.93229,0.06414
1624.00355,0.06377
1622.07480,0.06337
1620.14606,0.06296
1618.21731,0.06254
1616.28857,0.06210
1614.35982,0.06170
1612.43108,0.06133
1610.50233,0.06082
1608.57359,0.06012
1606.64484,0.05927
1604.71610,0.05839
1602.78735,0.05786
1600.85861,0.05801
1598.92986,0.05865
1597.00111,0.05925
1595.07237,0.05954
1593.14362,0.05979
1591.21488,0.06000
1589.28613,0.05992
1587.35739,0.05959
1585.42864,0.05926
1583.49990,0.05921
1581.57115,0.05955
1579.64241,0.05999
1577.71366,0.06026
1575.78492,0.06037
1573.85617,0.06047
1571.92743,0.06065
1569.99868,0.06085
1568.06993,0.06098
1566.14119,0.06125
1564.21244,0.06176
1562.28370,0.06225
1560.35495,0.06258
1558.42621,0.06295
1556.49746,0.06350
1554.56872,0.06399
1552.63997,0.06433
1550.71123,0.06474
1548.78248,0.06532
1546.85374,0.06584
1544.92499,0.06620
1542.99625,0.06662
1541.06750,0.06719
1539.13876,0.06794
1537.21001,0.06861
1535.28126,0.06909
1533.35252,0.06953
1531.42377,0.07005
1529.49503,0.07061
1527.56628,0.07105
1525.63754,0.07130
1523.70879,0.07144
1521.78005,0.07144
1519.85130,0.07128
1517.92256,0.07109
1515.99381,0.07088
1514.06507,0.07066
1512.13632,0.07050
1510.20758,0.07036
1508.27883,0.06995
1506.35008,0.06891
1504.42134,0.06768
1502.49259,0.06655
1500.56385,0.06500
1498.63510,0.06260
1496.70636,0.05981
1494.77761,0.05831
1492.84887,0.05899
1490.92012,0.06103
1488.99138,0.06294
1487.06263,0.06373
1485.13389,0.06373
1483.20514,0.06341
1481.27640,0.06282
1479.34765,0.06199
1477.41891,0.06102
1475.49016,0.05995
1473.56141,0.05863
1471.63267,0.05712
1469.70392,0.05603
1467.77518,0.05555
1465.84643,0.05523
1463.91769,0.05473
1461.98894,0.05414
1460.06020,0.05359
1458.13145,0.05287
1456.20271,0.05199
1454.27396,0.05177
1452.34522,0.05251
1450.41647,0.05364
1448.48773,0.05454
1446.55898,0.05511
1444.63024,0.05568
1442.70149,0.05632
1440.77274,0.05691
1438.84400,0.05738
1436.91525,0.05765
1434.98651,0.05761
1433.05776,0.05747
1431.12902,0.05744
1429.20027,0.05753
1427.27153,0.05768
1425.34278,0.05772
1423.41404,0.05764
1421.48529,0.05766
1419.55655,0.05794
1417.62780,0.05836
1415.69906,0.05874
1413.77031,0.05913
1411.84156,0.05958
1409.91282,0.06015
1407.98407,0.06084
1406.05533,0.06148
1404.12658,0.06195
1402.19784,0.06231
1400.26909,0.06271
1398.34035,0.06318
1396.41160,0.06367
1394.48286,0.06419
1392.55411,0.06479
1390.62537,0.06547
1388.69662,0.06600
1386.76788,0.06605
1384.83913,0.06578
1382.91039,0.06557
1380.98164,0.06553
1379.05289,0.06560
1377.12415,0.06579
1375.19540,0.06615
1373.26666,0.06662
1371.33791,0.06699
1369.40917,0.06722
1367.48042,0.06748
1365.55168,0.06776
1363.62293,0.06789
1361.69419,0.06793
1359.76544,0.06812
1357.83670,0.06846
1355.90795,0.06887
1353.97921,0.06932
1352.05046,0.06980
1350.12172,0.07030
1348.19297,0.07090
1346.26422,0.07156
1344.33548,0.07202
1342.40673,0.07202
1340.47799,0.07179
1338.54924,0.07179
1336.62050,0.07204
1334.69175,0.07233
1332.76301,0.07261
1330.83426,0.07278
1328.90552,0.07272
1326.97677,0.07247
1325.04803,0.07224
1323.11928,0.07211
1321.19054,0.07210
1319.26179,0.07216
1317.33304,0.07227
1315.40430,0.07257
1313.47555,0.07318
1311.54681,0.07398
1309.61806,0.07478
1307.68932,0.07559
1305.76057,0.07652
1303.83183,0.07748
1301.90308,0.07817
1299.97434,0.07863
1298.04559,0.07894
1296.11685,0.07891
1294.18810,0.07873
1292.25936,0.07865
1290.33061,0.07845
1288.40187,0.07799
1286.47312,0.07745
1284.54437,0.07692
1282.61563,0.07645
1280.68688,0.07621
1278.75814,0.07632
1276.82939,0.07671
1274.90065,0.07709
1272.97190,0.07719
1271.04316,0.07708
1269.11441,0.07699
1267.18567,0.07703
1265.25692,0.07715
1263.32818,0.07732
1261.39943,0.07747
1259.47069,0.07766
1257.54194,0.07796
1255.61320,0.07828
1253.68445,0.07855
1251.75570,0.07878
1249.82696,0.07901
1247.89821,0.07924
1245.96947,0.07947
1244.04072,0.07983
1242.11198,0.08032
1240.18323,0.08072
1238.25449,0.08109
1236.32574,0.08152
1234.39700,0.08194
1232.46825,0.08239
1230.53951,0.08286
1228.61076,0.08323
1226.68202,0.08342
1224.75327,0.08336
1222.82452,0.08311
1220.89578,0.08278
1218.96703,0.08231
1217.03829,0.08149
1215.10954,0.08033
1213.18080,0.07911
1211.25205,0.07803
1209.32331,0.07698
1207.39456,0.07590
1205.46582,0.07500
1203.53707,0.07437
1201.60833,0.07395
1199.67958,0.07371
1197.75084,0.07361
1195.82209,0.07359
1193.89335,0.07356
1191.96460,0.07343
1190.03585,0.07322
1188.10711,0.07292
1186.17836,0.07254
1184.24962,0.07212
1182.32087,0.07175
1180.39213,0.07148
1178.46338,0.07128
1176.53464,0.07107
1174.60589,0.07083
1172.67715,0.07064
1170.74840,0.07056
1168.81966,0.07051
1166.89091,0.07039
1164.96217,0.07010
1163.03342,0.06972
1161.10467,0.06941
1159.17593,0.06936
1157.24718,0.07004
1155.31844,0.07146
1153.38969,0.07302
1151.46095,0.07446
1149.53220,0.07577
1147.60346,0.07685
1145.67471,0.07761
1143.74597,0.07806
1141.81722,0.07833
1139.88848,0.07868
1137.95973,0.07934
1136.03099,0.08015
1134.10224,0.08057
1132.17350,0.08060
1130.24475,0.08064
1128.31600,0.08077
1126.38726,0.08087
1124.45851,0.08093
1122.52977,0.08096
1120.60102,0.08100
1118.67228,0.08124
1116.74353,0.08170
1114.81479,0.08220
1112.88604,0.08281
1110.95730,0.08361
1109.02855,0.08425
1107.09981,0.08467
1105.17106,0.08508
1103.24232,0.08557
1101.31357,0.08644
1099.38483,0.08769
1097.45608,0.08887
1095.52733,0.08971
1093.59859,0.09022
1091.66984,0.09054
1089.74110,0.09100
1087.81235,0.09175
1085.88361,0.09241
1083.95486,0.09276
1082.02612,0.09306
1080.09737,0.09341
1078.16863,0.09378
1076.23988,0.09409
1074.31114,0.09416
1072.38239,0.09405
1070.45365,0.09393
1068.52490,0.09367
1066.59615,0.09304
1064.66741,0.09199
1062.73866,0.09095
1060.80992,0.09026
1058.88117,0.08980
1056.95243,0.08954
1055.02368,0.08973
1053.09494,0.09049
1051.16619,0.09178
1049.23745,0.09346
1047.30870,0.09521
1045.37996,0.09692
1043.45121,0.09883
1041.52247,0.10096
1039.59372,0.10302
1037.66498,0.10477
1035.73623,0.10624
1033.80748,0.10761
1031.87874,0.10890
1029.94999,0.11001
1028.02125,0.11103
1026.09250,0.11216
1024.16376,0.11341
1022.23501,0.11438
1020.30627,0.11470
1018.37752,0.11462
1016.44878,0.11400
1014.52003,0.11220
1012.59129,0.10950
1010.66254,0.10660
1008.73380,0.10367
1006.80505,0.10095
1004.87631,0.09862
1002.94756,0.09643
1001.01881,0.09442
999.09007,0.09274
997.16132,0.09126
995.23258,0.08981
993.30383,0.08849
991.37509,0.08760
989.44634,0.08710
987.51760,0.08654
985.58885,0.08562
983.66011,0.08438
981.73136,0.08312
979.80262,0.08204
977.87387,0.08105
975.94513,0.08018
974.01638,0.07939
972.08763,0.07850
970.15889,0.07748
968.23014,0.07649
966.30140,0.07559
964.37265,0.07464
962.44391,0.07362
960.51516,0.07277
958.58642,0.07233
956.65767,0.07215
954.72893,0.07192
952.80018,0.07166
950.87144,0.07150
948.94269,0.07140
947.01395,0.07124
945.08520,0.07097
943.15646,0.07077
941.22771,0.07083
939.29896,0.07084
937.37022,0.07043
935.44147,0.07000
933.51273,0.06998
931.58398,0.07002
929.65524,0.06975
927.72649,0.06940
925.79775,0.06922
923.86900,0.06905
921.94026,0.06862
920.01151,0.06791
918.08277,0.06711
916.15402,0.06652
914.22528,0.06619
912.29653,0.06581
910.36779,0.06530
908.43904,0.06486
906.51029,0.06462
904.58155,0.06459
902.65280,0.06451
900.72406,0.06414
898.79531,0.06386
896.86657,0.06394
894.93782,0.06400
893.00908,0.06381
891.08033,0.06365
889.15159,0.06378
887.22284,0.06386
885.29410,0.06349
883.36535,0.06283
881.43661,0.06200
879.50786,0.06101
877.57911,0.06023
875.65037,0.05996
873.72162,0.06008
871.79288,0.06024
869.86413,0.06034
867.93539,0.06064
866.00664,0.06091
864.07790,0.06086
862.14915,0.06086
860.22041,0.06101
858.29166,0.06088
856.36292,0.06053
854.43417,0.06021
852.50543,0.05986
850.57668,0.05940
848.64794,0.05876
846.71919,0.05795
844.79044,0.05713
842.86170,0.05660
840.93295,0.05653
839.00421,0.05662
837.07546,0.05649
835.14672,0.05617
833.21797,0.05560
831.28923,0.05443
829.36048,0.05311
827.43174,0.05259
825.50299,0.05252
823.57425,0.05198
821.64550,0.05109
819.71676,0.05035
817.78801,0.04989
815.85926,0.04949
813.93052,0.04887
812.00177,0.04819
810.07303,0.04805
808.14428,0.04860
806.21554,0.04909
804.28679,0.04913
802.35805,0.04905
800.42930,0.04891
798.50056,0.04842
796.57181,0.04776
794.64307,0.04726
792.71432,0.04685
790.78558,0.04628
788.85683,0.04579
786.92809,0.04583
784.99934,0.04618
783.07059,0.04628
781.14185,0.04615
779.21310,0.04615
777.28436,0.04606
775.35561,0.04555
773.42687,0.04482
771.49812,0.04425
769.56938,0.04394
767.64063,0.04420
765.71189,0.04511
763.78314,0.04591
761.85440,0.04595
759.92565,0.04536
757.99691,0.04438
756.06816,0.04359
754.13942,0.04356
752.21067,0.04375
750.28192,0.04339
748.35318,0.04284
746.42443,0.04262
744.49569,0.04252
742.56694,0.04230
740.63820,0.04196
738.70945,0.04165
736.78071,0.04164
734.85196,0.04191
732.92322,0.04217
730.99447,0.04230
729.06573,0.04224
727.13698,0.04200
725.20824,0.04189
723.27949,0.04205
721.35074,0.04248
719.42200,0.04302
717.49325,0.04322
715.56451,0.04309
713.63576,0.04339
711.70702,0.04416
709.77827,0.04497
707.84953,0.04603
705.92078,0.04766
703.99204,0.05010
702.06329,0.05315
700.13455,0.05539
698.20580,0.05534
696.27706,0.05340
694.34831,0.05167
692.41957,0.05138
690.49082,0.05213
688.56207,0.05370
686.63333,0.05589
684.70458,0.05784
682.77584,0.05923
680.84709,0.06082
678.91835,0.06345
676.98960,0.06706
675.06086,0.07108
673.13211,0.07471
671.20337,0.07684
669.27462,0.07672
667.34588,0.07440
665.41713,0.07116
663.48839,0.06868
661.55964,0.06717
659.63090,0.06561
657.70215,0.06392
655.77340,0.06294
653.84466,0.06245
651.91591,0.06191
649.98717,0.06163
648.05842,0.06186
646.12968,0.06191
644.20093,0.06087
642.27219,0.05907
640.34344,0.05752
638.41470,0.05658
636.48595,0.05593
634.55721,0.05535
632.62846,0.05535
630.69972,0.05609
628.77097,0.05700
626.84222,0.05751
624.91348,0.05764
622.98473,0.05784
621.05599,0.05790
619.12724,0.05738
617.19850,0.05637
615.26975,0.05567
613.34101,0.05583
611.41226,0.05653
609.48352,0.05794
607.55477,0.06030
605.62603,0.06212
603.69728,0.06190
601.76854,0.06061
599.83979,0.06016
