7497.01352,0.73279
7495.08478,0.73014
7493.15604,0.72784
7491.22730,0.73005
7489.29856,0.73540
7487.36982,0.73642
7485.44108,0.73159
7483.51233,0.72716
7481.58359,0.72607
7479.65485,0.72712
7477.72611,0.72845
7475.79737,0.72842
7473.86863,0.72887
7471.93989,0.73091
7470.01115,0.73125
7468.08241,0.72958
7466.15367,0.72865
7464.22493,0.72726
7462.29619,0.72317
7460.36745,0.71949
7458.43871,0.72034
7456.50997,0.72385
7454.58123,0.72485
7452.65249,0.72249
7450.72375,0.72028
7448.79501,0.71884
7446.86627,0.71714
7444.93753,0.71633
7443.00879,0.71547
7441.08005,0.71352
7439.15131,0.71275
7437.22257,0.71402
7435.29383,0.71510
7433.36509,0.71409
7431.43635,0.71207
7429.50761,0.71090
7427.57887,0.71064
7425.65013,0.71093
7423.72139,0.71086
7421.79265,0.71043
7419.86391,0.71113
7417.93516,0.71198
7416.00642,0.71058
7414.07768,0.70773
7412.14894,0.70648
7410.22020,0.70708
7408.29146,0.70668
7406.36272,0.70328
7404.43398,0.69796
7402.50524,0.69502
7400.57650,0.69733
7398.64776,0.70173
7396.71902,0.70251
7394.79028,0.69938
7392.86154,0.69683
7390.93280,0.69662
7389.00406,0.69849
7387.07532,0.70143
7385.14658,0.70253
7383.21784,0.70129
7381.28910,0.69975
7379.36036,0.69923
7377.43162,0.69946
7375.50288,0.69858
7373.57414,0.69542
7371.64540,0.69206
7369.71666,0.69153
7367.78792,0.69295
7365.85918,0.69430
7363.93044,0.69588
7362.00170,0.69640
7360.07296,0.69471
7358.14422,0.69258
7356.21548,0.69156
7354.28674,0.69299
7352.35799,0.69673
7350.42925,0.69812
7348.50051,0.69420
7346.57177,0.68882
7344.64303,0.68697
7342.71429,0.68859
7340.78555,0.68919
7338.85681,0.68640
7336.92807,0.68256
7334.99933,0.68062
7333.07059,0.68145
7331.14185,0.68262
7329.21311,0.68168
7327.28437,0.67986
7325.35563,0.67899
7323.42689,0.67924
7321.49815,0.67978
7319.56941,0.67941
7317.64067,0.67830
7315.71193,0.67736
7313.78319,0.67648
7311.85445,0.67552
7309.92571,0.67586
7307.99697,0.67857
7306.06823,0.68087
7304.13949,0.67954
7302.21075,0.67778
7300.28201,0.67918
7298.35327,0.68085
7296.42453,0.68088
7294.49579,0.68033
7292.56705,0.67795
7290.63831,0.67522
7288.70957,0.67646
7286.78082,0.68025
7284.85208,0.68067
7282.92334,0.67642
7280.99460,0.67253
7279.06586,0.67116
7277.13712,0.67080
7275.20838,0.67141
7273.27964,0.67178
7271.35090,0.67158
7269.42216,0.67267
7267.49342,0.67475
7265.56468,0.67598
7263.63594,0.67615
7261.70720,0.67699
7259.77846,0.67832
7257.84972,0.67804
7255.92098,0.67605
7253.99224,0.67398
7252.06350,0.67307
7250.13476,0.67269
7248.20602,0.67256
7246.27728,0.67354
7244.34854,0.67568
7242.41980,0.67817
7240.49106,0.67914
7238.56232,0.67849
7236.63358,0.67799
7234.70484,0.67696
7232.77610,0.67496
7230.84736,0.67394
7228.91862,0.67312
7226.98988,0.67164
7225.06114,0.67116
7223.13240,0.67129
7221.20366,0.67121
7219.27491,0.67079
7217.34617,0.67001
7215.41743,0.67110
7213.48869,0.67380
7211.55995,0.67475
7209.63121,0.67335
7207.70247,0.67106
7205.77373,0.66964
7203.84499,0.66933
7201.91625,0.66804
7199.98751,0.66604
7198.05877,0.66503
7196.13003,0.66454
7194.20129,0.66536
7192.27255,0.66824
7190.34381,0.67081
7188.41507,0.67069
7186.48633,0.66652
7184.55759,0.66032
7182.62885,0.65774
7180.70011,0.65958
7178.77137,0.66126
7176.84263,0.66157
7174.91389,0.66179
7172.98515,0.66191
7171.05641,0.66227
7169.12767,0.66127
7167.19893,0.65674
7165.27019,0.65238
7163.34145,0.65215
7161.41271,0.65280
7159.48397,0.65124
7157.55523,0.64939
7155.62649,0.64760
7153.69774,0.64553
7151.76900,0.64467
7149.84026,0.64458
7147.91152,0.64450
7145.98278,0.64491
7144.05404,0.64503
7142.12530,0.64388
7140.19656,0.64211
7138.26782,0.64106
7136.33908,0.64117
7134.41034,0.64109
7132.48160,0.63895
7130.55286,0.63570
7128.62412,0.63322
7126.69538,0.63107
7124.76664,0.62868
7122.83790,0.62600
7120.90916,0.62360
7118.98042,0.62321
7117.05168,0.62429
7115.12294,0.62428
7113.19420,0.62239
7111.26546,0.61953
7109.33672,0.61710
7107.40798,0.61625
7105.47924,0.61649
7103.55050,0.61650
7101.62176,0.61620
7099.69302,0.61502
7097.76428,0.61171
7095.83554,0.60828
7093.90680,0.60723
7091.97806,0.60669
7090.04932,0.60410
7088.12057,0.60050
7086.19183,0.59898
7084.26309,0.59973
7082.33435,0.59973
7080.40561,0.59795
7078.47687,0.59557
7076.54813,0.59284
7074.61939,0.58980
7072.69065,0.58780
7070.76191,0.58721
7068.83317,0.58645
7066.90443,0.58558
7064.97569,0.58531
7063.04695,0.58416
7061.11821,0.58131
7059.18947,0.57859
7057.26073,0.57751
7055.33199,0.57751
7053.40325,0.57769
7051.47451,0.57703
7049.54577,0.57525
7047.61703,0.57419
7045.68829,0.57356
7043.75955,0.57079
7041.83081,0.56617
7039.90207,0.56177
7037.97333,0.55886
7036.04459,0.55835
7034.11585,0.55931
7032.18711,0.55909
7030.25837,0.55762
7028.32963,0.55614
7026.40089,0.55407
7024.47215,0.55202
7022.54340,0.55164
7020.61466,0.55130
7018.68592,0.54898
7016.75718,0.54692
7014.82844,0.54699
7012.89970,0.54687
7010.97096,0.54526
7009.04222,0.54411
7007.11348,0.54430
7005.18474,0.54456
7003.25600,0.54337
7001.32726,0.54033
6999.39852,0.53808
6997.46978,0.53882
6995.54104,0.53994
6993.61230,0.53876
6991.68356,0.53671
6989.75482,0.53551
6987.82608,0.53450
6985.89734,0.53307
6983.96860,0.53170
6982.03986,0.53060
6980.11112,0.52993
6978.18238,0.52940
6976.25364,0.52845
6974.32490,0.52744
6972.39616,0.52619
6970.46742,0.52515
6968.53868,0.52620
6966.60994,0.52832
6964.68120,0.52838
6962.75246,0.52710
6960.82372,0.52747
6958.89498,0.52886
6956.96623,0.52884
6955.03749,0.52735
6953.10875,0.52561
6951.18001,0.52426
6949.25127,0.52366
6947.32253,0.52410
6945.39379,0.52430
6943.46505,0.52196
6941.53631,0.51828
6939.60757,0.51741
6937.67883,0.51968
6935.75009,0.52198
6933.82135,0.52259
6931.89261,0.52145
6929.96387,0.51972
6928.03513,0.51809
6926.10639,0.51652
6924.17765,0.51626
6922.24891,0.51701
6920.32017,0.51696
6918.39143,0.51677
6916.46269,0.51768
6914.53395,0.51841
6912.60521,0.51750
6910.67647,0.51608
6908.74773,0.51631
6906.81899,0.51761
6904.89025,0.51780
6902.96151,0.51653
6901.03277,0.51525
6899.10403,0.51560
6897.17529,0.51701
6895.24655,0.51706
6893.31781,0.51610
6891.38907,0.51564
6889.46032,0.51537
6887.53158,0.51478
6885.60284,0.51375
6883.67410,0.51284
6881.74536,0.51344
6879.81662,0.51529
6877.88788,0.51598
6875.95914,0.51511
6874.03040,0.51473
6872.10166,0.51516
6870.17292,0.51514
6868.24418,0.51446
6866.31544,0.51411
6864.38670,0.51446
6862.45796,0.51428
6860.52922,0.51282
6858.60048,0.51190
6856.67174,0.51345
6854.74300,0.51496
6852.81426,0.51427
6850.88552,0.51350
6848.95678,0.51265
6847.02804,0.51099
6845.09930,0.51090
6843.17056,0.51223
6841.24182,0.51258
6839.31308,0.51210
6837.38434,0.51178
6835.45560,0.51122
6833.52686,0.51047
6831.59812,0.51048
6829.66938,0.51109
6827.74064,0.51126
6825.81190,0.51108
6823.88315,0.51101
6821.95441,0.51104
6820.02567,0.51167
6818.09693,0.51323
6816.16819,0.51478
6814.23945,0.51491
6812.31071,0.51387
6810.38197,0.51323
6808.45323,0.51367
6806.52449,0.51388
6804.59575,0.51200
6802.66701,0.50975
6800.73827,0.51004
6798.80953,0.51147
6796.88079,0.51147
6794.95205,0.50991
6793.02331,0.50821
6791.09457,0.50751
6789.16583,0.50770
6787.23709,0.50865
6785.30835,0.50998
6783.37961,0.51072
6781.45087,0.51073
6779.52213,0.51059
6777.59339,0.51104
6775.66465,0.51225
6773.73591,0.51313
6771.80717,0.51279
6769.87843,0.51151
6767.94969,0.50977
6766.02095,0.50829
6764.09221,0.50824
6762.16347,0.50969
6760.23473,0.51092
6758.30598,0.51091
6756.37724,0.51103
6754.44850,0.51189
6752.51976,0.51255
6750.59102,0.51302
6748.66228,0.51314
6746.73354,0.51225
6744.80480,0.51110
6742.87606,0.51119
6740.94732,0.51200
6739.01858,0.51157
6737.08984,0.51048
6735.16110,0.51064
6733.23236,0.51193
6731.30362,0.51329
6729.37488,0.51386
6727.44614,0.51359
6725.51740,0.51368
6723.58866,0.51468
6721.65992,0.51502
6719.73118,0.51385
6717.80244,0.51298
6715.87370,0.51366
6713.94496,0.51499
6712.01622,0.51575
6710.08748,0.51512
6708.15874,0.51342
6706.23000,0.51296
6704.30126,0.51479
6702.37252,0.51631
6700.44378,0.51594
6698.51504,0.51487
6696.58630,0.51425
6694.65756,0.51527
6692.72881,0.51746
6690.80007,0.51755
6688.87133,0.51464
6686.94259,0.51276
6685.01385,0.51418
6683.08511,0.51619
6681.15637,0.51768
6679.22763,0.51954
6677.29889,0.52046
6675.37015,0.51986
6673.44141,0.51905
6671.51267,0.51867
6669.58393,0.51903
6667.65519,0.52023
6665.72645,0.52072
6663.79771,0.51951
6661.86897,0.51909
6659.94023,0.52117
6658.01149,0.52336
6656.08275,0.52327
6654.15401,0.52205
6652.22527,0.52173
6650.29653,0.52220
6648.36779,0.52298
6646.43905,0.52348
6644.51031,0.52287
6642.58157,0.52212
6640.65283,0.52262
6638.72409,0.52404
6636.79535,0.52520
6634.86661,0.52618
6632.93787,0.52740
6631.00913,0.52756
6629.08039,0.52683
6627.15164,0.52702
6625.22290,0.52795
6623.29416,0.52938
6621.36542,0.53084
6619.43668,0.53029
6617.50794,0.52860
6615.57920,0.52832
6613.65046,0.52876
6611.72172,0.52900
6609.79298,0.52985
6607.86424,0.53093
6605.93550,0.53165
6604.00676,0.53260
6602.07802,0.53335
6600.14928,0.53303
6598.22054,0.53277
6596.29180,0.53354
6594.36306,0.53466
6592.43432,0.53543
6590.50558,0.53566
6588.57684,0.53511
6586.64810,0.53407
6584.71936,0.53382
6582.79062,0.53480
6580.86188,0.53574
6578.93314,0.53635
6577.00440,0.53698
6575.07566,0.53734
6573.14692,0.53790
6571.21818,0.53920
6569.28944,0.54012
6567.36070,0.53936
6565.43196,0.53809
6563.50322,0.53861
6561.57448,0.53994
6559.64573,0.53970
6557.71699,0.53852
6555.78825,0.53740
6553.85951,0.53653
6551.93077,0.53726
6550.00203,0.53943
6548.07329,0.54043
6546.14455,0.53941
6544.21581,0.53825
6542.28707,0.53810
6540.35833,0.53837
6538.42959,0.53830
6536.50085,0.53822
6534.57211,0.53927
6532.64337,0.54100
6530.71463,0.54164
6528.78589,0.54131
6526.85715,0.54141
6524.92841,0.54195
6522.99967,0.54220
6521.07093,0.54205
6519.14219,0.54154
6517.21345,0.54011
6515.28471,0.53774
6513.35597,0.53620
6511.42723,0.53712
6509.49849,0.53918
6507.56975,0.54013
6505.64101,0.54050
6503.71227,0.54109
6501.78353,0.54146
6499.85479,0.54199
6497.92605,0.54213
6495.99731,0.54098
6494.06856,0.53999
6492.13982,0.54016
6490.21108,0.54062
6488.28234,0.54136
6486.35360,0.54247
6484.42486,0.54185
6482.49612,0.53884
6480.56738,0.53718
6478.63864,0.53912
6476.70990,0.54134
6474.78116,0.54133
6472.85242,0.54176
6470.92368,0.54390
6468.99494,0.54445
6467.06620,0.54261
6465.13746,0.54179
6463.20872,0.54273
6461.27998,0.54344
6459.35124,0.54383
6457.42250,0.54445
6455.49376,0.54460
6453.56502,0.54393
6451.63628,0.54326
6449.70754,0.54333
6447.77880,0.54348
6445.85006,0.54336
6443.92132,0.54387
6441.99258,0.54491
6440.06384,0.54525
6438.13510,0.54477
6436.20636,0.54465
6434.27762,0.54528
6432.34888,0.54576
6430.42014,0.54593
6428.49139,0.54628
6426.56265,0.54661
6424.63391,0.54677
6422.70517,0.54649
6420.77643,0.54552
6418.84769,0.54451
6416.91895,0.54422
6414.99021,0.54456
6413.06147,0.54530
6411.13273,0.54669
6409.20399,0.54780
6407.27525,0.54725
6405.34651,0.54628
6403.41777,0.54615
6401.48903,0.54672
6399.56029,0.54831
6397.63155,0.54989
6395.70281,0.55002
6393.77407,0.54942
6391.84533,0.54886
6389.91659,0.54845
6387.98785,0.54819
6386.05911,0.54755
6384.13037,0.54729
6382.20163,0.54829
6380.27289,0.54945
6378.34415,0.55002
6376.41541,0.55008
6374.48667,0.55013
6372.55793,0.55063
6370.62919,0.55034
6368.70045,0.54919
6366.77171,0.54879
6364.84297,0.54897
6362.91422,0.54905
6360.98548,0.54941
6359.05674,0.55014
6357.12800,0.55103
6355.19926,0.55167
6353.27052,0.55103
6351.34178,0.54950
6349.41304,0.54918
6347.48430,0.55049
6345.55556,0.55199
6343.62682,0.55279
6341.69808,0.55283
6339.76934,0.55271
6337.84060,0.55292
6335.91186,0.55338
6333.98312,0.55409
6332.05438,0.55434
6330.12564,0.55333
6328.19690,0.55199
6326.26816,0.55177
6324.33942,0.55275
6322.41068,0.55370
6320.48194,0.55388
6318.55320,0.55426
6316.62446,0.55517
6314.69572,0.55550
6312.76698,0.55554
6310.83824,0.55645
6308.90950,0.55729
6306.98076,0.55708
6305.05202,0.55665
6303.12328,0.55669
6301.19454,0.55696
6299.26580,0.55648
6297.33705,0.55488
6295.40831,0.55391
6293.47957,0.55477
6291.55083,0.55637
6289.62209,0.55763
6287.69335,0.55857
6285.76461,0.55913
6283.83587,0.55933
6281.90713,0.55940
6279.97839,0.55963
6278.04965,0.56061
6276.12091,0.56196
6274.19217,0.56294
6272.26343,0.56336
6270.33469,0.56309
6268.40595,0.56269
6266.47721,0.56279
6264.54847,0.56356
6262.61973,0.56482
6260.69099,0.56614
6258.76225,0.56691
6256.83351,0.56676
6254.90477,0.56702
6252.97603,0.56796
6251.04729,0.56812
6249.11855,0.56806
6247.18981,0.56835
6245.26107,0.56850
6243.33233,0.56973
6241.40359,0.57235
6239.47485,0.57415
6237.54611,0.57441
6235.61737,0.57459
6233.68863,0.57499
6231.75989,0.57570
6229.83114,0.57735
6227.90240,0.57890
6225.97366,0.57881
6224.04492,0.57837
6222.11618,0.57917
6220.18744,0.57989
6218.25870,0.57959
6216.32996,0.57960
6214.40122,0.58073
6212.47248,0.58213
6210.54374,0.58255
6208.61500,0.58251
6206.68626,0.58328
6204.75752,0.58414
6202.82878,0.58400
6200.90004,0.58375
6198.97130,0.58475
6197.04256,0.58596
6195.11382,0.58596
6193.18508,0.58606
6191.25634,0.58731
6189.32760,0.58829
6187.39886,0.58834
6185.47012,0.58895
6183.54138,0.59078
6181.61264,0.59259
6179.68390,0.59357
6177.75516,0.59345
6175.82642,0.59251
6173.89768,0.59201
6171.96894,0.59241
6170.04020,0.59318
6168.11146,0.59450
6166.18272,0.59652
6164.25397,0.59846
6162.32523,0.59940
6160.39649,0.59922
6158.46775,0.59854
6156.53901,0.59779
6154.61027,0.59716
6152.68153,0.59743
6150.75279,0.59860
6148.82405,0.59930
6146.89531,0.59915
6144.96657,0.59909
6143.03783,0.59950
6141.10909,0.60006
6139.18035,0.60068
6137.25161,0.60144
6135.32287,0.60199
6133.39413,0.60251
6131.46539,0.60358
6129.53665,0.60467
6127.60791,0.60476
6125.67917,0.60430
6123.75043,0.60394
6121.82169,0.60327
6119.89295,0.60262
6117.96421,0.60295
6116.03547,0.60407
6114.10673,0.60529
6112.17799,0.60621
6110.24925,0.60616
6108.32051,0.60560
6106.39177,0.60574
6104.46303,0.60592
6102.53429,0.60502
6100.60555,0.60335
6098.67680,0.60212
6096.74806,0.60190
6094.81932,0.60229
6092.89058,0.60329
6090.96184,0.60467
6089.03310,0.60535
6087.10436,0.60518
6085.17562,0.60513
6083.24688,0.60514
6081.31814,0.60440
6079.38940,0.60327
6077.46066,0.60250
6075.53192,0.60276
6073.60318,0.60382
6071.67444,0.60413
6069.74570,0.60408
6067.81696,0.60467
6065.88822,0.60452
6063.95948,0.60334
6062.03074,0.60268
6060.10200,0.60277
6058.17326,0.60249
6056.24452,0.60175
6054.31578,0.60163
6052.38704,0.60205
6050.45830,0.60237
6048.52956,0.60268
6046.60082,0.60243
6044.67208,0.60142
6042.74334,0.60076
6040.81460,0.60058
6038.88586,0.60000
6036.95712,0.59939
6035.02838,0.59945
6033.09963,0.59938
6031.17089,0.59844
6029.24215,0.59693
6027.31341,0.59579
6025.38467,0.59621
6023.45593,0.59776
6021.52719,0.59847
6019.59845,0.59792
6017.66971,0.59724
6015.74097,0.59660
6013.81223,0.59600
6011.88349,0.59582
6009.95475,0.59561
6008.02601,0.59493
6006.09727,0.59358
6004.16853,0.59140
6002.23979,0.58988
6000.31105,0.59088
5998.38231,0.59308
5996.45357,0.59418
5994.52483,0.59430
5992.59609,0.59374
5990.66735,0.59242
5988.73861,0.59152
5986.80987,0.59180
5984.88113,0.59233
5982.95239,0.59219
5981.02365,0.59158
5979.09491,0.59080
5977.16617,0.59016
5975.23743,0.58990
5973.30869,0.58980
5971.37995,0.58968
5969.45121,0.58941
5967.52246,0.58919
5965.59372,0.58913
5963.66498,0.58876
5961.73624,0.58858
5959.80750,0.58910
5957.87876,0.58905
5955.95002,0.58771
5954.02128,0.58678
5952.09254,0.58728
5950.16380,0.58792
5948.23506,0.58829
5946.30632,0.58871
5944.37758,0.58871
5942.44884,0.58805
5940.52010,0.58713
5938.59136,0.58673
5936.66262,0.58693
5934.73388,0.58676
5932.80514,0.58664
5930.87640,0.58708
5928.94766,0.58690
5927.01892,0.58608
5925.09018,0.58556
5923.16144,0.58533
5921.23270,0.58557
5919.30396,0.58620
5917.37522,0.58620
5915.44648,0.58529
5913.51774,0.58451
5911.58900,0.58414
5909.66026,0.58307
5907.73152,0.58153
5905.80278,0.58094
5903.87404,0.58100
5901.94529,0.58077
5900.01655,0.58077
5898.08781,0.58124
5896.15907,0.58100
5894.23033,0.58008
5892.30159,0.57963
5890.37285,0.57918
5888.44411,0.57809
5886.51537,0.57696
5884.58663,0.57648
5882.65789,0.57693
5880.72915,0.57730
5878.80041,0.57657
5876.87167,0.57554
5874.94293,0.57526
5873.01419,0.57593
5871.08545,0.57710
5869.15671,0.57781
5867.22797,0.57763
5865.29923,0.57686
5863.37049,0.57563
5861.44175,0.57456
5859.51301,0.57494
5857.58427,0.57627
5855.65553,0.57646
5853.72679,0.57560
5851.79805,0.57536
5849.86931,0.57577
5847.94057,0.57585
5846.01183,0.57550
5844.08309,0.57546
5842.15435,0.57608
5840.22561,0.57633
5838.29687,0.57528
5836.36813,0.57398
5834.43938,0.57343
5832.51064,0.57299
5830.58190,0.57233
5828.65316,0.57218
5826.72442,0.57257
5824.79568,0.57257
5822.86694,0.57173
5820.93820,0.57046
5819.00946,0.56959
5817.08072,0.56946
5815.15198,0.56911
5813.22324,0.56809
5811.29450,0.56716
5809.36576,0.56655
5807.43702,0.56603
5805.50828,0.56560
5803.57954,0.56538
5801.65080,0.56527
5799.72206,0.56510
5797.79332,0.56500
5795.86458,0.56525
5793.93584,0.56568
5792.00710,0.56602
5790.07836,0.56674
5788.14962,0.56769
5786.22088,0.56771
5784.29214,0.56697
5782.36340,0.56667
5780.43466,0.56700
5778.50592,0.56749
5776.57718,0.56790
5774.64844,0.56795
5772.71970,0.56747
5770.79096,0.56741
5768.86221,0.56832
5766.93347,0.56932
5765.00473,0.56984
5763.07599,0.57008
5761.14725,0.57034
5759.21851,0.57084
5757.28977,0.57153
5755.36103,0.57248
5753.43229,0.57392
5751.50355,0.57536
5749.57481,0.57618
5747.64607,0.57623
5745.71733,0.57584
5743.78859,0.57580
5741.85985,0.57603
5739.93111,0.57592
5738.00237,0.57581
5736.07363,0.57566
5734.14489,0.57517
5732.21615,0.57484
5730.28741,0.57498
5728.35867,0.57537
5726.42993,0.57575
5724.50119,0.57579
5722.57245,0.57536
5720.64371,0.57485
5718.71497,0.57506
5716.78623,0.57564
5714.85749,0.57579
5712.92875,0.57587
5711.00001,0.57618
5709.07127,0.57633
5707.14253,0.57620
5705.21379,0.57632
5703.28504,0.57677
5701.35630,0.57630
5699.42756,0.57468
5697.49882,0.57348
5695.57008,0.57337
5693.64134,0.57351
5691.71260,0.57328
5689.78386,0.57293
5687.85512,0.57319
5685.92638,0.57407
5683.99764,0.57454
5682.06890,0.57410
5680.14016,0.57329
5678.21142,0.57257
5676.28268,0.57206
5674.35394,0.57167
5672.42520,0.57141
5670.49646,0.57121
5668.56772,0.57081
5666.63898,0.57025
5664.71024,0.56985
5662.78150,0.56993
5660.85276,0.57035
5658.92402,0.57037
5656.99528,0.56981
5655.06654,0.56936
5653.13780,0.56943
5651.20906,0.56969
5649.28032,0.57009
5647.35158,0.57077
5645.42284,0.57120
5643.49410,0.57127
5641.56536,0.57143
5639.63662,0.57166
5637.70787,0.57194
5635.77913,0.57216
5633.85039,0.57158
5631.92165,0.57040
5629.99291,0.57012
5628.06417,0.57085
5626.13543,0.57127
5624.20669,0.57106
5622.27795,0.57075
5620.34921,0.57055
5618.42047,0.57048
5616.49173,0.57054
5614.56299,0.57068
5612.63425,0.57075
5610.70551,0.57065
5608.77677,0.57064
5606.84803,0.57095
5604.91929,0.57117
5602.99055,0.57106
5601.06181,0.57061
5599.13307,0.56964
5597.20433,0.56903
5595.27559,0.56960
5593.34685,0.57059
5591.41811,0.57116
5589.48937,0.57112
5587.56063,0.57056
5585.63189,0.56993
5583.70315,0.56952
5581.77441,0.56947
5579.84567,0.57006
5577.91693,0.57130
5575.98819,0.57234
5574.05945,0.57251
5572.13070,0.57224
5570.20196,0.57199
5568.27322,0.57197
5566.34448,0.57226
5564.41574,0.57242
5562.48700,0.57256
5560.55826,0.57306
5558.62952,0.57367
5556.70078,0.57426
5554.77204,0.57469
5552.84330,0.57458
5550.91456,0.57417
5548.98582,0.57410
5547.05708,0.57448
5545.12834,0.57497
5543.19960,0.57508
5541.27086,0.57462
5539.34212,0.57426
5537.41338,0.57458
5535.48464,0.57527
5533.55590,0.57596
5531.62716,0.57634
5529.69842,0.57626
5527.76968,0.57615
5525.84094,0.57637
5523.91220,0.57649
5521.98346,0.57632
5520.05472,0.57643
5518.12598,0.57698
5516.19724,0.57747
5514.26850,0.57742
5512.33976,0.57680
5510.41102,0.57623
5508.48228,0.57633
5506.55354,0.57697
5504.62479,0.57759
5502.69605,0.57774
5500.76731,0.57738
5498.83857,0.57677
5496.90983,0.57633
5494.98109,0.57646
5493.05235,0.57717
5491.12361,0.57800
5489.19487,0.57836
5487.26613,0.57814
5485.33739,0.57783
5483.40865,0.57782
5481.47991,0.57807
5479.55117,0.57852
5477.62243,0.57906
5475.69369,0.57924
5473.76495,0.57916
5471.83621,0.57961
5469.90747,0.58020
5467.97873,0.57991
5466.04999,0.57931
5464.12125,0.57949
5462.19251,0.58016
5460.26377,0.58062
5458.33503,0.58082
5456.40629,0.58088
5454.47755,0.58104
5452.54881,0.58160
5450.62007,0.58229
5448.69133,0.58264
5446.76259,0.58291
5444.83385,0.58345
5442.90511,0.58393
5440.97637,0.58409
5439.04762,0.58437
5437.11888,0.58526
5435.19014,0.58610
5433.26140,0.58624
5431.33266,0.58641
5429.40392,0.58706
5427.47518,0.58757
5425.54644,0.58787
5423.61770,0.58837
5421.68896,0.58874
5419.76022,0.58874
5417.83148,0.58906
5415.90274,0.59028
5413.97400,0.59189
5412.04526,0.59264
5410.11652,0.59208
5408.18778,0.59108
5406.25904,0.59074
5404.33030,0.59135
5402.40156,0.59193
5400.47282,0.59183
5398.54408,0.59171
5396.61534,0.59183
5394.68660,0.59166
5392.75786,0.59107
5390.82912,0.59044
5388.90038,0.59031
5386.97164,0.59068
5385.04290,0.59101
5383.11416,0.59097
5381.18542,0.59081
5379.25668,0.59106
5377.32794,0.59170
5375.39920,0.59181
5373.47045,0.59108
5371.54171,0.59034
5369.61297,0.58982
5367.68423,0.58944
5365.75549,0.58955
5363.82675,0.58987
5361.89801,0.58971
5359.96927,0.58907
5358.04053,0.58848
5356.11179,0.58822
5354.18305,0.58805
5352.25431,0.58782
5350.32557,0.58750
5348.39683,0.58695
5346.46809,0.58663
5344.53935,0.58652
5342.61061,0.58564
5340.68187,0.58447
5338.75313,0.58381
5336.82439,0.58279
5334.89565,0.58108
5332.96691,0.57950
5331.03817,0.57827
5329.10943,0.57736
5327.18069,0.57650
5325.25195,0.57504
5323.32321,0.57308
5321.39447,0.57134
5319.46573,0.56981
5317.53699,0.56795
5315.60825,0.56594
5313.67951,0.56431
5311.75077,0.56268
5309.82203,0.56049
5307.89328,0.55770
5305.96454,0.55457
5304.03580,0.55165
5302.10706,0.54900
5300.17832,0.54607
5298.24958,0.54300
5296.32084,0.54016
5294.39210,0.53726
5292.46336,0.53401
5290.53462,0.53067
5288.60588,0.52752
5286.67714,0.52397
5284.74840,0.51944
5282.81966,0.51466
5280.89092,0.51036
5278.96218,0.50610
5277.03344,0.50142
5275.10470,0.49649
5273.17596,0.49195
5271.24722,0.48794
5269.31848,0.48381
5267.38974,0.47944
5265.46100,0.47507
5263.53226,0.47069
5261.60352,0.46634
5259.67478,0.46208
5257.74604,0.45788
5255.81730,0.45389
5253.88856,0.45003
5251.95982,0.44618
5250.03108,0.44234
5248.10234,0.43859
5246.17360,0.43534
5244.24486,0.43247
5242.31611,0.42934
5240.38737,0.42598
5238.45863,0.42257
5236.52989,0.41939
5234.60115,0.41715
5232.67241,0.41584
5230.74367,0.41445
5228.81493,0.41243
5226.88619,0.41022
5224.95745,0.40835
5223.02871,0.40701
5221.09997,0.40605
5219.17123,0.40505
5217.24249,0.40404
5215.31375,0.40322
5213.38501,0.40234
5211.45627,0.40137
5209.52753,0.40085
5207.59879,0.40075
5205.67005,0.40018
5203.74131,0.39913
5201.81257,0.39870
5199.88383,0.39896
5197.95509,0.39924
5196.02635,0.39951
5194.09761,0.39992
5192.16887,0.40028
5190.24013,0.40044
5188.31139,0.40047
5186.38265,0.40049
5184.45391,0.40059
5182.52517,0.40097
5180.59643,0.40174
5178.66769,0.40276
5176.73895,0.40388
5174.81020,0.40489
5172.88146,0.40566
5170.95272,0.40645
5169.02398,0.40750
5167.09524,0.40868
5165.16650,0.40968
5163.23776,0.41038
5161.30902,0.41109
5159.38028,0.41202
5157.45154,0.41307
5155.52280,0.41432
5153.59406,0.41565
5151.66532,0.41681
5149.73658,0.41790
5147.80784,0.41904
5145.87910,0.42023
5143.95036,0.42138
5142.02162,0.42243
5140.09288,0.42369
5138.16414,0.42519
5136.23540,0.42650
5134.30666,0.42756
5132.37792,0.42879
5130.44918,0.43043
5128.52044,0.43188
5126.59170,0.43271
5124.66296,0.43336
5122.73422,0.43434
5120.80548,0.43553
5118.87674,0.43677
5116.94800,0.43802
5115.01926,0.43910
5113.09052,0.44017
5111.16178,0.44139
5109.23303,0.44252
5107.30429,0.44341
5105.37555,0.44453
5103.44681,0.44596
5101.51807,0.44693
5099.58933,0.44750
5097.66059,0.44855
5095.73185,0.44999
5093.80311,0.45132
5091.87437,0.45268
5089.94563,0.45395
5088.01689,0.45477
5086.08815,0.45541
5084.15941,0.45624
5082.23067,0.45718
5080.30193,0.45815
5078.37319,0.45934
5076.44445,0.46090
5074.51571,0.46244
5072.58697,0.46356
5070.65823,0.46457
5068.72949,0.46569
5066.80075,0.46694
5064.87201,0.46826
5062.94327,0.46933
5061.01453,0.47015
5059.08579,0.47107
5057.15705,0.47190
5055.22831,0.47232
5053.29957,0.47279
5051.37083,0.47378
5049.44209,0.47504
5047.51335,0.47612
5045.58461,0.47702
5043.65586,0.47795
5041.72712,0.47890
5039.79838,0.47966
5037.86964,0.48027
5035.94090,0.48069
5034.01216,0.48088
5032.08342,0.48135
5030.15468,0.48259
5028.22594,0.48422
5026.29720,0.48562
5024.36846,0.48651
5022.43972,0.48702
5020.51098,0.48732
5018.58224,0.48747
5016.65350,0.48778
5014.72476,0.48843
5012.79602,0.48903
5010.86728,0.48940
5008.93854,0.48976
5007.00980,0.48998
5005.08106,0.49005
5003.15232,0.49013
5001.22358,0.49049
4999.29484,0.49132
4997.36610,0.49201
4995.43736,0.49222
4993.50862,0.49222
4991.57988,0.49188
4989.65114,0.49145
4987.72240,0.49158
4985.79366,0.49194
4983.86492,0.49183
4981.93618,0.49139
4980.00744,0.49094
4978.07869,0.49042
4976.14995,0.48995
4974.22121,0.48949
4972.29247,0.48888
4970.36373,0.48819
4968.43499,0.48737
4966.50625,0.48637
4964.57751,0.48546
4962.64877,0.48469
4960.72003,0.48396
4958.79129,0.48329
4956.86255,0.48256
4954.93381,0.48142
4953.00507,0.47970
4951.07633,0.47785
4949.14759,0.47649
4947.21885,0.47564
4945.29011,0.47491
4943.36137,0.47384
4941.43263,0.47233
4939.50389,0.47075
4937.57515,0.46917
4935.64641,0.46743
4933.71767,0.46559
4931.78893,0.46358
4929.86019,0.46157
4927.93145,0.46008
4926.00271,0.45887
4924.07397,0.45740
4922.14523,0.45584
4920.21649,0.45430
4918.28775,0.45259
4916.35901,0.45078
4914.43027,0.44899
4912.50152,0.44727
4910.57278,0.44570
4908.64404,0.44423
4906.71530,0.44265
4904.78656,0.44071
4902.85782,0.43847
4900.92908,0.43628
4899.00034,0.43455
4897.07160,0.43330
4895.14286,0.43206
4893.21412,0.43046
4891.28538,0.42868
4889.35664,0.42690
4887.42790,0.42512
4885.49916,0.42341
4883.57042,0.42182
4881.64168,0.42033
4879.71294,0.41881
4877.78420,0.41718
4875.85546,0.41542
4873.92672,0.41367
4871.99798,0.41201
4870.06924,0.41039
4868.14050,0.40881
4866.21176,0.40754
4864.28302,0.40663
4862.35428,0.40558
4860.42554,0.40421
4858.49680,0.40277
4856.56806,0.40141
4854.63932,0.40026
4852.71058,0.39914
4850.78184,0.39774
4848.85310,0.39630
4846.92436,0.39499
4844.99561,0.39367
4843.06687,0.39236
4841.13813,0.39106
4839.20939,0.38990
4837.28065,0.38895
4835.35191,0.38786
4833.42317,0.38668
4831.49443,0.38572
4829.56569,0.38495
4827.63695,0.38408
4825.70821,0.38291
4823.77947,0.38157
4821.85073,0.38029
4819.92199,0.37905
4817.99325,0.37790
4816.06451,0.37708
4814.13577,0.37640
4812.20703,0.37541
4810.27829,0.37410
4808.34955,0.37283
4806.42081,0.37189
4804.49207,0.37140
4802.56333,0.37115
4800.63459,0.37087
4798.70585,0.37043
4796.77711,0.36976
4794.84837,0.36909
4792.91963,0.36856
4790.99089,0.36793
4789.06215,0.36728
4787.13341,0.36690
4785.20467,0.36646
4783.27593,0.36561
4781.34719,0.36463
4779.41844,0.36417
4777.48970,0.36411
4775.56096,0.36372
4773.63222,0.36296
4771.70348,0.36231
4769.77474,0.36184
4767.84600,0.36123
4765.91726,0.36058
4763.98852,0.36011
4762.05978,0.35964
4760.13104,0.35917
4758.20230,0.35899
4756.27356,0.35907
4754.34482,0.35914
4752.41608,0.35901
4750.48734,0.35882
4748.55860,0.35879
4746.62986,0.35867
4744.70112,0.35831
4742.77238,0.35807
4740.84364,0.35838
4738.91490,0.35894
4736.98616,0.35909
4735.05742,0.35892
4733.12868,0.35890
4731.19994,0.35918
4729.27120,0.35960
4727.34246,0.35993
4725.41372,0.36013
4723.48498,0.36029
4721.55624,0.36037
4719.62750,0.36049
4717.69876,0.36085
4715.77002,0.36129
4713.84127,0.36142
4711.91253,0.36137
4709.98379,0.36150
4708.05505,0.36188
4706.12631,0.36246
4704.19757,0.36307
4702.26883,0.36345
4700.34009,0.36360
4698.41135,0.36367
4696.48261,0.36381
4694.55387,0.36409
4692.62513,0.36443
4690.69639,0.36485
4688.76765,0.36563
4686.83891,0.36657
4684.91017,0.36724
4682.98143,0.36773
4681.05269,0.36833
4679.12395,0.36915
4677.19521,0.36980
4675.26647,0.37014
4673.33773,0.37074
4671.40899,0.37167
4669.48025,0.37254
4667.55151,0.37341
4665.62277,0.37425
4663.69403,0.37471
4661.76529,0.37504
4659.83655,0.37587
4657.90781,0.37698
4655.97907,0.37785
4654.05033,0.37859
4652.12159,0.37940
4650.19285,0.38025
4648.26410,0.38100
4646.33536,0.38164
4644.40662,0.38227
4642.47788,0.38298
4640.54914,0.38375
4638.62040,0.38462
4636.69166,0.38567
4634.76292,0.38680
4632.83418,0.38766
4630.90544,0.38810
4628.97670,0.38851
4627.04796,0.38917
4625.11922,0.38989
4623.19048,0.39062
4621.26174,0.39152
4619.33300,0.39256
4617.40426,0.39354
4615.47552,0.39434
4613.54678,0.39491
4611.61804,0.39543
4609.68930,0.39618
4607.76056,0.39714
4605.83182,0.39798
4603.90308,0.39852
4601.97434,0.39905
4600.04560,0.39990
4598.11686,0.40102
4596.18812,0.40193
4594.25938,0.40236
4592.33064,0.40275
4590.40190,0.40351
4588.47316,0.40431
4586.54442,0.40473
4584.61568,0.40503
4582.68693,0.40560
4580.75819,0.40632
4578.82945,0.40710
4576.90071,0.40781
4574.97197,0.40823
4573.04323,0.40862
4571.11449,0.40914
4569.18575,0.40972
4567.25701,0.41042
4565.32827,0.41110
4563.39953,0.41152
4561.47079,0.41179
4559.54205,0.41222
4557.61331,0.41291
4555.68457,0.41358
4553.75583,0.41397
4551.82709,0.41421
4549.89835,0.41464
4547.96961,0.41524
4546.04087,0.41575
4544.11213,0.41619
4542.18339,0.41668
4540.25465,0.41707
4538.32591,0.41731
4536.39717,0.41754
4534.46843,0.41792
4532.53969,0.41847
4530.61095,0.41897
4528.68221,0.41932
4526.75347,0.41959
4524.82473,0.41968
4522.89599,0.41948
4520.96725,0.41929
4519.03851,0.41941
4517.10976,0.41960
4515.18102,0.41948
4513.25228,0.41915
4511.32354,0.41891
4509.39480,0.41871
4507.46606,0.41822
4505.53732,0.41749
4503.60858,0.41682
4501.67984,0.41620
4499.75110,0.41542
4497.82236,0.41456
4495.89362,0.41371
4493.96488,0.41252
4492.03614,0.41083
4490.10740,0.40918
4488.17866,0.40795
4486.24992,0.40673
4484.32118,0.40501
4482.39244,0.40294
4480.46370,0.40093
4478.53496,0.39916
4476.60622,0.39734
4474.67748,0.39524
4472.74874,0.39302
4470.82000,0.39077
4468.89126,0.38835
4466.96252,0.38576
4465.03378,0.38319
4463.10504,0.38073
4461.17630,0.37831
4459.24756,0.37590
4457.31882,0.37354
4455.39008,0.37112
4453.46134,0.36862
4451.53260,0.36619
4449.60385,0.36373
4447.67511,0.36107
4445.74637,0.35848
4443.81763,0.35619
4441.88889,0.35388
4439.96015,0.35131
4438.03141,0.34875
4436.10267,0.34640
4434.17393,0.34412
4432.24519,0.34175
4430.31645,0.33933
4428.38771,0.33707
4426.45897,0.33501
4424.53023,0.33291
4422.60149,0.33056
4420.67275,0.32822
4418.74401,0.32620
4416.81527,0.32447
4414.88653,0.32299
4412.95779,0.32178
4411.02905,0.32073
4409.10031,0.31979
4407.17157,0.31894
4405.24283,0.31810
4403.31409,0.31744
4401.38535,0.31719
4399.45661,0.31723
4397.52787,0.31728
4395.59913,0.31744
4393.67039,0.31798
4391.74165,0.31882
4389.81291,0.31972
4387.88417,0.32064
4385.95543,0.32162
4384.02668,0.32272
4382.09794,0.32403
4380.16920,0.32543
4378.24046,0.32669
4376.31172,0.32778
4374.38298,0.32883
4372.45424,0.33011
4370.52550,0.33148
4368.59676,0.33245
4366.66802,0.33305
4364.73928,0.33373
4362.81054,0.33452
4360.88180,0.33515
4358.95306,0.33544
4357.02432,0.33548
4355.09558,0.33543
4353.16684,0.33529
4351.23810,0.33493
4349.30936,0.33424
4347.38062,0.33344
4345.45188,0.33295
4343.52314,0.33256
4341.59440,0.33189
4339.66566,0.33106
4337.73692,0.33034
4335.80818,0.32965
4333.87944,0.32876
4331.95070,0.32766
4330.02196,0.32666
4328.09322,0.32562
4326.16448,0.32418
4324.23574,0.32266
4322.30700,0.32150
4320.37826,0.32079
4318.44951,0.32071
4316.52077,0.32120
4314.59203,0.32168
4312.66329,0.32172
4310.73455,0.32129
4308.80581,0.32068
4306.87707,0.32010
4304.94833,0.31945
4303.01959,0.31863
4301.09085,0.31776
4299.16211,0.31695
4297.23337,0.31622
4295.30463,0.31569
4293.37589,0.31531
4291.44715,0.31480
4289.51841,0.31409
4287.58967,0.31338
4285.66093,0.31285
4283.73219,0.31249
4281.80345,0.31218
4279.87471,0.31201
4277.94597,0.31198
4276.01723,0.31192
4274.08849,0.31188
4272.15975,0.31205
4270.23101,0.31228
4268.30227,0.31250
4266.37353,0.31289
4264.44479,0.31336
4262.51605,0.31375
4260.58731,0.31410
4258.65857,0.31435
4256.72983,0.31420
4254.80109,0.31379
4252.87234,0.31348
4250.94360,0.31343
4249.01486,0.31372
4247.08612,0.31431
4245.15738,0.31494
4243.22864,0.31547
4241.29990,0.31596
4239.37116,0.31642
4237.44242,0.31677
4235.51368,0.31704
4233.58494,0.31726
4231.65620,0.31762
4229.72746,0.31811
4227.79872,0.31841
4225.86998,0.31839
4223.94124,0.31823
4222.01250,0.31810
4220.08376,0.31810
4218.15502,0.31818
4216.22628,0.31828
4214.29754,0.31832
4212.36880,0.31829
4210.44006,0.31836
4208.51132,0.31862
4206.58258,0.31882
4204.65384,0.31879
4202.72510,0.31871
4200.79636,0.31865
4198.86762,0.31852
4196.93888,0.31833
4195.01014,0.31825
4193.08140,0.31836
4191.15266,0.31857
4189.22392,0.31873
4187.29517,0.31870
4185.36643,0.31860
4183.43769,0.31863
4181.50895,0.31904
4179.58021,0.31975
4177.65147,0.32041
4175.72273,0.32091
4173.79399,0.32136
4171.86525,0.32180
4169.93651,0.32231
4168.00777,0.32294
4166.07903,0.32356
4164.15029,0.32412
4162.22155,0.32470
4160.29281,0.32513
4158.36407,0.32494
4156.43533,0.32427
4154.50659,0.32371
4152.57785,0.32328
4150.64911,0.32274
4148.72037,0.32213
4146.79163,0.32151
4144.86289,0.32083
4142.93415,0.32017
4141.00541,0.31955
4139.07667,0.31900
4137.14793,0.31842
4135.21919,0.31767
4133.29045,0.31667
4131.36171,0.31556
4129.43297,0.31437
4127.50423,0.31315
4125.57549,0.31204
4123.64675,0.31102
4121.71801,0.30987
4119.78926,0.30854
4117.86052,0.30726
4115.93178,0.30614
4114.00304,0.30495
4112.07430,0.30359
4110.14556,0.30224
4108.21682,0.30109
4106.28808,0.30000
4104.35934,0.29867
4102.43060,0.29714
4100.50186,0.29559
4098.57312,0.29410
4096.64438,0.29253
4094.71564,0.29091
4092.78690,0.28935
4090.85816,0.28786
4088.92942,0.28640
4087.00068,0.28490
4085.07194,0.28334
4083.14320,0.28188
4081.21446,0.28064
4079.28572,0.27935
4077.35698,0.27777
4075.42824,0.27604
4073.49950,0.27441
4071.57076,0.27297
4069.64202,0.27158
4067.71328,0.27006
4065.78454,0.26835
4063.85580,0.26670
4061.92706,0.26517
4059.99832,0.26351
4058.06958,0.26175
4056.14084,0.26008
4054.21209,0.25847
4052.28335,0.25682
4050.35461,0.25516
4048.42587,0.25370
4046.49713,0.25246
4044.56839,0.25124
4042.63965,0.24993
4040.71091,0.24862
4038.78217,0.24749
4036.85343,0.24657
4034.92469,0.24561
4032.99595,0.24452
4031.06721,0.24360
4029.13847,0.24290
4027.20973,0.24210
4025.28099,0.24139
4023.35225,0.24089
4021.42351,0.24035
4019.49477,0.24006
4017.56603,0.24025
4015.63729,0.24047
4013.70855,0.24040
4011.77981,0.24039
4009.85107,0.24079
4007.92233,0.24146
4005.99359,0.24194
4004.06485,0.24221
4002.13611,0.24259
4000.20737,0.24305
3998.27863,0.24342
3996.34989,0.24379
3994.42115,0.24438
3992.49241,0.24504
3990.56367,0.24539
3988.63492,0.24561
3986.70618,0.24616
3984.77744,0.24685
3982.84870,0.24720
3980.91996,0.24732
3978.99122,0.24759
3977.06248,0.24801
3975.13374,0.24839
3973.20500,0.24885
3971.27626,0.24960
3969.34752,0.25054
3967.41878,0.25129
3965.49004,0.25166
3963.56130,0.25201
3961.63256,0.25267
3959.70382,0.25347
3957.77508,0.25420
3955.84634,0.25486
3953.91760,0.25560
3951.98886,0.25657
3950.06012,0.25764
3948.13138,0.25843
3946.20264,0.25902
3944.27390,0.25975
3942.34516,0.26057
3940.41642,0.26128
3938.48768,0.26192
3936.55894,0.26267
3934.63020,0.26364
3932.70146,0.26470
3930.77272,0.26545
3928.84398,0.26597
3926.91524,0.26675
3924.98650,0.26782
3923.05775,0.26877
3921.12901,0.26958
3919.20027,0.27050
3917.27153,0.27135
3915.34279,0.27174
3913.41405,0.27183
3911.48531,0.27206
3909.55657,0.27258
3907.62783,0.27362
3905.69909,0.27521
3903.77035,0.27666
3901.84161,0.27740
3899.91287,0.27763
3897.98413,0.27749
3896.05539,0.27731
3894.12665,0.27782
3892.19791,0.27888
3890.26917,0.27954
3888.34043,0.27995
3886.41169,0.28078
3884.48295,0.28153
3882.55421,0.28191
3880.62547,0.28219
3878.69673,0.28220
3876.76799,0.28236
3874.83925,0.28323
3872.91051,0.28452
3870.98177,0.28594
3869.05303,0.28714
3867.12429,0.28791
3865.19555,0.28894
3863.26681,0.29015
3861.33807,0.29079
3859.40933,0.29119
3857.48058,0.29229
3855.55184,0.29445
3853.62310,0.29677
3851.69436,0.29724
3849.76562,0.29643
3847.83688,0.29613
3845.90814,0.29681
3843.97940,0.29809
3842.05066,0.29934
3840.12192,0.30039
3838.19318,0.30117
3836.26444,0.30134
3834.33570,0.30106
3832.40696,0.30079
3830.47822,0.30062
3828.54948,0.30067
3826.62074,0.30088
3824.69200,0.30123
3822.76326,0.30201
3820.83452,0.30265
3818.90578,0.30252
3816.97704,0.30222
3815.04830,0.30162
3813.11956,0.30051
3811.19082,0.29980
3809.26208,0.30000
3807.33334,0.30059
3805.40460,0.30077
3803.47586,0.30102
3801.54712,0.30150
3799.61838,0.30124
3797.68964,0.30050
3795.76090,0.29988
3793.83216,0.29931
3791.90342,0.29880
3789.97467,0.29841
3788.04593,0.29820
3786.11719,0.29813
3784.18845,0.29799
3782.25971,0.29780
3780.33097,0.29762
3778.40223,0.29698
3776.47349,0.29586
3774.54475,0.29493
3772.61601,0.29456
3770.68727,0.29450
3768.75853,0.29405
3766.82979,0.29318
3764.90105,0.29230
3762.97231,0.29159
3761.04357,0.29125
3759.11483,0.29089
3757.18609,0.28992
3755.25735,0.28899
3753.32861,0.28891
3751.39987,0.28911
3749.47113,0.28844
3747.54239,0.28735
3745.61365,0.28640
3743.68491,0.28483
3741.75617,0.28277
3739.82743,0.28145
3737.89869,0.28097
3735.96995,0.28045
3734.04121,0.27898
3732.11247,0.27656
3730.18373,0.27406
3728.25499,0.27225
3726.32625,0.27094
3724.39750,0.26947
3722.46876,0.26757
3720.54002,0.26536
3718.61128,0.26289
3716.68254,0.26052
3714.75380,0.25870
3712.82506,0.25708
3710.89632,0.25464
3708.96758,0.25130
3707.03884,0.24788
3705.11010,0.24474
3703.18136,0.24173
3701.25262,0.23835
3699.32388,0.23452
3697.39514,0.23077
3695.46640,0.22744
3693.53766,0.22442
3691.60892,0.22121
3689.68018,0.21711
3687.75144,0.21187
3685.82270,0.20655
3683.89396,0.20168
3681.96522,0.19689
3680.03648,0.19210
3678.10774,0.18749
3676.17900,0.18254
3674.25026,0.17702
3672.32152,0.17204
3670.39278,0.16712
3668.46404,0.16135
3666.53530,0.15561
3664.60656,0.15063
3662.67782,0.14635
3660.74908,0.14251
3658.82033,0.13886
3656.89159,0.13508
3654.96285,0.13128
3653.03411,0.12829
3651.10537,0.12571
3649.17663,0.12232
3647.24789,0.11829
3645.31915,0.11473
3643.39041,0.11183
3641.46167,0.10935
3639.53293,0.10702
3637.60419,0.10477
3635.67545,0.10264
3633.74671,0.10072
3631.81797,0.09924
3629.88923,0.09786
3627.96049,0.09582
3626.03175,0.09363
3624.10301,0.09197
3622.17427,0.09071
3620.24553,0.08953
3618.31679,0.08823
3616.38805,0.08698
3614.45931,0.08573
3612.53057,0.08437
3610.60183,0.08302
3608.67309,0.08160
3606.74435,0.07996
3604.81561,0.07861
3602.88687,0.07780
3600.95813,0.07695
3599.02939,0.07580
3597.10065,0.07483
3595.17191,0.07410
3593.24316,0.07333
3591.31442,0.07255
3589.38568,0.07185
3587.45694,0.07109
3585.52820,0.07020
3583.59946,0.06922
3581.67072,0.06827
3579.74198,0.06750
3577.81324,0.06689
3575.88450,0.06631
3573.95576,0.06558
3572.02702,0.06486
3570.09828,0.06428
3568.16954,0.06378
3566.24080,0.06318
3564.31206,0.06248
3562.38332,0.06177
3560.45458,0.06108
3558.52584,0.06041
3556.59710,0.05986
3554.66836,0.05947
3552.73962,0.05911
3550.81088,0.05873
3548.88214,0.05843
3546.95340,0.05810
3545.02466,0.05754
3543.09592,0.05686
3541.16718,0.05638
3539.23844,0.05620
3537.30970,0.05606
3535.38096,0.05587
3533.45222,0.05571
3531.52348,0.05552
3529.59474,0.05520
3527.66599,0.05472
3525.73725,0.05411
3523.80851,0.05357
3521.87977,0.05332
3519.95103,0.05330
3518.02229,0.05321
3516.09355,0.05298
3514.16481,0.05279
3512.23607,0.05266
3510.30733,0.05239
3508.37859,0.05193
3506.44985,0.05139
3504.52111,0.05090
3502.59237,0.05054
3500.66363,0.05044
3498.73489,0.05055
3496.80615,0.05053
3494.87741,0.05033
3492.94867,0.05007
3491.01993,0.04985
3489.09119,0.04975
3487.16245,0.04967
3485.23371,0.04947
3483.30497,0.04932
3481.37623,0.04934
3479.44749,0.04932
3477.51875,0.04910
3475.59001,0.04874
3473.66127,0.04840
3471.73253,0.04818
3469.80379,0.04804
3467.87505,0.04785
3465.94631,0.04757
3464.01757,0.04739
3462.08883,0.04750
3460.16008,0.04772
3458.23134,0.04772
3456.30260,0.04754
3454.37386,0.04734
3452.44512,0.04721
3450.51638,0.04722
3448.58764,0.04722
3446.65890,0.04695
3444.73016,0.04669
3442.80142,0.04664
3440.87268,0.04663
3438.94394,0.04667
3437.01520,0.04679
3435.08646,0.04692
3433.15772,0.04705
3431.22898,0.04703
3429.30024,0.04676
3427.37150,0.04647
3425.44276,0.04647
3423.51402,0.04666
3421.58528,0.04671
3419.65654,0.04660
3417.72780,0.04646
3415.79906,0.04645
3413.87032,0.04677
3411.94158,0.04744
3410.01284,0.04800
3408.08410,0.04809
3406.15536,0.04797
3404.22662,0.04797
3402.29788,0.04804
3400.36914,0.04796
3398.44040,0.04767
3396.51166,0.04746
3394.58291,0.04754
3392.65417,0.04783
3390.72543,0.04812
3388.79669,0.04822
3386.86795,0.04820
3384.93921,0.04810
3383.01047,0.04788
3381.08173,0.04762
3379.15299,0.04752
3377.22425,0.04755
3375.29551,0.04758
3373.36677,0.04772
3371.43803,0.04796
3369.50929,0.04799
3367.58055,0.04788
3365.65181,0.04794
3363.72307,0.04803
3361.79433,0.04788
3359.86559,0.04769
3357.93685,0.04789
3356.00811,0.04839
3354.07937,0.04864
3352.15063,0.04860
3350.22189,0.04865
3348.29315,0.04897
3346.36441,0.04946
3344.43567,0.04986
3342.50693,0.04995
3340.57819,0.04982
3338.64945,0.04984
3336.72071,0.05015
3334.79197,0.05066
3332.86323,0.05123
3330.93449,0.05165
3329.00574,0.05191
3327.07700,0.05226
3325.14826,0.05255
3323.21952,0.05273
3321.29078,0.05302
3319.36204,0.05338
3317.43330,0.05376
3315.50456,0.05404
3313.57582,0.05385
3311.64708,0.05346
3309.71834,0.05344
3307.78960,0.05374
3305.86086,0.05401
3303.93212,0.05410
3302.00338,0.05402
3300.07464,0.05395
3298.14590,0.05421
3296.21716,0.05493
3294.28842,0.05568
3292.35968,0.05602
3290.43094,0.05607
3288.50220,0.05616
3286.57346,0.05621
3284.64472,0.05613
3282.71598,0.05624
3280.78724,0.05669
3278.85850,0.05730
3276.92976,0.05769
3275.00102,0.05777
3273.07228,0.05789
3271.14354,0.05838
3269.21480,0.05906
3267.28606,0.05949
3265.35732,0.05959
3263.42857,0.05989
3261.49983,0.06057
3259.57109,0.06115
3257.64235,0.06152
3255.71361,0.06192
3253.78487,0.06225
3251.85613,0.06254
3249.92739,0.06295
3247.99865,0.06333
3246.06991,0.06347
3244.14117,0.06350
3242.21243,0.06383
3240.28369,0.06439
3238.35495,0.06478
3236.42621,0.06497
3234.49747,0.06516
3232.56873,0.06540
3230.63999,0.06576
3228.71125,0.06635
3226.78251,0.06697
3224.85377,0.06715
3222.92503,0.06694
3220.99629,0.06702
3219.06755,0.06767
3217.13881,0.06864
3215.21007,0.06927
3213.28133,0.06911
3211.35259,0.06875
3209.42385,0.06903
3207.49511,0.06971
3205.56637,0.07011
3203.63763,0.07024
3201.70889,0.07042
3199.78015,0.07078
3197.85140,0.07126
3195.92266,0.07172
3193.99392,0.07206
3192.06518,0.07249
3190.13644,0.07303
3188.20770,0.07343
3186.27896,0.07375
3184.35022,0.07408
3182.42148,0.07436
3180.49274,0.07460
3178.56400,0.07506
3176.63526,0.07587
3174.70652,0.07679
3172.77778,0.07738
3170.84904,0.07748
3168.92030,0.07745
3166.99156,0.07771
3165.06282,0.07816
3163.13408,0.07858
3161.20534,0.07899
3159.27660,0.07950
3157.34786,0.08015
3155.41912,0.08075
3153.49038,0.08105
3151.56164,0.08123
3149.63290,0.08159
3147.70416,0.08205
3145.77542,0.08248
3143.84668,0.08276
3141.91794,0.08300
3139.98920,0.08353
3138.06046,0.08414
3136.13172,0.08451
3134.20298,0.08477
3132.27423,0.08505
3130.34549,0.08528
3128.41675,0.08557
3126.48801,0.08613
3124.55927,0.08684
3122.63053,0.08734
3120.70179,0.08754
3118.77305,0.08766
3116.84431,0.08784
3114.91557,0.08821
3112.98683,0.08890
3111.05809,0.08970
3109.12935,0.09031
3107.20061,0.09075
3105.27187,0.09119
3103.34313,0.09161
3101.41439,0.09185
3099.48565,0.09206
3097.55691,0.09244
3095.62817,0.09294
3093.69943,0.09345
3091.77069,0.09393
3089.84195,0.09428
3087.91321,0.09460
3085.98447,0.09495
3084.05573,0.09522
3082.12699,0.09555
3080.19825,0.09603
3078.26951,0.09643
3076.34077,0.09670
3074.41203,0.09703
3072.48329,0.09744
3070.55455,0.09781
3068.62581,0.09806
3066.69707,0.09835
3064.76832,0.09887
3062.83958,0.09949
3060.91084,0.09998
3058.98210,0.10030
3057.05336,0.10056
3055.12462,0.10087
3053.19588,0.10119
3051.26714,0.10152
3049.33840,0.10194
3047.40966,0.10236
3045.48092,0.10273
3043.55218,0.10309
3041.62344,0.10339
3039.69470,0.10355
3037.76596,0.10367
3035.83722,0.10375
3033.90848,0.10371
3031.97974,0.10359
3030.05100,0.10341
3028.12226,0.10322
3026.19352,0.10309
3024.26478,0.10298
3022.33604,0.10270
3020.40730,0.10221
3018.47856,0.10177
3016.54982,0.10144
3014.62108,0.10092
3012.69234,0.10014
3010.76360,0.09941
3008.83486,0.09887
3006.90612,0.09843
3004.97738,0.09796
3003.04864,0.09747
3001.11990,0.09708
2999.19115,0.09675
2997.26241,0.09631
2995.33367,0.09587
2993.40493,0.09552
2991.47619,0.09498
2989.54745,0.09419
2987.61871,0.09338
2985.68997,0.09249
2983.76123,0.09130
2981.83249,0.08990
2979.90375,0.08836
2977.97501,0.08672
2976.04627,0.08507
2974.11753,0.08339
2972.18879,0.08174
2970.26005,0.08023
2968.33131,0.07895
2966.40257,0.07812
2964.47383,0.07779
2962.54509,0.07757
2960.61635,0.07713
2958.68761,0.07654
2956.75887,0.07597
2954.83013,0.07543
2952.90139,0.07485
2950.97265,0.07417
2949.04391,0.07342
2947.11517,0.07268
2945.18643,0.07211
2943.25769,0.07179
2941.32895,0.07169
2939.40021,0.07165
2937.47147,0.07163
2935.54273,0.07174
2933.61398,0.07185
2931.68524,0.07177
2929.75650,0.07160
2927.82776,0.07149
2925.89902,0.07144
2923.97028,0.07131
2922.04154,0.07106
2920.11280,0.07077
2918.18406,0.07050
2916.25532,0.07024
2914.32658,0.06994
2912.39784,0.06967
2910.46910,0.06955
2908.54036,0.06957
2906.61162,0.06972
2904.68288,0.06991
2902.75414,0.07006
2900.82540,0.07028
2898.89666,0.07066
2896.96792,0.07119
2895.03918,0.07169
2893.11044,0.07204
2891.18170,0.07227
2889.25296,0.07252
2887.32422,0.07290
2885.39548,0.07343
2883.46674,0.07391
2881.53800,0.07422
2879.60926,0.07451
2877.68052,0.07479
2875.75178,0.07504
2873.82304,0.07533
2871.89430,0.07562
2869.96556,0.07587
2868.03681,0.07625
2866.10807,0.07678
2864.17933,0.07729
2862.25059,0.07771
2860.32185,0.07803
2858.39311,0.07825
2856.46437,0.07840
2854.53563,0.07851
2852.60689,0.07864
2850.67815,0.07881
2848.74941,0.07932
2846.82067,0.08045
2844.89193,0.08194
2842.96319,0.08343
2841.03445,0.08489
2839.10571,0.08636
2837.17697,0.08783
2835.24823,0.08943
2833.31949,0.09123
2831.39075,0.09311
2829.46201,0.09494
2827.53327,0.09653
2825.60453,0.09786
2823.67579,0.09925
2821.74705,0.10080
2819.81831,0.10218
2817.88957,0.10333
2815.96083,0.10441
2814.03209,0.10544
2812.10335,0.10644
2810.17461,0.10745
2808.24587,0.10846
2806.31713,0.10944
2804.38839,0.11033
2802.45964,0.11114
2800.53090,0.11187
2798.60216,0.11251
2796.67342,0.11318
2794.74468,0.11380
2792.81594,0.11434
2790.88720,0.11492
2788.95846,0.11546
2787.02972,0.11577
2785.10098,0.11590
2783.17224,0.11607
2781.24350,0.11640
2779.31476,0.11682
2777.38602,0.11721
2775.45728,0.11748
2773.52854,0.11756
2771.59980,0.11762
2769.67106,0.11778
2767.74232,0.11804
2765.81358,0.11832
2763.88484,0.11845
2761.95610,0.11848
2760.02736,0.11862
2758.09862,0.11879
2756.16988,0.11888
2754.24114,0.11899
2752.31240,0.11916
2750.38366,0.11927
2748.45492,0.11923
2746.52618,0.11912
2744.59744,0.11905
2742.66870,0.11901
2740.73996,0.11901
2738.81122,0.11908
2736.88248,0.11917
2734.95373,0.11930
2733.02499,0.11944
2731.09625,0.11953
2729.16751,0.11971
2727.23877,0.12005
2725.31003,0.12038
2723.38129,0.12066
2721.45255,0.12105
2719.52381,0.12155
2717.59507,0.12203
2715.66633,0.12250
2713.73759,0.12305
2711.80885,0.12363
2709.88011,0.12418
2707.95137,0.12475
2706.02263,0.12541
2704.09389,0.12604
2702.16515,0.12655
2700.23641,0.12707
2698.30767,0.12772
2696.37893,0.12847
2694.45019,0.12916
2692.52145,0.12975
2690.59271,0.13027
2688.66397,0.13075
2686.73523,0.13121
2684.80649,0.13171
2682.87775,0.13229
2680.94901,0.13285
2679.02027,0.13328
2677.09153,0.13362
2675.16279,0.13395
2673.23405,0.13423
2671.30531,0.13448
2669.37656,0.13476
2667.44782,0.13509
2665.51908,0.13533
2663.59034,0.13541
2661.66160,0.13550
2659.73286,0.13574
2657.80412,0.13601
2655.87538,0.13619
2653.94664,0.13636
2652.01790,0.13665
2650.08916,0.13706
2648.16042,0.13748
2646.23168,0.13786
2644.30294,0.13821
2642.37420,0.13855
2640.44546,0.13894
2638.51672,0.13934
2636.58798,0.13969
2634.65924,0.14004
2632.73050,0.14048
2630.80176,0.14096
2628.87302,0.14137
2626.94428,0.14175
2625.01554,0.14219
2623.08680,0.14263
2621.15806,0.14304
2619.22932,0.14346
2617.30058,0.14381
2615.37184,0.14406
2613.44310,0.14435
2611.51436,0.14472
2609.58562,0.14502
2607.65688,0.14538
2605.72814,0.14580
2603.79939,0.14608
2601.87065,0.14630
2599.94191,0.14662
2598.01317,0.14690
2596.08443,0.14713
2594.15569,0.14745
2592.22695,0.14773
2590.29821,0.14783
2588.36947,0.14793
2586.44073,0.14820
2584.51199,0.14856
2582.58325,0.14886
2580.65451,0.14905
2578.72577,0.14911
2576.79703,0.14904
2574.86829,0.14902
2572.93955,0.14917
2571.01081,0.14933
2569.08207,0.14943
2567.15333,0.14950
2565.22459,0.14950
2563.29585,0.14943
2561.36711,0.14943
2559.43837,0.14957
2557.50963,0.14976
2555.58089,0.14985
2553.65215,0.14983
2551.72341,0.14977
2549.79467,0.14971
2547.86593,0.14971
2545.93719,0.14981
2544.00845,0.14996
2542.07971,0.15015
2540.15097,0.15037
2538.22222,0.15057
2536.29348,0.15065
2534.36474,0.15078
2532.43600,0.15111
2530.50726,0.15158
2528.57852,0.15210
2526.64978,0.15252
2524.72104,0.15272
2522.79230,0.15284
2520.86356,0.15305
2518.93482,0.15333
2517.00608,0.15365
2515.07734,0.15398
2513.14860,0.15424
2511.21986,0.15461
2509.29112,0.15533
2507.36238,0.15624
2505.43364,0.15705
2503.50490,0.15770
2501.57616,0.15834
2499.64742,0.15901
2497.71868,0.15968
2495.78994,0.16028
2493.86120,0.16077
2491.93246,0.16122
2490.00372,0.16171
2488.07498,0.16219
2486.14624,0.16268
2484.21750,0.16326
2482.28876,0.16390
2480.36002,0.16443
2478.43128,0.16484
2476.50254,0.16523
2474.57380,0.16566
2472.64505,0.16618
2470.71631,0.16674
2468.78757,0.16720
2466.85883,0.16755
2464.93009,0.16785
2463.00135,0.16811
2461.07261,0.16835
2459.14387,0.16863
2457.21513,0.16892
2455.28639,0.16921
2453.35765,0.16951
2451.42891,0.16987
2449.50017,0.17032
2447.57143,0.17088
2445.64269,0.17145
2443.71395,0.17202
2441.78521,0.17265
2439.85647,0.17329
2437.92773,0.17392
2435.99899,0.17459
2434.07025,0.17524
2432.14151,0.17582
2430.21277,0.17633
2428.28403,0.17682
2426.35529,0.17744
2424.42655,0.17813
2422.49781,0.17873
2420.56907,0.17941
2418.64033,0.18032
2416.71159,0.18131
2414.78285,0.18218
2412.85411,0.18288
2410.92537,0.18347
2408.99663,0.18409
2407.06789,0.18481
2405.13914,0.18556
2403.21040,0.18622
2401.28166,0.18684
2399.35292,0.18753
2397.42418,0.18824
2395.49544,0.18889
2393.56670,0.18943
2391.63796,0.18990
2389.70922,0.19032
2387.78048,0.19068
2385.85174,0.19105
2383.92300,0.19148
2381.99426,0.19198
2380.06552,0.19261
2378.13678,0.19338
2376.20804,0.19401
2374.27930,0.19439
2372.35056,0.19469
2370.42182,0.19519
2368.49308,0.19594
2366.56434,0.19667
2364.63560,0.19716
2362.70686,0.19755
2360.77812,0.19794
2358.84938,0.19828
2356.92064,0.19878
2354.99190,0.19941
2353.06316,0.19994
2351.13442,0.20032
2349.20568,0.20064
2347.27694,0.20101
2345.34820,0.20150
2343.41946,0.20198
2341.49072,0.20234
2339.56197,0.20268
2337.63323,0.20303
2335.70449,0.20328
2333.77575,0.20346
2331.84701,0.20361
2329.91827,0.20377
2327.98953,0.20401
2326.06079,0.20432
2324.13205,0.20453
2322.20331,0.20460
2320.27457,0.20470
2318.34583,0.20488
2316.41709,0.20497
2314.48835,0.20499
2312.55961,0.20505
2310.63087,0.20507
2308.70213,0.20490
2306.77339,0.20459
2304.84465,0.20433
2302.91591,0.20416
2300.98717,0.20401
2299.05843,0.20377
2297.12969,0.20348
2295.20095,0.20330
2293.27221,0.20334
2291.34347,0.20349
2289.41473,0.20354
2287.48599,0.20342
2285.55725,0.20326
2283.62851,0.20319
2281.69977,0.20310
2279.77103,0.20285
2277.84229,0.20254
2275.91355,0.20226
2273.98480,0.20193
2272.05606,0.20154
2270.12732,0.20104
2268.19858,0.20040
2266.26984,0.19969
2264.34110,0.19896
2262.41236,0.19816
2260.48362,0.19731
2258.55488,0.19655
2256.62614,0.19591
2254.69740,0.19530
2252.76866,0.19466
2250.83992,0.19414
2248.91118,0.19371
2246.98244,0.19322
2245.05370,0.19266
2243.12496,0.19222
2241.19622,0.19201
2239.26748,0.19197
2237.33874,0.19194
2235.41000,0.19188
2233.48126,0.19186
2231.55252,0.19192
2229.62378,0.19199
2227.69504,0.19206
2225.76630,0.19220
2223.83756,0.19246
2221.90882,0.19288
2219.98008,0.19337
2218.05134,0.19366
2216.12260,0.19370
2214.19386,0.19373
2212.26512,0.19387
2210.33638,0.19403
2208.40763,0.19410
2206.47889,0.19406
2204.55015,0.19382
2202.62141,0.19341
2200.69267,0.19296
2198.76393,0.19247
2196.83519,0.19186
2194.90645,0.19124
2192.97771,0.19066
2191.04897,0.18990
2189.12023,0.18894
2187.19149,0.18791
2185.26275,0.18694
2183.33401,0.18599
2181.40527,0.18492
2179.47653,0.18379
2177.54779,0.18263
2175.61905,0.18140
2173.69031,0.18017
2171.76157,0.17901
2169.83283,0.17794
2167.90409,0.17699
2165.97535,0.17597
2164.04661,0.17481
2162.11787,0.17377
2160.18913,0.17295
2158.26039,0.17225
2156.33165,0.17160
2154.40291,0.17105
2152.47417,0.17058
2150.54543,0.17011
2148.61669,0.16964
2146.68795,0.16925
2144.75921,0.16889
2142.83046,0.16849
2140.90172,0.16802
2138.97298,0.16766
2137.04424,0.16756
2135.11550,0.16755
2133.18676,0.16750
2131.25802,0.16749
2129.32928,0.16763
2127.40054,0.16792
2125.47180,0.16825
2123.54306,0.16855
2121.61432,0.16886
2119.68558,0.16913
2117.75684,0.16932
2115.82810,0.16958
2113.89936,0.16995
2111.97062,0.17034
2110.04188,0.17068
2108.11314,0.17096
2106.18440,0.17116
2104.25566,0.17134
2102.32692,0.17160
2100.39818,0.17194
2098.46944,0.17226
2096.54070,0.17260
2094.61196,0.17295
2092.68322,0.17325
2090.75448,0.17343
2088.82574,0.17357
2086.89700,0.17373
2084.96826,0.17382
2083.03952,0.17379
2081.11078,0.17369
2079.18204,0.17353
2077.25330,0.17334
2075.32455,0.17315
2073.39581,0.17293
2071.46707,0.17272
2069.53833,0.17256
2067.60959,0.17237
2065.68085,0.17218
2063.75211,0.17203
2061.82337,0.17200
2059.89463,0.17200
2057.96589,0.17198
2056.03715,0.17206
2054.10841,0.17229
2052.17967,0.17253
2050.25093,0.17274
2048.32219,0.17297
2046.39345,0.17330
2044.46471,0.17369
2042.53597,0.17394
2040.60723,0.17411
2038.67849,0.17446
2036.74975,0.17507
2034.82101,0.17583
2032.89227,0.17659
2030.96353,0.17725
2029.03479,0.17790
2027.10605,0.17862
2025.17731,0.17940
2023.24857,0.18027
2021.31983,0.18124
2019.39109,0.18222
2017.46235,0.18310
2015.53361,0.18394
2013.60487,0.18479
2011.67613,0.18558
2009.74738,0.18630
2007.81864,0.18698
2005.88990,0.18759
2003.96116,0.18807
2002.03242,0.18842
2000.10368,0.18872
1998.17494,0.18908
1996.24620,0.18954
1994.31746,0.19013
1992.38872,0.19067
1990.45998,0.19104
1988.53124,0.19137
1986.60250,0.19178
1984.67376,0.19220
1982.74502,0.19251
1980.81628,0.19267
1978.88754,0.19273
1976.95880,0.19276
1975.03006,0.19272
1973.10132,0.19260
1971.17258,0.19251
1969.24384,0.19242
1967.31510,0.19220
1965.38636,0.19186
1963.45762,0.19150
1961.52888,0.19127
1959.60014,0.19121
1957.67140,0.19115
1955.74266,0.19107
1953.81392,0.19099
1951.88518,0.19099
1949.95644,0.19125
1948.02770,0.19177
1946.09896,0.19242
1944.17021,0.19317
1942.24147,0.19400
1940.31273,0.19483
1938.38399,0.19569
1936.45525,0.19660
1934.52651,0.19743
1932.59777,0.19818
1930.66903,0.19902
1928.74029,0.19996
1926.81155,0.20089
1924.88281,0.20178
1922.95407,0.20255
1921.02533,0.20324
1919.09659,0.20397
1917.16785,0.20448
1915.23911,0.20460
1913.31037,0.20473
1911.38163,0.20510
1909.45289,0.20549
1907.52415,0.20571
1905.59541,0.20576
1903.66667,0.20580
1901.73793,0.20587
1899.80919,0.20589
1897.88045,0.20587
1895.95171,0.20589
1894.02297,0.20591
1892.09423,0.20589
1890.16549,0.20579
1888.23675,0.20557
1886.30801,0.20534
1884.37927,0.20516
1882.45053,0.20499
1880.52179,0.20475
1878.59304,0.20446
1876.66430,0.20416
1874.73556,0.20391
1872.80682,0.20378
1870.87808,0.20380
1868.94934,0.20362
1867.02060,0.20306
1865.09186,0.20238
1863.16312,0.20170
1861.23438,0.20100
1859.30564,0.20038
1857.37690,0.19984
1855.44816,0.19920
1853.51942,0.19841
1851.59068,0.19767
1849.66194,0.19714
1847.73320,0.19675
1845.80446,0.19627
1843.87572,0.19530
1841.94698,0.19392
1840.01824,0.19271
1838.08950,0.19172
1836.16076,0.19078
1834.23202,0.18990
1832.30328,0.18921
1830.37454,0.18852
1828.44580,0.18747
1826.51706,0.18615
1824.58832,0.18457
1822.65958,0.18283
1820.73084,0.18116
1818.80210,0.17952
1816.87336,0.17782
1814.94462,0.17620
1813.01587,0.17467
1811.08713,0.17297
1809.15839,0.17095
1807.22965,0.16887
1805.30091,0.16689
1803.37217,0.16500
1801.44343,0.16308
1799.51469,0.16105
1797.58595,0.15897
1795.65721,0.15709
1793.72847,0.15533
1791.79973,0.15313
1789.87099,0.15041
1787.94225,0.14777
1786.01351,0.14517
1784.08477,0.14235
1782.15603,0.13936
1780.22729,0.13607
1778.29855,0.13229
1776.36981,0.12840
1774.44107,0.12451
1772.51233,0.11984
1770.58359,0.11416
1768.65485,0.10827
1766.72611,0.10249
1764.79737,0.09720
1762.86863,0.09233
1760.93989,0.08774
1759.01115,0.08386
1757.08241,0.08052
1755.15367,0.07767
1753.22493,0.07555
1751.29619,0.07380
1749.36745,0.07205
1747.43870,0.07044
1745.50996,0.06914
1743.58122,0.06834
1741.65248,0.06804
1739.72374,0.06803
1737.79500,0.06821
1735.86626,0.06870
1733.93752,0.06940
1732.00878,0.06995
1730.08004,0.07047
1728.15130,0.07123
1726.22256,0.07226
1724.29382,0.07350
1722.36508,0.07495
1720.43634,0.07666
1718.50760,0.07864
1716.57886,0.08052
1714.65012,0.08192
1712.72138,0.08314
1710.79264,0.08448
1708.86390,0.08596
1706.93516,0.08738
1705.00642,0.08849
1703.07768,0.08948
1701.14894,0.09057
1699.22020,0.09115
1697.29146,0.09105
1695.36272,0.09065
1693.43398,0.09002
1691.50524,0.08950
1689.57650,0.08918
1687.64776,0.08904
1685.71902,0.08899
1683.79028,0.08835
1681.86154,0.08689
1679.93279,0.08547
1678.00405,0.08443
1676.07531,0.08353
1674.14657,0.08240
1672.21783,0.08133
1670.28909,0.08046
1668.36035,0.07933
1666.43161,0.07819
1664.50287,0.07749
1662.57413,0.07700
1660.64539,0.07636
1658.71665,0.07586
1656.78791,0.07590
1654.85917,0.07634
1652.93043,0.07624
1651.00169,0.07554
1649.07295,0.07533
1647.14421,0.07538
1645.21547,0.07497
1643.28673,0.07437
1641.35799,0.07402
1639.42925,0.07401
1637.50051,0.07438
1635.57177,0.07454
1633.64303,0.07387
1631.71429,0.07309
1629.78555,0.07263
1627.85681,0.07223
1625.92807,0.07183
1623.99933,0.07142
1622.07059,0.07090
1620.14185,0.07042
1618.21311,0.07003
1616.28437,0.06946
1614.35562,0.06878
1612.42688,0.06824
1610.49814,0.06767
1608.56940,0.06694
1606.64066,0.06622
1604.71192,0.06568
1602.78318,0.06511
1600.85444,0.06442
1598.92570,0.06378
1596.99696,0.06334
1595.06822,0.06324
1593.13948,0.06380
1591.21074,0.06516
1589.28200,0.06717
1587.35326,0.06958
1585.42452,0.07224
1583.49578,0.07492
1581.56704,0.07758
1579.63830,0.08036
1577.70956,0.08351
1575.78082,0.08674
1573.85208,0.08921
1571.92334,0.09127
1569.99460,0.09336
1568.06586,0.09503
1566.13712,0.09619
1564.20838,0.09723
1562.27964,0.09848
1560.35090,0.10003
1558.42216,0.10074
1556.49342,0.10005
1554.56468,0.09933
1552.63594,0.09888
1550.70720,0.09851
1548.77845,0.09806
1546.84971,0.09760
1544.92097,0.09740
1542.99223,0.09733
1541.06349,0.09665
1539.13475,0.09456
1537.20601,0.09216
1535.27727,0.09032
1533.34853,0.08827
1531.41979,0.08566
1529.49105,0.08296
1527.56231,0.08007
1525.63357,0.07687
1523.70483,0.07370
1521.77609,0.07034
1519.84735,0.06696
1517.91861,0.06440
1515.98987,0.06249
1514.06113,0.06100
1512.13239,0.06010
1510.20365,0.05980
1508.27491,0.05984
1506.34617,0.05975
1504.41743,0.05952
1502.48869,0.05978
1500.55995,0.06076
1498.63121,0.06229
1496.70247,0.06399
1494.77373,0.06542
1492.84499,0.06658
1490.91625,0.06757
1488.98751,0.06806
1487.05877,0.06771
1485.13003,0.06679
1483.20128,0.06557
1481.27254,0.06413
1479.34380,0.06248
1477.41506,0.06066
1475.48632,0.05869
1473.55758,0.05654
1471.62884,0.05431
1469.70010,0.05255
1467.77136,0.05156
1465.84262,0.05128
1463.91388,0.05145
1461.98514,0.05192
1460.05640,0.05272
1458.12766,0.05363
1456.19892,0.05406
1454.27018,0.05412
1452.34144,0.05438
1450.41270,0.05484
1448.48396,0.05531
1446.55522,0.05561
1444.62648,0.05562
1442.69774,0.05537
1440.76900,0.05488
1438.84026,0.05431
1436.91152,0.05352
1434.98278,0.05240
1433.05404,0.05147
1431.12530,0.05114
1429.19656,0.05135
1427.26782,0.05187
1425.33908,0.05268
1423.41034,0.05375
1421.48160,0.05498
1419.55286,0.05623
1417.62411,0.05720
1415.69537,0.05789
1413.76663,0.05857
1411.83789,0.05917
1409.90915,0.05951
1407.98041,0.05968
1406.05167,0.05974
1404.12293,0.05960
1402.19419,0.05927
1400.26545,0.05894
1398.33671,0.05866
1396.40797,0.05828
1394.47923,0.05756
1392.55049,0.05654
1390.62175,0.05546
1388.69301,0.05435
1386.76427,0.05317
1384.83553,0.05199
1382.90679,0.05099
1380.97805,0.05032
1379.04931,0.04997
1377.12057,0.04987
1375.19183,0.05001
1373.26309,0.05034
1371.33435,0.05075
1369.40561,0.05128
1367.47687,0.05183
1365.54813,0.05230
1363.61939,0.05268
1361.69065,0.05291
1359.76191,0.05297
1357.83317,0.05297
1355.90443,0.05299
1353.97569,0.05311
1352.04695,0.05330
1350.11820,0.05336
1348.18946,0.05309
1346.26072,0.05255
1344.33198,0.05192
1342.40324,0.05138
1340.47450,0.05103
1338.54576,0.05079
1336.61702,0.05051
1334.68828,0.05033
1332.75954,0.05054
1330.83080,0.05100
1328.90206,0.05141
1326.97332,0.05177
1325.04458,0.05211
1323.11584,0.05239
1321.18710,0.05270
1319.25836,0.05323
1317.32962,0.05393
1315.40088,0.05465
1313.47214,0.05533
1311.54340,0.05601
1309.61466,0.05672
1307.68592,0.05735
1305.75718,0.05779
1303.82844,0.05804
1301.89970,0.05813
1299.97096,0.05805
1298.04222,0.05784
1296.11348,0.05748
1294.18474,0.05693
1292.25600,0.05611
1290.32726,0.05511
1288.39852,0.05411
1286.46978,0.05324
1284.54103,0.05250
1282.61229,0.05197
1280.68355,0.05181
1278.75481,0.05194
1276.82607,0.05190
1274.89733,0.05155
1272.96859,0.05113
1271.03985,0.05084
1269.11111,0.05069
1267.18237,0.05058
1265.25363,0.05039
1263.32489,0.05009
1261.39615,0.04976
1259.46741,0.04943
1257.53867,0.04919
1255.60993,0.04915
1253.68119,0.04908
1251.75245,0.04884
1249.82371,0.04863
1247.89497,0.04859
1245.96623,0.04866
1244.03749,0.04878
1242.10875,0.04894
1240.18001,0.04915
1238.25127,0.04953
1236.32253,0.05002
1234.39379,0.05045
1232.46505,0.05085
1230.53631,0.05129
1228.60757,0.05174
1226.67883,0.05228
1224.75009,0.05293
1222.82135,0.05346
1220.89261,0.05380
1218.96386,0.05408
1217.03512,0.05434
1215.10638,0.05444
1213.17764,0.05432
1211.24890,0.05400
1209.32016,0.05368
1207.39142,0.05345
1205.46268,0.05320
1203.53394,0.05296
1201.60520,0.05272
1199.67646,0.05242
1197.74772,0.05216
1195.81898,0.05192
1193.89024,0.05140
1191.96150,0.05066
1190.03276,0.04986
1188.10402,0.04886
1186.17528,0.04755
1184.24654,0.04618
1182.31780,0.04500
1180.38906,0.04395
1178.46032,0.04272
1176.53158,0.04131
1174.60284,0.04022
1172.67410,0.03981
1170.74536,0.04006
1168.81662,0.04094
1166.88788,0.04258
1164.95914,0.04487
1163.03040,0.04728
1161.10166,0.04930
1159.17292,0.05070
1157.24418,0.05135
1155.31544,0.05143
1153.38669,0.05128
1151.45795,0.05093
1149.52921,0.05021
1147.60047,0.04922
1145.67173,0.04811
1143.74299,0.04684
1141.81425,0.04538
1139.88551,0.04374
1137.95677,0.04217
1136.02803,0.04100
1134.09929,0.04033
1132.17055,0.04022
1130.24181,0.04075
1128.31307,0.04192
1126.38433,0.04340
1124.45559,0.04491
1122.52685,0.04638
1120.59811,0.04761
1118.66937,0.04847
1116.74063,0.04933
1114.81189,0.05058
1112.88315,0.05200
1110.95441,0.05313
1109.02567,0.05377
1107.09693,0.05405
1105.16819,0.05414
1103.23945,0.05414
1101.31071,0.05401
1099.38197,0.05360
1097.45323,0.05278
1095.52449,0.05177
1093.59575,0.05081
1091.66701,0.04987
1089.73827,0.04901
1087.80952,0.04831
1085.88078,0.04782
1083.95204,0.04757
1082.02330,0.04761
1080.09456,0.04809
1078.16582,0.04914
1076.23708,0.05056
1074.30834,0.05205
1072.37960,0.05361
1070.45086,0.05570
1068.52212,0.05893
1066.59338,0.06343
1064.66464,0.06893
1062.73590,0.07487
1060.80716,0.08027
1058.87842,0.08419
1056.94968,0.08659
1055.02094,0.08790
1053.09220,0.08821
1051.16346,0.08752
1049.23472,0.08616
1047.30598,0.08464
1045.37724,0.08331
1043.44850,0.08257
1041.51976,0.08300
1039.59102,0.08505
1037.66228,0.08839
1035.73354,0.09197
1033.80480,0.09476
1031.87606,0.09631
1029.94732,0.09680
1028.01858,0.09671
1026.08984,0.09632
1024.16110,0.09582
1022.23236,0.09536
1020.30361,0.09499
1018.37487,0.09477
1016.44613,0.09476
1014.51739,0.09473
1012.58865,0.09451
1010.65991,0.09417
1008.73117,0.09369
1006.80243,0.09311
1004.87369,0.09261
1002.94495,0.09240
1001.01621,0.09251
999.08747,0.09273
997.15873,0.09308
995.22999,0.09369
993.30125,0.09447
991.37251,0.09531
989.44377,0.09621
987.51503,0.09716
985.58629,0.09829
983.65755,0.09965
981.72881,0.10097
979.80007,0.10212
977.87133,0.10314
975.94259,0.10400
974.01385,0.10467
972.08511,0.10514
970.15637,0.10548
968.22763,0.10590
966.29889,0.10649
964.37015,0.10736
962.44141,0.10848
960.51267,0.10957
958.58393,0.11074
956.65519,0.11218
954.72644,0.11360
952.79770,0.11478
950.86896,0.11562
948.94022,0.11599
947.01148,0.11608
945.08274,0.11611
943.15400,0.11592
941.22526,0.11543
939.29652,0.11477
937.36778,0.11401
935.43904,0.11302
933.51030,0.11188
931.58156,0.11097
929.65282,0.11040
927.72408,0.10984
925.79534,0.10895
923.86660,0.10784
921.93786,0.10688
920.00912,0.10614
918.08038,0.10546
916.15164,0.10462
914.22290,0.10359
912.29416,0.10265
910.36542,0.10188
908.43668,0.10087
906.50794,0.09946
904.57920,0.09807
902.65046,0.09705
900.72172,0.09644
898.79298,0.09622
896.86424,0.09640
894.93550,0.09698
893.00676,0.09795
891.07802,0.09908
889.14927,0.10015
887.22053,0.10117
885.29179,0.10215
883.36305,0.10284
881.43431,0.10307
879.50557,0.10309
877.57683,0.10324
875.64809,0.10341
873.71935,0.10340
871.79061,0.10332
869.86187,0.10344
867.93313,0.10372
866.00439,0.10371
864.07565,0.10321
862.14691,0.10267
860.21817,0.10230
858.28943,0.10173
856.36069,0.10099
854.43195,0.10043
852.50321,0.09984
850.57447,0.09894
848.64573,0.09809
846.71699,0.09748
844.78825,0.09691
842.85951,0.09624
840.93077,0.09567
839.00203,0.09515
837.07329,0.09438
835.14455,0.09366
833.21581,0.09352
831.28707,0.09376
829.35833,0.09400
827.42959,0.09416
825.50085,0.09411
823.57210,0.09392
821.64336,0.09387
819.71462,0.09401
817.78588,0.09411
815.85714,0.09399
813.92840,0.09367
811.99966,0.09316
810.07092,0.09253
808.14218,0.09206
806.21344,0.09183
804.28470,0.09158
802.35596,0.09122
800.42722,0.09077
798.49848,0.09015
796.56974,0.08960
794.64100,0.08940
792.71226,0.08926
790.78352,0.08872
788.85478,0.08800
786.92604,0.08749
784.99730,0.08704
783.06856,0.08640
781.13982,0.08576
779.21108,0.08523
777.28234,0.08466
775.35360,0.08377
773.42486,0.08264
771.49612,0.08173
769.56738,0.08116
767.63864,0.08068
765.70990,0.08013
763.78116,0.07956
761.85242,0.07890
759.92368,0.07803
757.99493,0.07703
756.06619,0.07611
754.13745,0.07534
752.20871,0.07467
750.27997,0.07402
748.35123,0.07344
746.42249,0.07300
744.49375,0.07275
742.56501,0.07242
740.63627,0.07173
738.70753,0.07088
736.77879,0.07009
734.85005,0.06937
732.92131,0.06861
730.99257,0.06770
729.06383,0.06689
727.13509,0.06640
725.20635,0.06604
723.27761,0.06561
721.34887,0.06529
719.42013,0.06512
717.49139,0.06470
715.56265,0.06411
713.63391,0.06402
711.70517,0.06432
709.77643,0.06431
707.84769,0.06403
705.91895,0.06381
703.99021,0.06373
702.06147,0.06374
700.13273,0.06382
698.20399,0.06385
696.27525,0.06377
694.34651,0.06372
692.41777,0.06371
690.48902,0.06347
688.56028,0.06301
686.63154,0.06270
684.70280,0.06269
682.77406,0.06268
680.84532,0.06234
678.91658,0.06171
676.98784,0.06108
675.05910,0.06081
673.13036,0.06111
671.20162,0.06163
669.27288,0.06195
667.34414,0.06194
665.41540,0.06193
663.48666,0.06252
661.55792,0.06328
659.62918,0.06346
657.70044,0.06322
655.77170,0.06276
653.84296,0.06213
651.91422,0.06185
649.98548,0.06225
648.05674,0.06251
646.12800,0.06176
644.19926,0.06063
642.27052,0.06012
640.34178,0.06000
638.41304,0.05969
636.48430,0.05929
634.55556,0.05931
632.62682,0.05985
630.69808,0.06008
628.76934,0.05964
626.84060,0.05930
624.91185,0.05963
622.98311,0.06020
621.05437,0.06038
619.12563,0.06038
617.19689,0.06102
615.26815,0.06251
613.33941,0.06381
611.41067,0.06409
609.48193,0.06400
607.55319,0.06466
605.62445,0.06563
603.69571,0.06576
601.76697,0.06531
599.83823,0.06491
