7497.03301,0.73069
7495.10426,0.72468
7493.17552,0.72072
7491.24677,0.72072
7489.31803,0.72666
7487.38928,0.73051
7485.46054,0.72605
7483.53179,0.71842
7481.60305,0.71326
7479.67430,0.71271
7477.74556,0.71681
7475.81681,0.72205
7473.88807,0.72429
7471.95932,0.72415
7470.03057,0.72353
7468.10183,0.72177
7466.17308,0.71994
7464.24434,0.71979
7462.31559,0.71817
7460.38685,0.71313
7458.45810,0.71060
7456.52936,0.71374
7454.60061,0.71728
7452.67187,0.71886
7450.74312,0.72027
7448.81438,0.72025
7446.88563,0.71824
7444.95689,0.71691
7443.02814,0.71554
7441.09940,0.71084
7439.17065,0.70429
7437.24190,0.70006
7435.31316,0.70135
7433.38441,0.70702
7431.45567,0.71020
7429.52692,0.70756
7427.59818,0.70192
7425.66943,0.69738
7423.74069,0.69916
7421.81194,0.70691
7419.88320,0.71069
7417.95445,0.70566
7416.02571,0.69988
7414.09696,0.69858
7412.16822,0.69909
7410.23947,0.70055
7408.31073,0.70248
7406.38198,0.70070
7404.45323,0.69467
7402.52449,0.69133
7400.59574,0.69291
7398.66700,0.69235
7396.73825,0.68781
7394.80951,0.68601
7392.88076,0.68928
7390.95202,0.69195
7389.02327,0.68993
7387.09453,0.68600
7385.16578,0.68520
7383.23704,0.68880
7381.30829,0.69179
7379.37955,0.68918
7377.45080,0.68501
7375.52205,0.68722
7373.59331,0.69392
7371.66456,0.69659
7369.73582,0.69461
7367.80707,0.69161
7365.87833,0.68692
7363.94958,0.68199
7362.02084,0.68232
7360.09209,0.68805
7358.16335,0.69283
7356.23460,0.69185
7354.30586,0.68699
7352.37711,0.68379
7350.44837,0.68370
7348.51962,0.68485
7346.59088,0.68666
7344.66213,0.68829
7342.73338,0.68916
7340.80464,0.69013
7338.87589,0.69144
7336.94715,0.69018
7335.01840,0.68438
7333.08966,0.67935
7331.16091,0.67903
7329.23217,0.67971
7327.30342,0.67843
7325.37468,0.67576
7323.44593,0.67383
7321.51719,0.67537
7319.58844,0.67828
7317.65970,0.67727
7315.73095,0.67346
7313.80221,0.67043
7311.87346,0.66862
7309.94471,0.66974
7308.01597,0.67379
7306.08722,0.67720
7304.15848,0.67775
7302.22973,0.67581
7300.30099,0.67407
7298.37224,0.67474
7296.44350,0.67737
7294.51475,0.67929
7292.58601,0.67735
7290.65726,0.67363
7288.72852,0.67277
7286.79977,0.67418
7284.87103,0.67427
7282.94228,0.67208
7281.01353,0.67072
7279.08479,0.67322
7277.15604,0.67651
7275.22730,0.67641
7273.29855,0.67421
7271.36981,0.67224
7269.44106,0.67136
7267.51232,0.67101
7265.58357,0.67016
7263.65483,0.66974
7261.72608,0.66994
7259.79734,0.67064
7257.86859,0.67171
7255.93985,0.67081
7254.01110,0.66879
7252.08236,0.66895
7250.15361,0.67153
7248.22486,0.67490
7246.29612,0.67661
7244.36737,0.67609
7242.43863,0.67528
7240.50988,0.67379
7238.58114,0.66917
7236.65239,0.66308
7234.72365,0.66071
7232.79490,0.66311
7230.86616,0.66675
7228.93741,0.66925
7227.00867,0.66959
7225.07992,0.66783
7223.15118,0.66793
7221.22243,0.67190
7219.29369,0.67501
7217.36494,0.67407
7215.43619,0.67068
7213.50745,0.66678
7211.57870,0.66443
7209.64996,0.66399
7207.72121,0.66372
7205.79247,0.66234
7203.86372,0.65932
7201.93498,0.65605
7200.00623,0.65500
7198.07749,0.65554
7196.14874,0.65723
7194.22000,0.66139
7192.29125,0.66353
7190.36251,0.66109
7188.43376,0.65897
7186.50501,0.65793
7184.57627,0.65670
7182.64752,0.65623
7180.71878,0.65497
7178.79003,0.65249
7176.86129,0.65227
7174.93254,0.65588
7173.00380,0.65843
7171.07505,0.65561
7169.14631,0.65124
7167.21756,0.64848
7165.28882,0.64586
7163.36007,0.64480
7161.43133,0.64660
7159.50258,0.64836
7157.57384,0.64804
7155.64509,0.64595
7153.71634,0.64305
7151.78760,0.64086
7149.85885,0.64025
7147.93011,0.64027
7146.00136,0.64046
7144.07262,0.64249
7142.14387,0.64483
7140.21513,0.64317
7138.28638,0.63920
7136.35764,0.63638
7134.42889,0.63408
7132.50015,0.63269
7130.57140,0.63112
7128.64266,0.62834
7126.71391,0.62827
7124.78516,0.63118
7122.85642,0.63265
7120.92767,0.63187
7118.99893,0.63044
7117.07018,0.62796
7115.14144,0.62300
7113.21269,0.61717
7111.28395,0.61319
7109.35520,0.61077
7107.42646,0.60951
7105.49771,0.60987
7103.56897,0.61047
7101.64022,0.61051
7099.71148,0.61023
7097.78273,0.60875
7095.85399,0.60572
7093.92524,0.60274
7091.99649,0.60243
7090.06775,0.60315
7088.13900,0.60046
7086.21026,0.59644
7084.28151,0.59521
7082.35277,0.59480
7080.42402,0.59222
7078.49528,0.58848
7076.56653,0.58509
7074.63779,0.58291
7072.70904,0.58535
7070.78030,0.59116
7068.85155,0.59176
7066.92281,0.58462
7064.99406,0.57690
7063.06532,0.57526
7061.13657,0.57728
7059.20782,0.57697
7057.27908,0.57525
7055.35033,0.57475
7053.42159,0.57451
7051.49284,0.57330
7049.56410,0.57129
7047.63535,0.56886
7045.70661,0.56530
7043.77786,0.56147
7041.84912,0.55969
7039.92037,0.56003
7037.99163,0.56041
7036.06288,0.55806
7034.13414,0.55392
7032.20539,0.55193
7030.27664,0.55154
7028.34790,0.55126
7026.41915,0.55266
7024.49041,0.55373
7022.56166,0.55129
7020.63292,0.54777
7018.70417,0.54569
7016.77543,0.54474
7014.84668,0.54365
7012.91794,0.54082
7010.98919,0.53892
7009.06045,0.54070
7007.13170,0.54095
7005.20296,0.53615
7003.27421,0.53208
7001.34547,0.53283
6999.41672,0.53538
6997.48797,0.53622
6995.55923,0.53523
6993.63048,0.53365
6991.70174,0.53107
6989.77299,0.52682
6987.84425,0.52411
6985.91550,0.52682
6983.98676,0.53111
6982.05801,0.52958
6980.12927,0.52400
6978.20052,0.52107
6976.27178,0.52223
6974.34303,0.52581
6972.41429,0.52862
6970.48554,0.52831
6968.55680,0.52651
6966.62805,0.52501
6964.69930,0.52377
6962.77056,0.52312
6960.84181,0.52279
6958.91307,0.52128
6956.98432,0.51965
6955.05558,0.52063
6953.12683,0.52234
6951.19809,0.52273
6949.26934,0.52407
6947.34060,0.52608
6945.41185,0.52600
6943.48311,0.52409
6941.55436,0.52109
6939.62562,0.51787
6937.69687,0.51727
6935.76812,0.51896
6933.83938,0.51854
6931.91063,0.51572
6929.98189,0.51426
6928.05314,0.51544
6926.12440,0.51866
6924.19565,0.52183
6922.26691,0.52208
6920.33816,0.52032
6918.40942,0.51975
6916.48067,0.52064
6914.55193,0.51948
6912.62318,0.51480
6910.69444,0.51027
6908.76569,0.50856
6906.83695,0.50924
6904.90820,0.51127
6902.97945,0.51308
6901.05071,0.51422
6899.12196,0.51537
6897.19322,0.51611
6895.26447,0.51576
6893.33573,0.51345
6891.40698,0.50925
6889.47824,0.50627
6887.54949,0.50637
6885.62075,0.50732
6883.69200,0.50752
6881.76326,0.50789
6879.83451,0.50911
6877.90577,0.51102
6875.97702,0.51242
6874.04828,0.51172
6872.11953,0.50926
6870.19078,0.50721
6868.26204,0.50761
6866.33329,0.50992
6864.40455,0.51126
6862.47580,0.51017
6860.54706,0.50860
6858.61831,0.50908
6856.68957,0.51104
6854.76082,0.51274
6852.83208,0.51358
6850.90333,0.51307
6848.97459,0.51181
6847.04584,0.51105
6845.11710,0.51021
6843.18835,0.50938
6841.25960,0.51104
6839.33086,0.51379
6837.40211,0.51427
6835.47337,0.51527
6833.54462,0.51731
6831.61588,0.51528
6829.68713,0.51063
6827.75839,0.50916
6825.82964,0.50975
6823.90090,0.50781
6821.97215,0.50490
6820.04341,0.50445
6818.11466,0.50550
6816.18592,0.50655
6814.25717,0.50767
6812.32843,0.50988
6810.39968,0.51286
6808.47093,0.51312
6806.54219,0.50947
6804.61344,0.50617
6802.68470,0.50583
6800.75595,0.50694
6798.82721,0.50839
6796.89846,0.50884
6794.96972,0.50656
6793.04097,0.50273
6791.11223,0.50054
6789.18348,0.50119
6787.25474,0.50383
6785.32599,0.50752
6783.39725,0.50899
6781.46850,0.50636
6779.53975,0.50352
6777.61101,0.50327
6775.68226,0.50482
6773.75352,0.50588
6771.82477,0.50457
6769.89603,0.50285
6767.96728,0.50336
6766.03854,0.50586
6764.10979,0.50793
6762.18105,0.50731
6760.25230,0.50666
6758.32356,0.50928
6756.39481,0.51098
6754.46607,0.50779
6752.53732,0.50383
6750.60858,0.50325
6748.67983,0.50468
6746.75108,0.50577
6744.82234,0.50630
6742.89359,0.50676
6740.96485,0.50782
6739.03610,0.51047
6737.10736,0.51375
6735.17861,0.51468
6733.24987,0.51272
6731.32112,0.51010
6729.39238,0.50810
6727.46363,0.50732
6725.53489,0.50773
6723.60614,0.50747
6721.67740,0.50753
6719.74865,0.51074
6717.81991,0.51458
6715.89116,0.51521
6713.96241,0.51325
6712.03367,0.51051
6710.10492,0.50923
6708.17618,0.51054
6706.24743,0.51196
6704.31869,0.51248
6702.38994,0.51288
6700.46120,0.51241
6698.53245,0.51170
6696.60371,0.51211
6694.67496,0.51308
6692.74622,0.51355
6690.81747,0.51288
6688.88873,0.51150
6686.95998,0.51100
6685.03123,0.51255
6683.10249,0.51566
6681.17374,0.51737
6679.24500,0.51565
6677.31625,0.51375
6675.38751,0.51443
6673.45876,0.51567
6671.53002,0.51651
6669.60127,0.51839
6667.67253,0.52120
6665.74378,0.52300
6663.81504,0.52230
6661.88629,0.52004
6659.95755,0.51892
6658.02880,0.51990
6656.10006,0.52040
6654.17131,0.51890
6652.24256,0.51733
6650.31382,0.51707
6648.38507,0.51776
6646.45633,0.51810
6644.52758,0.51771
6642.59884,0.51841
6640.67009,0.52039
6638.74135,0.52177
6636.81260,0.52226
6634.88386,0.52191
6632.95511,0.52050
6631.02637,0.52030
6629.09762,0.52296
6627.16888,0.52582
6625.24013,0.52605
6623.31139,0.52421
6621.38264,0.52266
6619.45389,0.52356
6617.52515,0.52551
6615.59640,0.52592
6613.66766,0.52589
6611.73891,0.52627
6609.81017,0.52692
6607.88142,0.52771
6605.95268,0.52713
6604.02393,0.52596
6602.09519,0.52688
6600.16644,0.52947
6598.23770,0.53000
6596.30895,0.52745
6594.38021,0.52613
6592.45146,0.52799
6590.52271,0.53056
6588.59397,0.53293
6586.66522,0.53527
6584.73648,0.53577
6582.80773,0.53383
6580.87899,0.53224
6578.95024,0.53247
6577.02150,0.53331
6575.09275,0.53451
6573.16401,0.53605
6571.23526,0.53634
6569.30652,0.53485
6567.37777,0.53298
6565.44903,0.53142
6563.52028,0.53030
6561.59154,0.53064
6559.66279,0.53455
6557.73404,0.54031
6555.80530,0.54175
6553.87655,0.53862
6551.94781,0.53569
6550.01906,0.53445
6548.09032,0.53501
6546.16157,0.53627
6544.23283,0.53655
6542.30408,0.53651
6540.37534,0.53600
6538.44659,0.53451
6536.51785,0.53461
6534.58910,0.53735
6532.66036,0.53956
6530.73161,0.53956
6528.80287,0.53835
6526.87412,0.53716
6524.94537,0.53688
6523.01663,0.53706
6521.08788,0.53730
6519.15914,0.53776
6517.23039,0.53804
6515.30165,0.53807
6513.37290,0.53772
6511.44416,0.53676
6509.51541,0.53599
6507.58667,0.53645
6505.65792,0.53784
6503.72918,0.53873
6501.80043,0.53782
6499.87169,0.53532
6497.94294,0.53339
6496.01419,0.53357
6494.08545,0.53546
6492.15670,0.53804
6490.22796,0.54046
6488.29921,0.54220
6486.37047,0.54264
6484.44172,0.54120
6482.51298,0.53857
6480.58423,0.53647
6478.65549,0.53620
6476.72674,0.53791
6474.79800,0.53979
6472.86925,0.53995
6470.94051,0.53916
6469.01176,0.53842
6467.08302,0.53706
6465.15427,0.53533
6463.22552,0.53531
6461.29678,0.53763
6459.36803,0.53913
6457.43929,0.53798
6455.51054,0.53690
6453.58180,0.53771
6451.65305,0.53866
6449.72431,0.53817
6447.79556,0.53719
6445.86682,0.53720
6443.93807,0.53874
6442.00933,0.54074
6440.08058,0.54197
6438.15184,0.54346
6436.22309,0.54511
6434.29434,0.54461
6432.36560,0.54222
6430.43685,0.54035
6428.50811,0.54049
6426.57936,0.54241
6424.65062,0.54408
6422.72187,0.54365
6420.79313,0.54215
6418.86438,0.54198
6416.93564,0.54312
6415.00689,0.54414
6413.07815,0.54386
6411.14940,0.54214
6409.22066,0.54104
6407.29191,0.54108
6405.36317,0.54106
6403.43442,0.54181
6401.50567,0.54393
6399.57693,0.54659
6397.64818,0.54839
6395.71944,0.54823
6393.79069,0.54708
6391.86195,0.54627
6389.93320,0.54565
6388.00446,0.54468
6386.07571,0.54374
6384.14697,0.54393
6382.21822,0.54584
6380.28948,0.54797
6378.36073,0.54819
6376.43199,0.54719
6374.50324,0.54660
6372.57450,0.54635
6370.64575,0.54631
6368.71700,0.54671
6366.78826,0.54753
6364.85951,0.54797
6362.93077,0.54727
6361.00202,0.54687
6359.07328,0.54791
6357.14453,0.54859
6355.21579,0.54827
6353.28704,0.54845
6351.35830,0.54930
6349.42955,0.54996
6347.50081,0.54978
6345.57206,0.54905
6343.64332,0.54959
6341.71457,0.55152
6339.78582,0.55256
6337.85708,0.55222
6335.92833,0.55131
6333.99959,0.55013
6332.07084,0.54970
6330.14210,0.54996
6328.21335,0.55039
6326.28461,0.55196
6324.35586,0.55386
6322.42712,0.55359
6320.49837,0.55138
6318.56963,0.54948
6316.64088,0.54896
6314.71214,0.55028
6312.78339,0.55208
6310.85465,0.55204
6308.92590,0.55089
6306.99715,0.54970
6305.06841,0.54911
6303.13966,0.55036
6301.21092,0.55229
6299.28217,0.55291
6297.35343,0.55236
6295.42468,0.55232
6293.49594,0.55366
6291.56719,0.55521
6289.63845,0.55607
6287.70970,0.55607
6285.78096,0.55487
6283.85221,0.55381
6281.92347,0.55479
6279.99472,0.55707
6278.06598,0.55850
6276.13723,0.55853
6274.20848,0.55844
6272.27974,0.55926
6270.35099,0.56083
6268.42225,0.56269
6266.49350,0.56394
6264.56476,0.56399
6262.63601,0.56393
6260.70727,0.56410
6258.77852,0.56364
6256.84978,0.56314
6254.92103,0.56276
6252.99229,0.56241
6251.06354,0.56401
6249.13480,0.56691
6247.20605,0.56822
6245.27730,0.56843
6243.34856,0.56883
6241.41981,0.56786
6239.49107,0.56618
6237.56232,0.56743
6235.63358,0.57018
6233.70483,0.57075
6231.77609,0.57022
6229.84734,0.57076
6227.91860,0.57205
6225.98985,0.57296
6224.06111,0.57344
6222.13236,0.57433
6220.20362,0.57590
6218.27487,0.57818
6216.34613,0.57990
6214.41738,0.57912
6212.48863,0.57720
6210.55989,0.57663
6208.63114,0.57700
6206.70240,0.57727
6204.77365,0.57796
6202.84491,0.57945
6200.91616,0.58073
6198.98742,0.58095
6197.05867,0.58095
6195.12993,0.58169
6193.20118,0.58285
6191.27244,0.58378
6189.34369,0.58458
6187.41495,0.58553
6185.48620,0.58664
6183.55746,0.58783
6181.62871,0.58767
6179.69996,0.58592
6177.77122,0.58552
6175.84247,0.58758
6173.91373,0.58994
6171.98498,0.59105
6170.05624,0.59084
6168.12749,0.59014
6166.19875,0.59024
6164.27000,0.59157
6162.34126,0.59347
6160.41251,0.59420
6158.48377,0.59295
6156.55502,0.59197
6154.62628,0.59246
6152.69753,0.59372
6150.76878,0.59573
6148.84004,0.59732
6146.91129,0.59795
6144.98255,0.59911
6143.05380,0.59985
6141.12506,0.59866
6139.19631,0.59803
6137.26757,0.59952
6135.33882,0.60084
6133.41008,0.60058
6131.48133,0.59943
6129.55259,0.59854
6127.62384,0.59874
6125.69510,0.59979
6123.76635,0.60083
6121.83761,0.60138
6119.90886,0.60213
6117.98011,0.60354
6116.05137,0.60418
6114.12262,0.60380
6112.19388,0.60365
6110.26513,0.60327
6108.33639,0.60262
6106.40764,0.60248
6104.47890,0.60239
6102.55015,0.60236
6100.62141,0.60263
6098.69266,0.60290
6096.76392,0.60319
6094.83517,0.60310
6092.90643,0.60194
6090.97768,0.60083
6089.04893,0.60138
6087.12019,0.60200
6085.19144,0.60142
6083.26270,0.60160
6081.33395,0.60284
6079.40521,0.60334
6077.47646,0.60271
6075.54772,0.60203
6073.61897,0.60184
6071.69023,0.60176
6069.76148,0.60157
6067.83274,0.60138
6065.90399,0.60143
6063.97525,0.60139
6062.04650,0.60075
6060.11776,0.59957
6058.18901,0.59773
6056.26026,0.59571
6054.33152,0.59558
6052.40277,0.59799
6050.47403,0.60036
6048.54528,0.60103
6046.61654,0.60069
6044.68779,0.59981
6042.75905,0.59869
6040.83030,0.59798
6038.90156,0.59766
6036.97281,0.59678
6035.04407,0.59534
6033.11532,0.59441
6031.18658,0.59445
6029.25783,0.59588
6027.32909,0.59781
6025.40034,0.59809
6023.47159,0.59634
6021.54285,0.59433
6019.61410,0.59420
6017.68536,0.59513
6015.75661,0.59446
6013.82787,0.59230
6011.89912,0.59019
6009.97038,0.58921
6008.04163,0.58961
6006.11289,0.58968
6004.18414,0.58851
6002.25540,0.58764
6000.32665,0.58792
5998.39791,0.58851
5996.46916,0.58847
5994.54041,0.58770
5992.61167,0.58685
5990.68292,0.58649
5988.75418,0.58708
5986.82543,0.58860
5984.89669,0.58990
5982.96794,0.58980
5981.03920,0.58862
5979.11045,0.58739
5977.18171,0.58608
5975.25296,0.58492
5973.32422,0.58489
5971.39547,0.58577
5969.46673,0.58625
5967.53798,0.58620
5965.60924,0.58634
5963.68049,0.58662
5961.75174,0.58669
5959.82300,0.58618
5957.89425,0.58495
5955.96551,0.58418
5954.03676,0.58467
5952.10802,0.58544
5950.17927,0.58556
5948.25053,0.58534
5946.32178,0.58471
5944.39304,0.58340
5942.46429,0.58289
5940.53555,0.58419
5938.60680,0.58538
5936.67806,0.58468
5934.74931,0.58332
5932.82057,0.58295
5930.89182,0.58329
5928.96307,0.58324
5927.03433,0.58254
5925.10558,0.58215
5923.17684,0.58251
5921.24809,0.58247
5919.31935,0.58202
5917.39060,0.58238
5915.46186,0.58306
5913.53311,0.58256
5911.60437,0.58109
5909.67562,0.57971
5907.74688,0.57891
5905.81813,0.57894
5903.88939,0.57888
5901.96064,0.57756
5900.03189,0.57599
5898.10315,0.57522
5896.17440,0.57427
5894.24566,0.57339
5892.31691,0.57424
5890.38817,0.57574
5888.45942,0.57568
5886.53068,0.57486
5884.60193,0.57452
5882.67319,0.57415
5880.74444,0.57350
5878.81570,0.57306
5876.88695,0.57312
5874.95821,0.57326
5873.02946,0.57296
5871.10072,0.57246
5869.17197,0.57223
5867.24322,0.57221
5865.31448,0.57195
5863.38573,0.57136
5861.45699,0.57103
5859.52824,0.57111
5857.59950,0.57146
5855.67075,0.57216
5853.74201,0.57285
5851.81326,0.57282
5849.88452,0.57201
5847.95577,0.57130
5846.02703,0.57167
5844.09828,0.57254
5842.16954,0.57221
5840.24079,0.57069
5838.31205,0.56997
5836.38330,0.57061
5834.45455,0.57101
5832.52581,0.57031
5830.59706,0.56933
5828.66832,0.56890
5826.73957,0.56915
5824.81083,0.56928
5822.88208,0.56838
5820.95334,0.56778
5819.02459,0.56825
5817.09585,0.56727
5815.16710,0.56455
5813.23836,0.56315
5811.30961,0.56357
5809.38087,0.56392
5807.45212,0.56343
5805.52337,0.56269
5803.59463,0.56240
5801.66588,0.56279
5799.73714,0.56296
5797.80839,0.56157
5795.87965,0.55996
5793.95090,0.56017
5792.02216,0.56115
5790.09341,0.56128
5788.16467,0.56112
5786.23592,0.56144
5784.30718,0.56180
5782.37843,0.56212
5780.44969,0.56336
5778.52094,0.56527
5776.59220,0.56587
5774.66345,0.56470
5772.73470,0.56398
5770.80596,0.56497
5768.87721,0.56689
5766.94847,0.56846
5765.01972,0.56893
5763.09098,0.56905
5761.16223,0.56975
5759.23349,0.57089
5757.30474,0.57171
5755.37600,0.57176
5753.44725,0.57147
5751.51851,0.57118
5749.58976,0.57044
5747.66102,0.56963
5745.73227,0.56983
5743.80352,0.57055
5741.87478,0.57050
5739.94603,0.57010
5738.01729,0.57032
5736.08854,0.57137
5734.15980,0.57283
5732.23105,0.57342
5730.30231,0.57215
5728.37356,0.57038
5726.44482,0.57028
5724.51607,0.57120
5722.58733,0.57151
5720.65858,0.57178
5718.72984,0.57254
5716.80109,0.57283
5714.87235,0.57259
5712.94360,0.57263
5711.01485,0.57279
5709.08611,0.57248
5707.15736,0.57172
5705.22862,0.57113
5703.29987,0.57146
5701.37113,0.57250
5699.44238,0.57331
5697.51364,0.57333
5695.58489,0.57235
5693.65615,0.57044
5691.72740,0.56884
5689.79866,0.56841
5687.86991,0.56799
5685.94117,0.56701
5684.01242,0.56689
5682.08368,0.56799
5680.15493,0.56867
5678.22618,0.56852
5676.29744,0.56896
5674.36869,0.56983
5672.43995,0.56957
5670.51120,0.56857
5668.58246,0.56811
5666.65371,0.56814
5664.72497,0.56827
5662.79622,0.56776
5660.86748,0.56642
5658.93873,0.56587
5657.00999,0.56694
5655.08124,0.56803
5653.15250,0.56774
5651.22375,0.56651
5649.29500,0.56568
5647.36626,0.56629
5645.43751,0.56793
5643.50877,0.56885
5641.58002,0.56870
5639.65128,0.56846
5637.72253,0.56804
5635.79379,0.56723
5633.86504,0.56698
5631.93630,0.56773
5630.00755,0.56870
5628.07881,0.56881
5626.15006,0.56787
5624.22132,0.56731
5622.29257,0.56804
5620.36383,0.56867
5618.43508,0.56835
5616.50633,0.56834
5614.57759,0.56905
5612.64884,0.56953
5610.72010,0.56920
5608.79135,0.56844
5606.86261,0.56831
5604.93386,0.56866
5603.00512,0.56836
5601.07637,0.56767
5599.14763,0.56723
5597.21888,0.56706
5595.29014,0.56728
5593.36139,0.56745
5591.43265,0.56732
5589.50390,0.56779
5587.57516,0.56913
5585.64641,0.57003
5583.71766,0.56913
5581.78892,0.56713
5579.86017,0.56606
5577.93143,0.56615
5576.00268,0.56641
5574.07394,0.56704
5572.14519,0.56791
5570.21645,0.56812
5568.28770,0.56812
5566.35896,0.56843
5564.43021,0.56865
5562.50147,0.56898
5560.57272,0.56980
5558.64398,0.57037
5556.71523,0.57010
5554.78648,0.56980
5552.85774,0.57019
5550.92899,0.57080
5549.00025,0.57095
5547.07150,0.57086
5545.14276,0.57101
5543.21401,0.57135
5541.28527,0.57166
5539.35652,0.57214
5537.42778,0.57270
5535.49903,0.57279
5533.57029,0.57234
5531.64154,0.57199
5529.71280,0.57227
5527.78405,0.57269
5525.85531,0.57294
5523.92656,0.57336
5521.99781,0.57330
5520.06907,0.57239
5518.14032,0.57172
5516.21158,0.57198
5514.28283,0.57284
5512.35409,0.57340
5510.42534,0.57323
5508.49660,0.57299
5506.56785,0.57336
5504.63911,0.57457
5502.71036,0.57572
5500.78162,0.57526
5498.85287,0.57423
5496.92413,0.57423
5494.99538,0.57448
5493.06664,0.57442
5491.13789,0.57426
5489.20914,0.57363
5487.28040,0.57278
5485.35165,0.57281
5483.42291,0.57404
5481.49416,0.57526
5479.56542,0.57552
5477.63667,0.57530
5475.70793,0.57515
5473.77918,0.57508
5471.85044,0.57516
5469.92169,0.57533
5467.99295,0.57521
5466.06420,0.57523
5464.13546,0.57618
5462.20671,0.57755
5460.27796,0.57834
5458.34922,0.57849
5456.42047,0.57843
5454.49173,0.57842
5452.56298,0.57885
5450.63424,0.57965
5448.70549,0.58057
5446.77675,0.58179
5444.84800,0.58234
5442.91926,0.58176
5440.99051,0.58148
5439.06177,0.58201
5437.13302,0.58266
5435.20428,0.58299
5433.27553,0.58317
5431.34679,0.58340
5429.41804,0.58355
5427.48929,0.58427
5425.56055,0.58580
5423.63180,0.58666
5421.70306,0.58622
5419.77431,0.58565
5417.84557,0.58595
5415.91682,0.58714
5413.98808,0.58826
5412.05933,0.58849
5410.13059,0.58795
5408.20184,0.58733
5406.27310,0.58754
5404.34435,0.58878
5402.41561,0.58998
5400.48686,0.59006
5398.55811,0.58913
5396.62937,0.58820
5394.70062,0.58810
5392.77188,0.58850
5390.84313,0.58860
5388.91439,0.58865
5386.98564,0.58903
5385.05690,0.58927
5383.12815,0.58913
5381.19941,0.58817
5379.27066,0.58651
5377.34192,0.58608
5375.41317,0.58702
5373.48443,0.58704
5371.55568,0.58596
5369.62694,0.58519
5367.69819,0.58528
5365.76944,0.58585
5363.84070,0.58620
5361.91195,0.58639
5359.98321,0.58657
5358.05446,0.58643
5356.12572,0.58610
5354.19697,0.58577
5352.26823,0.58529
5350.33948,0.58476
5348.41074,0.58422
5346.48199,0.58350
5344.55325,0.58286
5342.62450,0.58253
5340.69576,0.58199
5338.76701,0.58107
5336.83827,0.58024
5334.90952,0.57944
5332.98077,0.57857
5331.05203,0.57767
5329.12328,0.57615
5327.19454,0.57426
5325.26579,0.57275
5323.33705,0.57150
5321.40830,0.57017
5319.47956,0.56833
5317.55081,0.56601
5315.62207,0.56382
5313.69332,0.56159
5311.76458,0.55958
5309.83583,0.55821
5307.90709,0.55644
5305.97834,0.55378
5304.04959,0.55096
5302.12085,0.54807
5300.19210,0.54476
5298.26336,0.54160
5296.33461,0.53921
5294.40587,0.53655
5292.47712,0.53290
5290.54838,0.52926
5288.61963,0.52595
5286.69089,0.52243
5284.76214,0.51864
5282.83340,0.51474
5280.90465,0.51078
5278.97591,0.50630
5277.04716,0.50110
5275.11842,0.49632
5273.18967,0.49276
5271.26092,0.48940
5269.33218,0.48475
5267.40343,0.47926
5265.47469,0.47457
5263.54594,0.47092
5261.61720,0.46702
5259.68845,0.46213
5257.75971,0.45722
5255.83096,0.45338
5253.90222,0.45028
5251.97347,0.44696
5250.04473,0.44314
5248.11598,0.43934
5246.18724,0.43640
5244.25849,0.43393
5242.32975,0.43068
5240.40100,0.42685
5238.47225,0.42363
5236.54351,0.42146
5234.61476,0.41994
5232.68602,0.41806
5230.75727,0.41563
5228.82853,0.41385
5226.89978,0.41294
5224.97104,0.41205
5223.04229,0.41099
5221.11355,0.40970
5219.18480,0.40789
5217.25606,0.40576
5215.32731,0.40418
5213.39857,0.40352
5211.46982,0.40309
5209.54107,0.40265
5207.61233,0.40258
5205.68358,0.40284
5203.75484,0.40310
5201.82609,0.40304
5199.89735,0.40258
5197.96860,0.40215
5196.03986,0.40236
5194.11111,0.40294
5192.18237,0.40288
5190.25362,0.40228
5188.32488,0.40212
5186.39613,0.40260
5184.46739,0.40361
5182.53864,0.40487
5180.60990,0.40571
5178.68115,0.40574
5176.75240,0.40543
5174.82366,0.40584
5172.89491,0.40742
5170.96617,0.40915
5169.03742,0.41014
5167.10868,0.41077
5165.17993,0.41149
5163.25119,0.41234
5161.32244,0.41341
5159.39370,0.41471
5157.46495,0.41592
5155.53621,0.41682
5153.60746,0.41760
5151.67872,0.41877
5149.74997,0.42052
5147.82123,0.42245
5145.89248,0.42399
5143.96373,0.42478
5142.03499,0.42530
5140.10624,0.42623
5138.17750,0.42757
5136.24875,0.42917
5134.32001,0.43050
5132.39126,0.43127
5130.46252,0.43253
5128.53377,0.43429
5126.60503,0.43536
5124.67628,0.43612
5122.74754,0.43729
5120.81879,0.43831
5118.89005,0.43910
5116.96130,0.44017
5115.03255,0.44127
5113.10381,0.44227
5111.17506,0.44368
5109.24632,0.44524
5107.31757,0.44634
5105.38883,0.44733
5103.46008,0.44815
5101.53134,0.44846
5099.60259,0.44893
5097.67385,0.45006
5095.74510,0.45168
5093.81636,0.45348
5091.88761,0.45519
5089.95887,0.45650
5088.03012,0.45746
5086.10138,0.45840
5084.17263,0.45912
5082.24388,0.45944
5080.31514,0.45991
5078.38639,0.46100
5076.45765,0.46238
5074.52890,0.46351
5072.60016,0.46452
5070.67141,0.46562
5068.74267,0.46662
5066.81392,0.46742
5064.88518,0.46809
5062.95643,0.46890
5061.02769,0.47011
5059.09894,0.47166
5057.17020,0.47308
5055.24145,0.47390
5053.31270,0.47445
5051.38396,0.47535
5049.45521,0.47645
5047.52647,0.47737
5045.59772,0.47811
5043.66898,0.47865
5041.74023,0.47925
5039.81149,0.48037
5037.88274,0.48139
5035.95400,0.48173
5034.02525,0.48228
5032.09651,0.48374
5030.16776,0.48527
5028.23902,0.48597
5026.31027,0.48642
5024.38153,0.48760
5022.45278,0.48874
5020.52403,0.48873
5018.59529,0.48844
5016.66654,0.48897
5014.73780,0.48951
5012.80905,0.48948
5010.88031,0.48976
5008.95156,0.49072
5007.02282,0.49192
5005.09407,0.49287
5003.16533,0.49297
5001.23658,0.49234
4999.30784,0.49175
4997.37909,0.49150
4995.45035,0.49154
4993.52160,0.49184
4991.59286,0.49213
4989.66411,0.49195
4987.73536,0.49148
4985.80662,0.49143
4983.87787,0.49151
4981.94913,0.49087
4980.02038,0.48985
4978.09164,0.48917
4976.16289,0.48855
4974.23415,0.48787
4972.30540,0.48741
4970.37666,0.48704
4968.44791,0.48684
4966.51917,0.48676
4964.59042,0.48615
4962.66168,0.48492
4960.73293,0.48369
4958.80418,0.48256
4956.87544,0.48126
4954.94669,0.47972
4953.01795,0.47817
4951.08920,0.47700
4949.16046,0.47580
4947.23171,0.47402
4945.30297,0.47203
4943.37422,0.47043
4941.44548,0.46936
4939.51673,0.46840
4937.58799,0.46712
4935.65924,0.46548
4933.73050,0.46353
4931.80175,0.46162
4929.87301,0.46013
4927.94426,0.45867
4926.01551,0.45703
4924.08677,0.45544
4922.15802,0.45379
4920.22928,0.45196
4918.30053,0.45013
4916.37179,0.44820
4914.44304,0.44602
4912.51430,0.44386
4910.58555,0.44185
4908.65681,0.43998
4906.72806,0.43857
4904.79932,0.43730
4902.87057,0.43541
4900.94183,0.43307
4899.01308,0.43113
4897.08434,0.43008
4895.15559,0.42944
4893.22684,0.42809
4891.29810,0.42555
4889.36935,0.42275
4887.44061,0.42080
4885.51186,0.41938
4883.58312,0.41737
4881.65437,0.41509
4879.72563,0.41360
4877.79688,0.41264
4875.86814,0.41139
4873.93939,0.40972
4872.01065,0.40800
4870.08190,0.40649
4868.15316,0.40485
4866.22441,0.40288
4864.29566,0.40120
4862.36692,0.40010
4860.43817,0.39899
4858.50943,0.39760
4856.58068,0.39645
4854.65194,0.39585
4852.72319,0.39522
4850.79445,0.39397
4848.86570,0.39219
4846.93696,0.39041
4845.00821,0.38910
4843.07947,0.38836
4841.15072,0.38780
4839.22198,0.38666
4837.29323,0.38469
4835.36449,0.38290
4833.43574,0.38205
4831.50699,0.38149
4829.57825,0.38044
4827.64950,0.37894
4825.72076,0.37719
4823.79201,0.37554
4821.86327,0.37455
4819.93452,0.37383
4818.00578,0.37280
4816.07703,0.37206
4814.14829,0.37190
4812.21954,0.37140
4810.29080,0.37011
4808.36205,0.36853
4806.43331,0.36734
4804.50456,0.36673
4802.57582,0.36651
4800.64707,0.36638
4798.71832,0.36592
4796.78958,0.36521
4794.86083,0.36458
4792.93209,0.36385
4791.00334,0.36287
4789.07460,0.36193
4787.14585,0.36131
4785.21711,0.36091
4783.28836,0.36048
4781.35962,0.35994
4779.43087,0.35926
4777.50213,0.35859
4775.57338,0.35836
4773.64464,0.35859
4771.71589,0.35869
4769.78714,0.35834
4767.85840,0.35746
4765.92965,0.35621
4764.00091,0.35512
4762.07216,0.35464
4760.14342,0.35475
4758.21467,0.35508
4756.28593,0.35525
4754.35718,0.35503
4752.42844,0.35443
4750.49969,0.35385
4748.57095,0.35360
4746.64220,0.35363
4744.71346,0.35391
4742.78471,0.35433
4740.85597,0.35450
4738.92722,0.35442
4736.99847,0.35439
4735.06973,0.35447
4733.14098,0.35474
4731.21224,0.35509
4729.28349,0.35515
4727.35475,0.35485
4725.42600,0.35473
4723.49726,0.35497
4721.56851,0.35537
4719.63977,0.35603
4717.71102,0.35661
4715.78228,0.35665
4713.85353,0.35659
4711.92479,0.35669
4709.99604,0.35677
4708.06729,0.35728
4706.13855,0.35831
4704.20980,0.35902
4702.28106,0.35916
4700.35231,0.35906
4698.42357,0.35903
4696.49482,0.35944
4694.56608,0.36002
4692.63733,0.36036
4690.70859,0.36066
4688.77984,0.36104
4686.85110,0.36151
4684.92235,0.36231
4682.99361,0.36332
4681.06486,0.36420
4679.13612,0.36497
4677.20737,0.36577
4675.27862,0.36651
4673.34988,0.36720
4671.42113,0.36797
4669.49239,0.36881
4667.56364,0.36955
4665.63490,0.37014
4663.70615,0.37088
4661.77741,0.37157
4659.84866,0.37178
4657.91992,0.37208
4655.99117,0.37305
4654.06243,0.37409
4652.13368,0.37478
4650.20494,0.37546
4648.27619,0.37625
4646.34745,0.37711
4644.41870,0.37811
4642.48995,0.37904
4640.56121,0.37966
4638.63246,0.38014
4636.70372,0.38075
4634.77497,0.38154
4632.84623,0.38250
4630.91748,0.38363
4628.98874,0.38470
4627.05999,0.38557
4625.13125,0.38637
4623.20250,0.38715
4621.27376,0.38773
4619.34501,0.38805
4617.41627,0.38852
4615.48752,0.38947
4613.55877,0.39049
4611.63003,0.39131
4609.70128,0.39231
4607.77254,0.39331
4605.84379,0.39385
4603.91505,0.39436
4601.98630,0.39531
4600.05756,0.39638
4598.12881,0.39712
4596.20007,0.39775
4594.27132,0.39872
4592.34258,0.39981
4590.41383,0.40052
4588.48509,0.40068
4586.55634,0.40070
4584.62760,0.40125
4582.69885,0.40216
4580.77010,0.40285
4578.84136,0.40335
4576.91261,0.40402
4574.98387,0.40492
4573.05512,0.40571
4571.12638,0.40626
4569.19763,0.40678
4567.26889,0.40727
4565.34014,0.40764
4563.41140,0.40793
4561.48265,0.40822
4559.55391,0.40877
4557.62516,0.40955
4555.69642,0.41019
4553.76767,0.41067
4551.83893,0.41114
4549.91018,0.41139
4547.98143,0.41129
4546.05269,0.41125
4544.12394,0.41172
4542.19520,0.41258
4540.26645,0.41336
4538.33771,0.41374
4536.40896,0.41388
4534.48022,0.41407
4532.55147,0.41437
4530.62273,0.41460
4528.69398,0.41475
4526.76524,0.41499
4524.83649,0.41517
4522.90775,0.41528
4520.97900,0.41547
4519.05025,0.41551
4517.12151,0.41537
4515.19276,0.41547
4513.26402,0.41578
4511.33527,0.41582
4509.40653,0.41551
4507.47778,0.41503
4505.54904,0.41437
4503.62029,0.41372
4501.69155,0.41321
4499.76280,0.41249
4497.83406,0.41140
4495.90531,0.41022
4493.97657,0.40911
4492.04782,0.40781
4490.11908,0.40612
4488.19033,0.40424
4486.26158,0.40252
4484.33284,0.40093
4482.40409,0.39927
4480.47535,0.39738
4478.54660,0.39532
4476.61786,0.39333
4474.68911,0.39147
4472.76037,0.38945
4470.83162,0.38692
4468.90288,0.38409
4466.97413,0.38155
4465.04539,0.37926
4463.11664,0.37695
4461.18790,0.37463
4459.25915,0.37211
4457.33041,0.36909
4455.40166,0.36590
4453.47291,0.36327
4451.54417,0.36114
4449.61542,0.35904
4447.68668,0.35679
4445.75793,0.35446
4443.82919,0.35204
4441.90044,0.34952
4439.97170,0.34702
4438.04295,0.34464
4436.11421,0.34230
4434.18546,0.33979
4432.25672,0.33699
4430.32797,0.33437
4428.39923,0.33224
4426.47048,0.33026
4424.54173,0.32818
4422.61299,0.32599
4420.68424,0.32382
4418.75550,0.32178
4416.82675,0.31986
4414.89801,0.31813
4412.96926,0.31674
4411.04052,0.31556
4409.11177,0.31450
4407.18303,0.31382
4405.25428,0.31332
4403.32554,0.31242
4401.39679,0.31157
4399.46805,0.31162
4397.53930,0.31222
4395.61056,0.31269
4393.68181,0.31333
4391.75306,0.31431
4389.82432,0.31517
4387.89557,0.31572
4385.96683,0.31649
4384.03808,0.31778
4382.10934,0.31908
4380.18059,0.32019
4378.25185,0.32150
4376.32310,0.32297
4374.39436,0.32405
4372.46561,0.32486
4370.53687,0.32594
4368.60812,0.32711
4366.67938,0.32818
4364.75063,0.32928
4362.82189,0.33014
4360.89314,0.33047
4358.96439,0.33051
4357.03565,0.33057
4355.10690,0.33071
4353.17816,0.33048
4351.24941,0.32962
4349.32067,0.32885
4347.39192,0.32854
4345.46318,0.32823
4343.53443,0.32767
4341.60569,0.32694
4339.67694,0.32609
4337.74820,0.32514
4335.81945,0.32422
4333.89071,0.32331
4331.96196,0.32220
4330.03321,0.32106
4328.10447,0.31996
4326.17572,0.31867
4324.24698,0.31754
4322.31823,0.31703
4320.38949,0.31676
4318.46074,0.31638
4316.53200,0.31637
4314.60325,0.31679
4312.67451,0.31704
4310.74576,0.31688
4308.81702,0.31626
4306.88827,0.31528
4304.95953,0.31437
4303.03078,0.31369
4301.10204,0.31285
4299.17329,0.31186
4297.24454,0.31130
4295.31580,0.31115
4293.38705,0.31071
4291.45831,0.30974
4289.52956,0.30880
4287.60082,0.30820
4285.67207,0.30774
4283.74333,0.30738
4281.81458,0.30718
4279.88584,0.30715
4277.95709,0.30729
4276.02835,0.30737
4274.09960,0.30732
4272.17086,0.30748
4270.24211,0.30787
4268.31336,0.30821
4266.38462,0.30837
4264.45587,0.30849
4262.52713,0.30887
4260.59838,0.30939
4258.66964,0.30955
4256.74089,0.30940
4254.81215,0.30942
4252.88340,0.30950
4250.95466,0.30936
4249.02591,0.30938
4247.09717,0.30995
4245.16842,0.31063
4243.23968,0.31096
4241.31093,0.31115
4239.38219,0.31149
4237.45344,0.31188
4235.52469,0.31234
4233.59595,0.31278
4231.66720,0.31302
4229.73846,0.31340
4227.80971,0.31396
4225.88097,0.31427
4223.95222,0.31414
4222.02348,0.31387
4220.09473,0.31379
4218.16599,0.31380
4216.23724,0.31370
4214.30850,0.31366
4212.37975,0.31386
4210.45101,0.31419
4208.52226,0.31447
4206.59352,0.31465
4204.66477,0.31464
4202.73602,0.31437
4200.80728,0.31412
4198.87853,0.31419
4196.94979,0.31435
4195.02104,0.31434
4193.09230,0.31428
4191.16355,0.31428
4189.23481,0.31435
4187.30606,0.31457
4185.37732,0.31486
4183.44857,0.31497
4181.51983,0.31494
4179.59108,0.31516
4177.66234,0.31567
4175.73359,0.31611
4173.80484,0.31656
4171.87610,0.31724
4169.94735,0.31801
4168.01861,0.31871
4166.08986,0.31928
4164.16112,0.31971
4162.23237,0.32021
4160.30363,0.32073
4158.37488,0.32076
4156.44614,0.32024
4154.51739,0.31967
4152.58865,0.31918
4150.65990,0.31865
4148.73116,0.31805
4146.80241,0.31733
4144.87367,0.31659
4142.94492,0.31604
4141.01617,0.31570
4139.08743,0.31516
4137.15868,0.31419
4135.22994,0.31313
4133.30119,0.31234
4131.37245,0.31167
4129.44370,0.31097
4127.51496,0.31019
4125.58621,0.30915
4123.65747,0.30790
4121.72872,0.30673
4119.79998,0.30557
4117.87123,0.30428
4115.94249,0.30291
4114.01374,0.30152
4112.08500,0.30020
4110.15625,0.29895
4108.22750,0.29762
4106.29876,0.29613
4104.37001,0.29454
4102.44127,0.29316
4100.51252,0.29191
4098.58378,0.29021
4096.65503,0.28829
4094.72629,0.28680
4092.79754,0.28555
4090.86880,0.28413
4088.94005,0.28259
4087.01131,0.28098
4085.08256,0.27936
4083.15382,0.27794
4081.22507,0.27663
4079.29632,0.27514
4077.36758,0.27370
4075.43883,0.27244
4073.51009,0.27089
4071.58134,0.26905
4069.65260,0.26730
4067.72385,0.26562
4065.79511,0.26388
4063.86636,0.26229
4061.93762,0.26091
4060.00887,0.25947
4058.08013,0.25772
4056.15138,0.25572
4054.22264,0.25392
4052.29389,0.25253
4050.36515,0.25122
4048.43640,0.24974
4046.50765,0.24820
4044.57891,0.24673
4042.65016,0.24542
4040.72142,0.24440
4038.79267,0.24362
4036.86393,0.24277
4034.93518,0.24166
4033.00644,0.24046
4031.07769,0.23947
4029.14895,0.23867
4027.22020,0.23782
4025.29146,0.23703
4023.36271,0.23664
4021.43397,0.23656
4019.50522,0.23648
4017.57648,0.23650
4015.64773,0.23680
4013.71898,0.23711
4011.79024,0.23710
4009.86149,0.23698
4007.93275,0.23713
4006.00400,0.23762
4004.07526,0.23828
4002.14651,0.23889
4000.21777,0.23933
3998.28902,0.23971
3996.36028,0.24017
3994.43153,0.24055
3992.50279,0.24072
3990.57404,0.24112
3988.64530,0.24195
3986.71655,0.24275
3984.78780,0.24316
3982.85906,0.24335
3980.93031,0.24348
3979.00157,0.24365
3977.07282,0.24404
3975.14408,0.24465
3973.21533,0.24522
3971.28659,0.24568
3969.35784,0.24633
3967.42910,0.24721
3965.50035,0.24805
3963.57161,0.24868
3961.64286,0.24911
3959.71412,0.24962
3957.78537,0.25044
3955.85663,0.25131
3953.92788,0.25199
3951.99913,0.25268
3950.07039,0.25350
3948.14164,0.25431
3946.21290,0.25513
3944.28415,0.25603
3942.35541,0.25676
3940.42666,0.25734
3938.49792,0.25816
3936.56917,0.25915
3934.64043,0.26003
3932.71168,0.26089
3930.78294,0.26174
3928.85419,0.26250
3926.92545,0.26332
3924.99670,0.26430
3923.06795,0.26522
3921.13921,0.26578
3919.21046,0.26617
3917.28172,0.26681
3915.35297,0.26774
3913.42423,0.26857
3911.49548,0.26902
3909.56674,0.26936
3907.63799,0.26993
3905.70925,0.27071
3903.78050,0.27143
3901.85176,0.27207
3899.92301,0.27276
3897.99427,0.27341
3896.06552,0.27390
3894.13678,0.27450
3892.20803,0.27544
3890.27928,0.27644
3888.35054,0.27690
3886.42179,0.27693
3884.49305,0.27723
3882.56430,0.27792
3880.63556,0.27859
3878.70681,0.27895
3876.77807,0.27911
3874.84932,0.27941
3872.92058,0.28004
3870.99183,0.28089
3869.06309,0.28186
3867.13434,0.28298
3865.20560,0.28440
3863.27685,0.28577
3861.34811,0.28667
3859.41936,0.28747
3857.49061,0.28855
3855.56187,0.28982
3853.63312,0.29097
3851.70438,0.29175
3849.77563,0.29236
3847.84689,0.29298
3845.91814,0.29348
3843.98940,0.29398
3842.06065,0.29479
3840.13191,0.29564
3838.20316,0.29626
3836.27442,0.29675
3834.34567,0.29711
3832.41693,0.29737
3830.48818,0.29760
3828.55943,0.29773
3826.63069,0.29782
3824.70194,0.29795
3822.77320,0.29808
3820.84445,0.29814
3818.91571,0.29804
3816.98696,0.29792
3815.05822,0.29788
3813.12947,0.29771
3811.20073,0.29747
3809.27198,0.29739
3807.34324,0.29758
3805.41449,0.29787
3803.48575,0.29795
3801.55700,0.29774
3799.62826,0.29753
3797.69951,0.29746
3795.77076,0.29730
3793.84202,0.29695
3791.91327,0.29667
3789.98453,0.29650
3788.05578,0.29637
3786.12704,0.29619
3784.19829,0.29591
3782.26955,0.29541
3780.34080,0.29478
3778.41206,0.29430
3776.48331,0.29404
3774.55457,0.29370
3772.62582,0.29307
3770.69708,0.29244
3768.76833,0.29202
3766.83959,0.29149
3764.91084,0.29066
3762.98209,0.28975
3761.05335,0.28905
3759.12460,0.28854
3757.19586,0.28788
3755.26711,0.28694
3753.33837,0.28596
3751.40962,0.28501
3749.48088,0.28407
3747.55213,0.28338
3745.62339,0.28273
3743.69464,0.28164
3741.76590,0.28028
3739.83715,0.27907
3737.90841,0.27801
3735.97966,0.27700
3734.05091,0.27598
3732.12217,0.27470
3730.19342,0.27302
3728.26468,0.27110
3726.33593,0.26921
3724.40719,0.26758
3722.47844,0.26607
3720.54970,0.26433
3718.62095,0.26226
3716.69221,0.26012
3714.76346,0.25814
3712.83472,0.25603
3710.90597,0.25354
3708.97723,0.25082
3707.04848,0.24790
3705.11974,0.24484
3703.19099,0.24166
3701.26224,0.23830
3699.33350,0.23489
3697.40475,0.23145
3695.47601,0.22795
3693.54726,0.22439
3691.61852,0.22069
3689.68977,0.21664
3687.76103,0.21205
3685.83228,0.20729
3683.90354,0.20257
3681.97479,0.19774
3680.04605,0.19290
3678.11730,0.18804
3676.18856,0.18273
3674.25981,0.17727
3672.33107,0.17242
3670.40232,0.16752
3668.47357,0.16224
3666.54483,0.15749
3664.61608,0.15314
3662.68734,0.14866
3660.75859,0.14422
3658.82985,0.13999
3656.90110,0.13564
3654.97236,0.13152
3653.04361,0.12830
3651.11487,0.12533
3649.18612,0.12207
3647.25738,0.11912
3645.32863,0.11675
3643.39989,0.11424
3641.47114,0.11122
3639.54239,0.10834
3637.61365,0.10621
3635.68490,0.10458
3633.75616,0.10296
3631.82741,0.10114
3629.89867,0.09893
3627.96992,0.09647
3626.04118,0.09456
3624.11243,0.09336
3622.18369,0.09216
3620.25494,0.09045
3618.32620,0.08864
3616.39745,0.08730
3614.46871,0.08618
3612.53996,0.08506
3610.61122,0.08399
3608.68247,0.08280
3606.75372,0.08145
3604.82498,0.08016
3602.89623,0.07905
3600.96749,0.07793
3599.03874,0.07679
3597.11000,0.07577
3595.18125,0.07470
3593.25251,0.07341
3591.32376,0.07224
3589.39502,0.07136
3587.46627,0.07065
3585.53753,0.07007
3583.60878,0.06933
3581.68004,0.06834
3579.75129,0.06740
3577.82254,0.06668
3575.89380,0.06602
3573.96505,0.06536
3572.03631,0.06483
3570.10756,0.06421
3568.17882,0.06333
3566.25007,0.06250
3564.32133,0.06180
3562.39258,0.06102
3560.46384,0.06034
3558.53509,0.05997
3556.60635,0.05968
3554.67760,0.05934
3552.74886,0.05893
3550.82011,0.05839
3548.89137,0.05790
3546.96262,0.05763
3545.03387,0.05744
3543.10513,0.05690
3541.17638,0.05594
3539.24764,0.05519
3537.31889,0.05497
3535.39015,0.05489
3533.46140,0.05475
3531.53266,0.05456
3529.60391,0.05412
3527.67517,0.05366
3525.74642,0.05363
3523.81768,0.05374
3521.88893,0.05349
3519.96019,0.05306
3518.03144,0.05269
3516.10270,0.05234
3514.17395,0.05207
3512.24520,0.05181
3510.31646,0.05146
3508.38771,0.05121
3506.45897,0.05114
3504.53022,0.05109
3502.60148,0.05075
3500.67273,0.05034
3498.74399,0.05031
3496.81524,0.05030
3494.88650,0.04977
3492.95775,0.04907
3491.02901,0.04893
3489.10026,0.04916
3487.17152,0.04895
3485.24277,0.04839
3483.31402,0.04815
3481.38528,0.04810
3479.45653,0.04780
3477.52779,0.04749
3475.59904,0.04740
3473.67030,0.04731
3471.74155,0.04710
3469.81281,0.04703
3467.88406,0.04726
3465.95532,0.04738
3464.02657,0.04716
3462.09783,0.04690
3460.16908,0.04670
3458.24034,0.04658
3456.31159,0.04659
3454.38285,0.04671
3452.45410,0.04686
3450.52535,0.04673
3448.59661,0.04635
3446.66786,0.04620
3444.73912,0.04629
3442.81037,0.04628
3440.88163,0.04623
3438.95288,0.04631
3437.02414,0.04627
3435.09539,0.04602
3433.16665,0.04571
3431.23790,0.04542
3429.30916,0.04534
3427.38041,0.04559
3425.45167,0.04611
3423.52292,0.04666
3421.59418,0.04670
3419.66543,0.04615
3417.73668,0.04580
3415.80794,0.04601
3413.87919,0.04631
3411.95045,0.04624
3410.02170,0.04598
3408.09296,0.04599
3406.16421,0.04624
3404.23547,0.04631
3402.30672,0.04619
3400.37798,0.04616
3398.44923,0.04638
3396.52049,0.04666
3394.59174,0.04691
3392.66300,0.04707
3390.73425,0.04685
3388.80550,0.04653
3386.87676,0.04668
3384.94801,0.04699
3383.01927,0.04711
3381.09052,0.04723
3379.16178,0.04721
3377.23303,0.04703
3375.30429,0.04712
3373.37554,0.04742
3371.44680,0.04738
3369.51805,0.04693
3367.58931,0.04645
3365.66056,0.04623
3363.73182,0.04652
3361.80307,0.04717
3359.87433,0.04759
3357.94558,0.04760
3356.01683,0.04749
3354.08809,0.04735
3352.15934,0.04723
3350.23060,0.04736
3348.30185,0.04783
3346.37311,0.04832
3344.44436,0.04847
3342.51562,0.04837
3340.58687,0.04837
3338.65813,0.04868
3336.72938,0.04916
3334.80064,0.04946
3332.87189,0.04963
3330.94315,0.05003
3329.01440,0.05068
3327.08566,0.05127
3325.15691,0.05179
3323.22816,0.05234
3321.29942,0.05268
3319.37067,0.05256
3317.44193,0.05233
3315.51318,0.05250
3313.58444,0.05283
3311.65569,0.05273
3309.72695,0.05242
3307.79820,0.05247
3305.86946,0.05293
3303.94071,0.05348
3302.01197,0.05359
3300.08322,0.05320
3298.15448,0.05306
3296.22573,0.05337
3294.29698,0.05370
3292.36824,0.05390
3290.43949,0.05423
3288.51075,0.05466
3286.58200,0.05494
3284.65326,0.05518
3282.72451,0.05533
3280.79577,0.05529
3278.86702,0.05535
3276.93828,0.05576
3275.00953,0.05644
3273.08079,0.05707
3271.15204,0.05743
3269.22330,0.05767
3267.29455,0.05780
3265.36581,0.05784
3263.43706,0.05814
3261.50831,0.05874
3259.57957,0.05934
3257.65082,0.06000
3255.72208,0.06085
3253.79333,0.06150
3251.86459,0.06176
3249.93584,0.06207
3248.00710,0.06258
3246.07835,0.06276
3244.14961,0.06263
3242.22086,0.06295
3240.29212,0.06365
3238.36337,0.06375
3236.43463,0.06327
3234.50588,0.06308
3232.57713,0.06347
3230.64839,0.06428
3228.71964,0.06487
3226.79090,0.06475
3224.86215,0.06444
3222.93341,0.06478
3221.00466,0.06592
3219.07592,0.06712
3217.14717,0.06763
3215.21843,0.06761
3213.28968,0.06755
3211.36094,0.06757
3209.43219,0.06789
3207.50345,0.06853
3205.57470,0.06901
3203.64596,0.06926
3201.71721,0.06973
3199.78846,0.07038
3197.85972,0.07087
3195.93097,0.07110
3194.00223,0.07131
3192.07348,0.07183
3190.14474,0.07252
3188.21599,0.07291
3186.28725,0.07324
3184.35850,0.07385
3182.42976,0.07441
3180.50101,0.07465
3178.57227,0.07461
3176.64352,0.07463
3174.71478,0.07512
3172.78603,0.07585
3170.85729,0.07645
3168.92854,0.07704
3166.99979,0.07747
3165.07105,0.07755
3163.14230,0.07768
3161.21356,0.07798
3159.28481,0.07837
3157.35607,0.07901
3155.42732,0.07971
3153.49858,0.08019
3151.56983,0.08052
3149.64109,0.08079
3147.71234,0.08096
3145.78360,0.08129
3143.85485,0.08198
3141.92611,0.08258
3139.99736,0.08274
3138.06861,0.08285
3136.13987,0.08330
3134.21112,0.08397
3132.28238,0.08436
3130.35363,0.08445
3128.42489,0.08459
3126.49614,0.08486
3124.56740,0.08524
3122.63865,0.08585
3120.70991,0.08655
3118.78116,0.08698
3116.85242,0.08725
3114.92367,0.08762
3112.99493,0.08791
3111.06618,0.08822
3109.13744,0.08872
3107.20869,0.08911
3105.27994,0.08946
3103.35120,0.09009
3101.42245,0.09063
3099.49371,0.09089
3097.56496,0.09122
3095.63622,0.09167
3093.70747,0.09203
3091.77873,0.09247
3089.84998,0.09297
3087.92124,0.09329
3085.99249,0.09362
3084.06375,0.09414
3082.13500,0.09470
3080.20626,0.09511
3078.27751,0.09527
3076.34877,0.09546
3074.42002,0.09573
3072.49127,0.09590
3070.56253,0.09619
3068.63378,0.09687
3066.70504,0.09782
3064.77629,0.09864
3062.84755,0.09894
3060.91880,0.09888
3058.99006,0.09914
3057.06131,0.09974
3055.13257,0.10010
3053.20382,0.10021
3051.27508,0.10052
3049.34633,0.10100
3047.41759,0.10131
3045.48884,0.10141
3043.56009,0.10147
3041.63135,0.10157
3039.70260,0.10177
3037.77386,0.10195
3035.84511,0.10199
3033.91637,0.10201
3031.98762,0.10199
3030.05888,0.10186
3028.13013,0.10174
3026.20139,0.10161
3024.27264,0.10136
3022.34390,0.10102
3020.41515,0.10066
3018.48641,0.10021
3016.55766,0.09959
3014.62892,0.09886
3012.70017,0.09817
3010.77142,0.09759
3008.84268,0.09706
3006.91393,0.09645
3004.98519,0.09577
3003.05644,0.09524
3001.12770,0.09508
2999.19895,0.09496
2997.27021,0.09451
2995.34146,0.09398
2993.41272,0.09358
2991.48397,0.09293
2989.55523,0.09183
2987.62648,0.09064
2985.69774,0.08964
2983.76899,0.08863
2981.84025,0.08737
2979.91150,0.08591
2977.98275,0.08435
2976.05401,0.08272
2974.12526,0.08110
2972.19652,0.07955
2970.26777,0.07803
2968.33903,0.07672
2966.41028,0.07593
2964.48154,0.07548
2962.55279,0.07506
2960.62405,0.07461
2958.69530,0.07406
2956.76656,0.07351
2954.83781,0.07296
2952.90907,0.07227
2950.98032,0.07154
2949.05157,0.07091
2947.12283,0.07033
2945.19408,0.06982
2943.26534,0.06939
2941.33659,0.06907
2939.40785,0.06885
2937.47910,0.06872
2935.55036,0.06886
2933.62161,0.06929
2931.69287,0.06966
2929.76412,0.06971
2927.83538,0.06970
2925.90663,0.06987
2923.97789,0.06985
2922.04914,0.06943
2920.12040,0.06895
2918.19165,0.06855
2916.26290,0.06807
2914.33416,0.06769
2912.40541,0.06768
2910.47667,0.06794
2908.54792,0.06817
2906.61918,0.06824
2904.69043,0.06822
2902.76169,0.06831
2900.83294,0.06856
2898.90420,0.06887
2896.97545,0.06916
2895.04671,0.06943
2893.11796,0.06973
2891.18922,0.07010
2889.26047,0.07050
2887.33172,0.07089
2885.40298,0.07126
2883.47423,0.07166
2881.54549,0.07209
2879.61674,0.07249
2877.68800,0.07280
2875.75925,0.07292
2873.83051,0.07287
2871.90176,0.07295
2869.97302,0.07327
2868.04427,0.07362
2866.11553,0.07407
2864.18678,0.07469
2862.25804,0.07509
2860.32929,0.07515
2858.40055,0.07528
2856.47180,0.07561
2854.54305,0.07585
2852.61431,0.07596
2850.68556,0.07618
2848.75682,0.07685
2846.82807,0.07802
2844.89933,0.07935
2842.97058,0.08058
2841.04184,0.08178
2839.11309,0.08319
2837.18435,0.08485
2835.25560,0.08654
2833.32686,0.08824
2831.39811,0.08993
2829.46937,0.09151
2827.54062,0.09314
2825.61188,0.09492
2823.68313,0.09651
2821.75438,0.09777
2819.82564,0.09900
2817.89689,0.10032
2815.96815,0.10158
2814.03940,0.10270
2812.11066,0.10373
2810.18191,0.10471
2808.25317,0.10573
2806.32442,0.10691
2804.39568,0.10798
2802.46693,0.10863
2800.53819,0.10922
2798.60944,0.10997
2796.68070,0.11057
2794.75195,0.11102
2792.82320,0.11157
2790.89446,0.11216
2788.96571,0.11263
2787.03697,0.11303
2785.10822,0.11329
2783.17948,0.11332
2781.25073,0.11343
2779.32199,0.11385
2777.39324,0.11436
2775.46450,0.11465
2773.53575,0.11478
2771.60701,0.11511
2769.67826,0.11558
2767.74952,0.11581
2765.82077,0.11576
2763.89203,0.11566
2761.96328,0.11580
2760.03453,0.11615
2758.10579,0.11634
2756.17704,0.11631
2754.24830,0.11626
2752.31955,0.11628
2750.39081,0.11634
2748.46206,0.11644
2746.53332,0.11650
2744.60457,0.11647
2742.67583,0.11640
2740.74708,0.11645
2738.81834,0.11652
2736.88959,0.11645
2734.96085,0.11645
2733.03210,0.11673
2731.10336,0.11708
2729.17461,0.11731
2727.24586,0.11760
2725.31712,0.11803
2723.38837,0.11846
2721.45963,0.11880
2719.53088,0.11909
2717.60214,0.11939
2715.67339,0.11967
2713.74465,0.12000
2711.81590,0.12060
2709.88716,0.12134
2707.95841,0.12197
2706.02967,0.12251
2704.10092,0.12315
2702.17218,0.12383
2700.24343,0.12440
2698.31468,0.12488
2696.38594,0.12541
2694.45719,0.12607
2692.52845,0.12669
2690.59970,0.12718
2688.67096,0.12774
2686.74221,0.12840
2684.81347,0.12902
2682.88472,0.12961
2680.95598,0.13008
2679.02723,0.13041
2677.09849,0.13079
2675.16974,0.13137
2673.24100,0.13200
2671.31225,0.13225
2669.38351,0.13211
2667.45476,0.13203
2665.52601,0.13211
2663.59727,0.13227
2661.66852,0.13251
2659.73978,0.13275
2657.81103,0.13307
2655.88229,0.13346
2653.95354,0.13369
2652.02480,0.13377
2650.09605,0.13392
2648.16731,0.13419
2646.23856,0.13468
2644.30982,0.13538
2642.38107,0.13598
2640.45233,0.13630
2638.52358,0.13651
2636.59484,0.13683
2634.66609,0.13731
2632.73734,0.13779
2630.80860,0.13816
2628.87985,0.13856
2626.95111,0.13912
2625.02236,0.13972
2623.09362,0.14021
2621.16487,0.14057
2619.23613,0.14085
2617.30738,0.14119
2615.37864,0.14154
2613.44989,0.14175
2611.52115,0.14191
2609.59240,0.14229
2607.66366,0.14278
2605.73491,0.14308
2603.80616,0.14316
2601.87742,0.14333
2599.94867,0.14374
2598.01993,0.14412
2596.09118,0.14435
2594.16244,0.14462
2592.23369,0.14492
2590.30495,0.14520
2588.37620,0.14547
2586.44746,0.14565
2584.51871,0.14573
2582.58997,0.14598
2580.66122,0.14634
2578.73248,0.14650
2576.80373,0.14652
2574.87499,0.14657
2572.94624,0.14666
2571.01749,0.14673
2569.08875,0.14671
2567.16000,0.14656
2565.23126,0.14644
2563.30251,0.14660
2561.37377,0.14684
2559.44502,0.14695
2557.51628,0.14710
2555.58753,0.14732
2553.65879,0.14741
2551.73004,0.14738
2549.80130,0.14732
2547.87255,0.14728
2545.94381,0.14731
2544.01506,0.14732
2542.08631,0.14722
2540.15757,0.14731
2538.22882,0.14774
2536.30008,0.14820
2534.37133,0.14856
2532.44259,0.14884
2530.51384,0.14900
2528.58510,0.14914
2526.65635,0.14945
2524.72761,0.14991
2522.79886,0.15040
2520.87012,0.15080
2518.94137,0.15094
2517.01263,0.15087
2515.08388,0.15109
2513.15514,0.15177
2511.22639,0.15242
2509.29764,0.15293
2507.36890,0.15347
2505.44015,0.15408
2503.51141,0.15478
2501.58266,0.15556
2499.65392,0.15633
2497.72517,0.15708
2495.79643,0.15779
2493.86768,0.15841
2491.93894,0.15891
2490.01019,0.15940
2488.08145,0.15992
2486.15270,0.16032
2484.22396,0.16072
2482.29521,0.16134
2480.36647,0.16205
2478.43772,0.16265
2476.50897,0.16300
2474.58023,0.16320
2472.65148,0.16356
2470.72274,0.16415
2468.79399,0.16466
2466.86525,0.16493
2464.93650,0.16514
2463.00776,0.16541
2461.07901,0.16557
2459.15027,0.16567
2457.22152,0.16600
2455.29278,0.16657
2453.36403,0.16705
2451.43529,0.16741
2449.50654,0.16790
2447.57779,0.16852
2445.64905,0.16910
2443.72030,0.16962
2441.79156,0.17017
2439.86281,0.17078
2437.93407,0.17142
2436.00532,0.17203
2434.07658,0.17258
2432.14783,0.17307
2430.21909,0.17363
2428.29034,0.17437
2426.36160,0.17509
2424.43285,0.17566
2422.50411,0.17635
2420.57536,0.17726
2418.64662,0.17819
2416.71787,0.17895
2414.78912,0.17959
2412.86038,0.18021
2410.93163,0.18080
2409.00289,0.18132
2407.07414,0.18196
2405.14540,0.18277
2403.21665,0.18351
2401.28791,0.18410
2399.35916,0.18480
2397.43042,0.18573
2395.50167,0.18661
2393.57293,0.18713
2391.64418,0.18735
2389.71544,0.18771
2387.78669,0.18827
2385.85795,0.18875
2383.92920,0.18919
2382.00045,0.18969
2380.07171,0.19018
2378.14296,0.19081
2376.21422,0.19161
2374.28547,0.19237
2372.35673,0.19299
2370.42798,0.19362
2368.49924,0.19419
2366.57049,0.19454
2364.64175,0.19482
2362.71300,0.19521
2360.78426,0.19574
2358.85551,0.19633
2356.92677,0.19688
2354.99802,0.19735
2353.06927,0.19776
2351.14053,0.19824
2349.21178,0.19881
2347.28304,0.19925
2345.35429,0.19959
2343.42555,0.20002
2341.49680,0.20050
2339.56806,0.20092
2337.63931,0.20128
2335.71057,0.20152
2333.78182,0.20162
2331.85308,0.20173
2329.92433,0.20199
2327.99559,0.20229
2326.06684,0.20243
2324.13810,0.20247
2322.20935,0.20262
2320.28060,0.20284
2318.35186,0.20299
2316.42311,0.20303
2314.49437,0.20303
2312.56562,0.20303
2310.63688,0.20299
2308.70813,0.20284
2306.77939,0.20260
2304.85064,0.20241
2302.92190,0.20233
2300.99315,0.20237
2299.06441,0.20236
2297.13566,0.20223
2295.20692,0.20212
2293.27817,0.20203
2291.34943,0.20182
2289.42068,0.20166
2287.49193,0.20168
2285.56319,0.20173
2283.63444,0.20174
2281.70570,0.20185
2279.77695,0.20197
2277.84821,0.20179
2275.91946,0.20123
2273.99072,0.20059
2272.06197,0.20002
2270.13323,0.19948
2268.20448,0.19888
2266.27574,0.19810
2264.34699,0.19732
2262.41825,0.19669
2260.48950,0.19602
2258.56075,0.19519
2256.63201,0.19441
2254.70326,0.19383
2252.77452,0.19337
2250.84577,0.19283
2248.91703,0.19216
2246.98828,0.19155
2245.05954,0.19114
2243.13079,0.19092
2241.20205,0.19084
2239.27330,0.19069
2237.34456,0.19040
2235.41581,0.19022
2233.48707,0.19026
2231.55832,0.19045
2229.62958,0.19071
2227.70083,0.19095
2225.77208,0.19115
2223.84334,0.19140
2221.91459,0.19172
2219.98585,0.19209
2218.05710,0.19255
2216.12836,0.19302
2214.19961,0.19331
2212.27087,0.19338
2210.34212,0.19328
2208.41338,0.19310
2206.48463,0.19294
2204.55589,0.19282
2202.62714,0.19255
2200.69840,0.19208
2198.76965,0.19167
2196.84090,0.19135
2194.91216,0.19076
2192.98341,0.18986
2191.05467,0.18896
2189.12592,0.18815
2187.19718,0.18727
2185.26843,0.18619
2183.33969,0.18501
2181.41094,0.18388
2179.48220,0.18285
2177.55345,0.18179
2175.62471,0.18056
2173.69596,0.17930
2171.76722,0.17814
2169.83847,0.17695
2167.90973,0.17573
2165.98098,0.17461
2164.05223,0.17367
2162.12349,0.17283
2160.19474,0.17204
2158.26600,0.17131
2156.33725,0.17059
2154.40851,0.16986
2152.47976,0.16925
2150.55102,0.16886
2148.62227,0.16853
2146.69353,0.16812
2144.76478,0.16769
2142.83604,0.16729
2140.90729,0.16695
2138.97855,0.16674
2137.04980,0.16668
2135.12106,0.16659
2133.19231,0.16642
2131.26356,0.16655
2129.33482,0.16696
2127.40607,0.16731
2125.47733,0.16751
2123.54858,0.16772
2121.61984,0.16800
2119.69109,0.16823
2117.76235,0.16842
2115.83360,0.16869
2113.90486,0.16902
2111.97611,0.16938
2110.04737,0.16978
2108.11862,0.17005
2106.18988,0.17014
2104.26113,0.17037
2102.33238,0.17085
2100.40364,0.17129
2098.47489,0.17155
2096.54615,0.17180
2094.61740,0.17214
2092.68866,0.17243
2090.75991,0.17260
2088.83117,0.17283
2086.90242,0.17310
2084.97368,0.17321
2083.04493,0.17314
2081.11619,0.17292
2079.18744,0.17271
2077.25870,0.17265
2075.32995,0.17259
2073.40121,0.17223
2071.47246,0.17173
2069.54371,0.17146
2067.61497,0.17144
2065.68622,0.17142
2063.75748,0.17133
2061.82873,0.17128
2059.89999,0.17132
2057.97124,0.17143
2056.04250,0.17158
2054.11375,0.17175
2052.18501,0.17179
2050.25626,0.17176
2048.32752,0.17196
2046.39877,0.17248
2044.47003,0.17302
2042.54128,0.17346
2040.61254,0.17388
2038.68379,0.17424
2036.75504,0.17459
2034.82630,0.17513
2032.89755,0.17588
2030.96881,0.17666
2029.04006,0.17733
2027.11132,0.17797
2025.18257,0.17872
2023.25383,0.17953
2021.32508,0.18041
2019.39634,0.18149
2017.46759,0.18271
2015.53885,0.18383
2013.61010,0.18474
2011.68136,0.18535
2009.75261,0.18567
2007.82386,0.18604
2005.89512,0.18675
2003.96637,0.18757
2002.03763,0.18813
2000.10888,0.18851
1998.18014,0.18888
1996.25139,0.18925
1994.32265,0.18969
1992.39390,0.19016
1990.46516,0.19056
1988.53641,0.19099
1986.60767,0.19142
1984.67892,0.19173
1982.75018,0.19189
1980.82143,0.19197
1978.89269,0.19199
1976.96394,0.19194
1975.03519,0.19194
1973.10645,0.19202
1971.17770,0.19203
1969.24896,0.19188
1967.32021,0.19156
1965.39147,0.19118
1963.46272,0.19090
1961.53398,0.19074
1959.60523,0.19064
1957.67649,0.19059
1955.74774,0.19062
1953.81900,0.19062
1951.89025,0.19054
1949.96151,0.19065
1948.03276,0.19106
1946.10402,0.19162
1944.17527,0.19239
1942.24652,0.19336
1940.31778,0.19417
1938.38903,0.19482
1936.46029,0.19561
1934.53154,0.19648
1932.60280,0.19739
1930.67405,0.19840
1928.74531,0.19938
1926.81656,0.20024
1924.88782,0.20104
1922.95907,0.20176
1921.03033,0.20229
1919.10158,0.20282
1917.17284,0.20349
1915.24409,0.20409
1913.31534,0.20444
1911.38660,0.20471
1909.45785,0.20500
1907.52911,0.20522
1905.60036,0.20527
1903.67162,0.20521
1901.74287,0.20520
1899.81413,0.20532
1897.88538,0.20544
1895.95664,0.20538
1894.02789,0.20521
1892.09915,0.20503
1890.17040,0.20484
1888.24166,0.20469
1886.31291,0.20459
1884.38417,0.20447
1882.45542,0.20432
1880.52667,0.20411
1878.59793,0.20386
1876.66918,0.20359
1874.74044,0.20326
1872.81169,0.20293
1870.88295,0.20261
1868.95420,0.20224
1867.02546,0.20180
1865.09671,0.20124
1863.16797,0.20052
1861.23922,0.19977
1859.31048,0.19912
1857.38173,0.19851
1855.45299,0.19783
1853.52424,0.19710
1851.59549,0.19640
1849.66675,0.19582
1847.73800,0.19522
1845.80926,0.19436
1843.88051,0.19332
1841.95177,0.19236
1840.02302,0.19155
1838.09428,0.19074
1836.16553,0.18979
1834.23679,0.18880
1832.30804,0.18788
1830.37930,0.18691
1828.45055,0.18576
1826.52181,0.18442
1824.59306,0.18295
1822.66432,0.18149
1820.73557,0.18006
1818.80682,0.17845
1816.87808,0.17662
1814.94933,0.17475
1813.02059,0.17302
1811.09184,0.17132
1809.16310,0.16944
1807.23435,0.16741
1805.30561,0.16536
1803.37686,0.16340
1801.44812,0.16146
1799.51937,0.15936
1797.59063,0.15715
1795.66188,0.15506
1793.73314,0.15296
1791.80439,0.15063
1789.87565,0.14819
1787.94690,0.14574
1786.01815,0.14311
1784.08941,0.14014
1782.16066,0.13691
1780.23192,0.13342
1778.30317,0.12960
1776.37443,0.12550
1774.44568,0.12108
1772.51694,0.11605
1770.58819,0.11050
1768.65945,0.10489
1766.73070,0.09943
1764.80196,0.09431
1762.87321,0.08938
1760.94447,0.08467
1759.01572,0.08072
1757.08697,0.07757
1755.15823,0.07504
1753.22948,0.07289
1751.30074,0.07089
1749.37199,0.06916
1747.44325,0.06784
1745.51450,0.06692
1743.58576,0.06637
1741.65701,0.06615
1739.72827,0.06617
1737.79952,0.06646
1735.87078,0.06703
1733.94203,0.06777
1732.01329,0.06858
1730.08454,0.06938
1728.15580,0.07013
1726.22705,0.07106
1724.29830,0.07245
1722.36956,0.07405
1720.44081,0.07557
1718.51207,0.07711
1716.58332,0.07871
1714.65458,0.08024
1712.72583,0.08166
1710.79709,0.08306
1708.86834,0.08451
1706.93960,0.08591
1705.01085,0.08713
1703.08211,0.08819
1701.15336,0.08905
1699.22462,0.08943
1697.29587,0.08938
1695.36713,0.08915
1693.43838,0.08893
1691.50963,0.08881
1689.58089,0.08860
1687.65214,0.08827
1685.72340,0.08777
1683.79465,0.08684
1681.86591,0.08577
1679.93716,0.08493
1678.00842,0.08415
1676.07967,0.08321
1674.15093,0.08214
1672.22218,0.08109
1670.29344,0.08010
1668.36469,0.07922
1666.43595,0.07851
1664.50720,0.07790
1662.57845,0.07741
1660.64971,0.07703
1658.72096,0.07667
1656.79222,0.07641
1654.86347,0.07622
1652.93473,0.07586
1651.00598,0.07538
1649.07724,0.07514
1647.14849,0.07502
1645.21975,0.07477
1643.29100,0.07447
1641.36226,0.07428
1639.43351,0.07427
1637.50477,0.07432
1635.57602,0.07407
1633.64728,0.07349
1631.71853,0.07302
1629.78978,0.07273
1627.86104,0.07240
1625.93229,0.07184
1624.00355,0.07111
1622.07480,0.07046
1620.14606,0.06995
1618.21731,0.06933
1616.28857,0.06856
1614.35982,0.06803
1612.43108,0.06773
1610.50233,0.06735
1608.57359,0.06676
1606.64484,0.06598
1604.71610,0.06513
1602.78735,0.06437
1600.85861,0.06377
1598.92986,0.06332
1597.00111,0.06292
1595.07237,0.06276
1593.14362,0.06325
1591.21488,0.06453
1589.28613,0.06640
1587.35739,0.06862
1585.42864,0.07112
1583.49990,0.07384
1581.57115,0.07663
1579.64241,0.07936
1577.71366,0.08220
1575.78492,0.08527
1573.85617,0.08791
1571.92743,0.08999
1569.99868,0.09200
1568.06993,0.09383
1566.14119,0.09522
1564.21244,0.09632
1562.28370,0.09710
1560.35495,0.09762
1558.42621,0.09808
1556.49746,0.09846
1554.56872,0.09855
1552.63997,0.09820
1550.71123,0.09753
1548.78248,0.09681
1546.85374,0.09620
1544.92499,0.09584
1542.99625,0.09543
1541.06750,0.09431
1539.13876,0.09238
1537.21001,0.09063
1535.28126,0.08912
1533.35252,0.08707
1531.42377,0.08440
1529.49503,0.08152
1527.56628,0.07846
1525.63754,0.07528
1523.70879,0.07208
1521.78005,0.06853
1519.85130,0.06509
1517.92256,0.06261
1515.99381,0.06102
1514.06507,0.06003
1512.13632,0.05928
1510.20758,0.05862
1508.27883,0.05815
1506.35008,0.05782
1504.42134,0.05789
1502.49259,0.05849
1500.56385,0.05955
1498.63510,0.06092
1496.70636,0.06233
1494.77761,0.06358
1492.84887,0.06475
1490.92012,0.06583
1488.99138,0.06640
1487.06263,0.06627
1485.13389,0.06563
1483.20514,0.06455
1481.27640,0.06306
1479.34765,0.06132
1477.41891,0.05945
1475.49016,0.05744
1473.56141,0.05521
1471.63267,0.05306
1469.70392,0.05158
1467.77518,0.05091
1465.84643,0.05082
1463.91769,0.05100
1461.98894,0.05131
1460.06020,0.05170
1458.13145,0.05209
1456.20271,0.05256
1454.27396,0.05315
1452.34522,0.05372
1450.41647,0.05411
1448.48773,0.05440
1446.55898,0.05473
1444.63024,0.05489
1442.70149,0.05466
1440.77274,0.05417
1438.84400,0.05353
1436.91525,0.05253
1434.98651,0.05145
1433.05776,0.05082
1431.12902,0.05069
1429.20027,0.05093
1427.27153,0.05142
1425.34278,0.05210
1423.41404,0.05291
1421.48529,0.05392
1419.55655,0.05518
1417.62780,0.05635
1415.69906,0.05719
1413.77031,0.05790
1411.84156,0.05845
1409.91282,0.05874
1407.98407,0.05893
1406.05533,0.05900
1404.12658,0.05884
1402.19784,0.05859
1400.26909,0.05831
1398.34035,0.05790
1396.41160,0.05731
1394.48286,0.05650
1392.55411,0.05571
1390.62537,0.05503
1388.69662,0.05414
1386.76788,0.05292
1384.83913,0.05171
1382.91039,0.05075
1380.98164,0.05004
1379.05289,0.04966
1377.12415,0.04952
1375.19540,0.04942
1373.26666,0.04953
1371.33791,0.04998
1369.40917,0.05053
1367.48042,0.05098
1365.55168,0.05138
1363.62293,0.05179
1361.69419,0.05216
1359.76544,0.05237
1357.83670,0.05243
1355.90795,0.05243
1353.97921,0.05242
1352.05046,0.05250
1350.12172,0.05249
1348.19297,0.05217
1346.26422,0.05162
1344.33548,0.05110
1342.40673,0.05072
1340.47799,0.05038
1338.54924,0.04996
1336.62050,0.04969
1334.69175,0.04977
1332.76301,0.05012
1330.83426,0.05073
1328.90552,0.05129
1326.97677,0.05149
1325.04803,0.05149
1323.11928,0.05161
1321.19054,0.05199
1319.26179,0.05256
1317.33304,0.05315
1315.40430,0.05379
1313.47555,0.05459
1311.54681,0.05532
1309.61806,0.05582
1307.68932,0.05627
1305.76057,0.05680
1303.83183,0.05729
1301.90308,0.05753
1299.97434,0.05737
1298.04559,0.05698
1296.11685,0.05655
1294.18810,0.05601
1292.25936,0.05530
1290.33061,0.05448
1288.40187,0.05359
1286.47312,0.05273
1284.54437,0.05200
1282.61563,0.05161
1280.68688,0.05162
1278.75814,0.05164
1276.82939,0.05145
1274.90065,0.05124
1272.97190,0.05103
1271.04316,0.05075
1269.11441,0.05035
1267.18567,0.04983
1265.25692,0.04935
1263.32818,0.04915
1261.39943,0.04909
1259.47069,0.04892
1257.54194,0.04867
1255.61320,0.04842
1253.68445,0.04819
1251.75570,0.04794
1249.82696,0.04767
1247.89821,0.04759
1245.96947,0.04783
1244.04072,0.04818
1242.11198,0.04848
1240.18323,0.04871
1238.25449,0.04895
1236.32574,0.04938
1234.39700,0.05008
1232.46825,0.05081
1230.53951,0.05123
1228.61076,0.05140
1226.68202,0.05169
1224.75327,0.05223
1222.82452,0.05281
1220.89578,0.05322
1218.96703,0.05350
1217.03829,0.05380
1215.10954,0.05408
1213.18080,0.05395
1211.25205,0.05343
1209.32331,0.05305
1207.39456,0.05297
1205.46582,0.05285
1203.53707,0.05248
1201.60833,0.05214
1199.67958,0.05199
1197.75084,0.05188
1195.82209,0.05164
1193.89335,0.05105
1191.96460,0.05018
1190.03585,0.04930
1188.10711,0.04838
1186.17836,0.04726
1184.24962,0.04595
1182.32087,0.04463
1180.39213,0.04331
1178.46338,0.04207
1176.53464,0.04107
1174.60589,0.04032
1172.67715,0.03984
1170.74840,0.03982
1168.81966,0.04068
1166.89091,0.04258
1164.96217,0.04489
1163.03342,0.04690
1161.10467,0.04837
1159.17593,0.04927
1157.24718,0.04978
1155.31844,0.05019
1153.38969,0.05042
1151.46095,0.05015
1149.53220,0.04935
1147.60346,0.04842
1145.67471,0.04755
1143.74597,0.04640
1141.81722,0.04467
1139.88848,0.04271
1137.95973,0.04105
1136.03099,0.03975
1134.10224,0.03888
1132.17350,0.03884
1130.24475,0.03975
1128.31600,0.04136
1126.38726,0.04313
1124.45851,0.04465
1122.52977,0.04584
1120.60102,0.04681
1118.67228,0.04766
1116.74353,0.04846
1114.81479,0.04952
1112.88604,0.05100
1110.95730,0.05245
1109.02855,0.05341
1107.09981,0.05388
1105.17106,0.05400
1103.24232,0.05367
1101.31357,0.05296
1099.38483,0.05223
1097.45608,0.05150
1095.52733,0.05075
1093.59859,0.05017
1091.66984,0.04963
1089.74110,0.04889
1087.81235,0.04814
1085.88361,0.04763
1083.95486,0.04733
1082.02612,0.04725
1080.09737,0.04758
1078.16863,0.04838
1076.23988,0.04955
1074.31114,0.05102
1072.38239,0.05293
1070.45365,0.05540
1068.52490,0.05867
1066.59615,0.06299
1064.66741,0.06824
1062.73866,0.07390
1060.80992,0.07908
1058.88117,0.08291
1056.95243,0.08527
1055.02368,0.08654
1053.09494,0.08697
1051.16619,0.08668
1049.23745,0.08578
1047.30870,0.08439
1045.37996,0.08299
1043.45121,0.08244
1041.52247,0.08325
1039.59372,0.08536
1037.66498,0.08835
1035.73623,0.09147
1033.80748,0.09380
1031.87874,0.09499
1029.94999,0.09541
1028.02125,0.09546
1026.09250,0.09529
1024.16376,0.09497
1022.23501,0.09463
1020.30627,0.09433
1018.37752,0.09416
1016.44878,0.09419
1014.52003,0.09407
1012.59129,0.09368
1010.66254,0.09359
1008.73380,0.09376
1006.80505,0.09354
1004.87631,0.09278
1002.94756,0.09201
1001.01881,0.09183
999.09007,0.09231
997.16132,0.09305
995.23258,0.09375
993.30383,0.09427
991.37509,0.09466
989.44634,0.09538
987.51760,0.09661
985.58885,0.09800
983.66011,0.09926
981.73136,0.10046
979.80262,0.10166
977.87387,0.10270
975.94513,0.10350
974.01638,0.10424
972.08763,0.10489
970.15889,0.10520
968.23014,0.10541
966.30140,0.10595
964.37265,0.10684
962.44391,0.10801
960.51516,0.10941
958.58642,0.11086
956.65767,0.11207
954.72893,0.11302
952.80018,0.11391
950.87144,0.11472
948.94269,0.11517
947.01395,0.11527
945.08520,0.11527
943.15646,0.11525
941.22771,0.11506
939.29896,0.11448
937.37022,0.11352
935.44147,0.11257
933.51273,0.11172
931.58398,0.11074
929.65524,0.10978
927.72649,0.10916
925.79775,0.10873
923.86900,0.10820
921.94026,0.10733
920.01151,0.10609
918.08277,0.10467
916.15402,0.10343
914.22528,0.10260
912.29653,0.10200
910.36779,0.10139
908.43904,0.10053
906.51029,0.09925
904.58155,0.09784
902.65280,0.09665
900.72406,0.09595
898.79531,0.09590
896.86657,0.09630
894.93782,0.09697
893.00908,0.09792
891.08033,0.09891
889.15159,0.09986
887.22284,0.10082
885.29410,0.10151
883.36535,0.10184
881.43661,0.10220
879.50786,0.10255
877.57911,0.10271
875.65037,0.10280
873.72162,0.10295
871.79288,0.10326
869.86413,0.10363
867.93539,0.10384
866.00664,0.10398
864.07790,0.10405
862.14915,0.10362
860.22041,0.10258
858.29166,0.10157
856.36292,0.10109
854.43417,0.10079
852.50543,0.09991
850.57668,0.09849
848.64794,0.09746
846.71919,0.09718
844.79044,0.09730
842.86170,0.09731
840.93295,0.09688
839.00421,0.09605
837.07546,0.09519
835.14672,0.09472
833.21797,0.09478
831.28923,0.09489
829.36048,0.09470
827.43174,0.09472
825.50299,0.09527
823.57425,0.09593
821.64550,0.09630
819.71676,0.09611
817.78801,0.09527
815.85926,0.09443
813.93052,0.09417
812.00177,0.09424
810.07303,0.09431
808.14428,0.09415
806.21554,0.09353
804.28679,0.09262
802.35805,0.09191
800.42930,0.09164
798.50056,0.09171
796.57181,0.09187
794.64307,0.09168
792.71432,0.09088
790.78558,0.08993
788.85683,0.08925
786.92809,0.08881
784.99934,0.08843
783.07059,0.08792
781.14185,0.08716
779.21310,0.08626
777.28436,0.08542
775.35561,0.08472
773.42687,0.08407
771.49812,0.08348
769.56938,0.08301
767.64063,0.08245
765.71189,0.08148
763.78314,0.08039
761.85440,0.07972
759.92565,0.07927
757.99691,0.07871
756.06816,0.07808
754.13942,0.07728
752.21067,0.07615
750.28192,0.07493
748.35318,0.07400
746.42443,0.07339
744.49569,0.07292
742.56694,0.07265
740.63820,0.07238
738.70945,0.07176
736.78071,0.07103
734.85196,0.07031
732.92322,0.06942
730.99447,0.06863
729.06573,0.06807
727.13698,0.06744
725.20824,0.06662
723.27949,0.06584
721.35074,0.06533
719.42200,0.06492
717.49325,0.06441
715.56451,0.06408
713.63576,0.06413
711.70702,0.06431
709.77827,0.06449
707.84953,0.06453
705.92078,0.06434
703.99204,0.06423
702.06329,0.06451
700.13455,0.06497
698.20580,0.06521
696.27706,0.06514
694.34831,0.06499
692.41957,0.06477
690.49082,0.06420
688.56207,0.06349
686.63333,0.06315
684.70458,0.06305
682.77584,0.06278
680.84709,0.06231
678.91835,0.06178
676.98960,0.06105
675.06086,0.06040
673.13211,0.06083
671.20337,0.06214
669.27462,0.06302
667.34588,0.06285
665.41713,0.06242
663.48839,0.06272
661.55964,0.06308
659.63090,0.06290
657.70215,0.06300
655.77340,0.06362
653.84466,0.06375
651.91591,0.06305
649.98717,0.06218
648.05842,0.06132
646.12968,0.06041
644.20093,0.05948
642.27219,0.05900
640.34344,0.05946
638.41470,0.06006
636.48595,0.05997
634.55721,0.05956
632.62846,0.05959
630.69972,0.06018
628.77097,0.06041
626.84222,0.05969
624.91348,0.05914
622.98473,0.05965
621.05599,0.06078
619.12724,0.06177
617.19850,0.06213
615.26975,0.06201
613.34101,0.06203
611.41226,0.06262
609.48352,0.06412
607.55477,0.06624
605.62603,0.06791
603.69728,0.06799
601.76854,0.06695
599.83979,0.06661
