7497.03301,0.01692
7495.10426,0.01590
7493.17552,0.01729
7491.24677,0.01757
7489.31803,0.01576
7487.38928,0.01739
7485.46054,0.02197
7483.53179,0.02358
7481.60305,0.02150
7479.67430,0.02225
7477.74556,0.02694
7475.81681,0.02766
7473.88807,0.02133
7471.95932,0.01610
7470.03057,0.01831
7468.10183,0.02553
7466.17308,0.02974
7464.24434,0.03097
7462.31559,0.02993
7460.38685,0.02442
7458.45810,0.02062
7456.52936,0.02281
7454.60061,0.02525
7452.67187,0.02495
7450.74312,0.02474
7448.81438,0.02531
7446.88563,0.02359
7444.95689,0.02330
7443.02814,0.02657
7441.09940,0.02828
7439.17065,0.02478
7437.24190,0.02028
7435.31316,0.01768
7433.38441,0.01600
7431.45567,0.01374
7429.52692,0.01301
7427.59818,0.01351
7425.66943,0.01574
7423.74069,0.01807
7421.81194,0.02024
7419.88320,0.02213
7417.95445,0.02277
7416.02571,0.02242
7414.09696,0.02314
7412.16822,0.02387
7410.23947,0.02183
7408.31073,0.01824
7406.38198,0.01595
7404.45323,0.01409
7402.52449,0.01226
7400.59574,0.01231
7398.66700,0.01480
7396.73825,0.01639
7394.80951,0.01632
7392.88076,0.01728
7390.95202,0.01811
7389.02327,0.01721
7387.09453,0.01700
7385.16578,0.01901
7383.23704,0.02233
7381.30829,0.02514
7379.37955,0.02845
7377.45080,0.03183
7375.52205,0.03200
7373.59331,0.02788
7371.66456,0.02335
7369.73582,0.02237
7367.80707,0.02424
7365.87833,0.02533
7363.94958,0.02716
7362.02084,0.02876
7360.09209,0.02882
7358.16335,0.02766
7356.23460,0.02488
7354.30586,0.02119
7352.37711,0.01933
7350.44837,0.01994
7348.51962,0.02272
7346.59088,0.02549
7344.66213,0.02476
7342.73338,0.02069
7340.80464,0.01751
7338.87589,0.01758
7336.94715,0.01791
7335.01840,0.01437
7333.08966,0.01069
7331.16091,0.01130
7329.23217,0.01457
7327.30342,0.01665
7325.37468,0.01807
7323.44593,0.01876
7321.51719,0.01804
7319.58844,0.01805
7317.65970,0.02010
7315.73095,0.02246
7313.80221,0.02323
7311.87346,0.02161
7309.94471,0.02014
7308.01597,0.02126
7306.08722,0.02265
7304.15848,0.01959
7302.22973,0.01297
7300.30099,0.00990
7298.37224,0.01422
7296.44350,0.01820
7294.51475,0.01902
7292.58601,0.02011
7290.65726,0.02270
7288.72852,0.02361
7286.79977,0.02293
7284.87103,0.02121
7282.94228,0.01766
7281.01353,0.01530
7279.08479,0.01786
7277.15604,0.02127
7275.22730,0.02258
7273.29855,0.02209
7271.36981,0.02181
7269.44106,0.02225
7267.51232,0.02264
7265.58357,0.02172
7263.65483,0.02123
7261.72608,0.02081
7259.79734,0.02037
7257.86859,0.01943
7255.93985,0.02022
7254.01110,0.02143
7252.08236,0.02206
7250.15361,0.02402
7248.22486,0.02580
7246.29612,0.02444
7244.36737,0.02166
7242.43863,0.01994
7240.50988,0.01896
7238.58114,0.01711
7236.65239,0.01491
7234.72365,0.01405
7232.79490,0.01590
7230.86616,0.02017
7228.93741,0.02405
7227.00867,0.02570
7225.07992,0.02625
7223.15118,0.02630
7221.22243,0.02654
7219.29369,0.02501
7217.36494,0.02194
7215.43619,0.02153
7213.50745,0.02408
7211.57870,0.02647
7209.64996,0.02605
7207.72121,0.02359
7205.79247,0.02396
7203.86372,0.02627
7201.93498,0.02688
7200.00623,0.02575
7198.07749,0.02316
7196.14874,0.02089
7194.22000,0.02080
7192.29125,0.02052
7190.36251,0.01850
7188.43376,0.01690
7186.50501,0.01923
7184.57627,0.02494
7182.64752,0.02860
7180.71878,0.02748
7178.79003,0.02430
7176.86129,0.02117
7174.93254,0.01962
7173.00380,0.01951
7171.07505,0.02066
7169.14631,0.02364
7167.21756,0.02645
7165.28882,0.02464
7163.36007,0.02162
7161.43133,0.01995
7159.50258,0.01888
7157.57384,0.01922
7155.64509,0.02363
7153.71634,0.02686
7151.78760,0.02279
7149.85885,0.01645
7147.93011,0.01615
7146.00136,0.02031
7144.07262,0.02356
7142.14387,0.02488
7140.21513,0.02612
7138.28638,0.02572
7136.35764,0.02222
7134.42889,0.01852
7132.50015,0.01730
7130.57140,0.01691
7128.64266,0.01775
7126.71391,0.02078
7124.78516,0.02213
7122.85642,0.01938
7120.92767,0.01715
7118.99893,0.01864
7117.07018,0.02205
7115.14144,0.02475
7113.21269,0.02523
7111.28395,0.02391
7109.35520,0.02282
7107.42646,0.02236
7105.49771,0.02149
7103.56897,0.02047
7101.64022,0.01976
7099.71148,0.02020
7097.78273,0.02241
7095.85399,0.02358
7093.92524,0.02300
7091.99649,0.02304
7090.06775,0.02409
7088.13900,0.02541
7086.21026,0.02605
7084.28151,0.02452
7082.35277,0.02213
7080.42402,0.02158
7078.49528,0.02176
7076.56653,0.01956
7074.63779,0.01689
7072.70904,0.01674
7070.78030,0.01783
7068.85155,0.01838
7066.92281,0.01958
7064.99406,0.02028
7063.06532,0.02043
7061.13657,0.02187
7059.20782,0.02487
7057.27908,0.02665
7055.35033,0.02559
7053.42159,0.02525
7051.49284,0.02774
7049.56410,0.02749
7047.63535,0.02361
7045.70661,0.02142
7043.77786,0.02191
7041.84912,0.02214
7039.92037,0.02227
7037.99163,0.02445
7036.06288,0.02618
7034.13414,0.02436
7032.20539,0.02141
7030.27664,0.01953
7028.34790,0.01941
7026.41915,0.02158
7024.49041,0.02410
7022.56166,0.02405
7020.63292,0.02340
7018.70417,0.02441
7016.77543,0.02544
7014.84668,0.02528
7012.91794,0.02564
7010.98919,0.02769
7009.06045,0.02871
7007.13170,0.02626
7005.20296,0.02234
7003.27421,0.01899
7001.34547,0.01696
6999.41672,0.01741
6997.48797,0.02061
6995.55923,0.02338
6993.63048,0.02310
6991.70174,0.02167
6989.77299,0.02113
6987.84425,0.02032
6985.91550,0.01816
6983.98676,0.01627
6982.05801,0.01634
6980.12927,0.01607
6978.20052,0.01590
6976.27178,0.01817
6974.34303,0.02166
6972.41429,0.02254
6970.48554,0.02109
6968.55680,0.01999
6966.62805,0.01932
6964.69930,0.01901
6962.77056,0.02026
6960.84181,0.02165
6958.91307,0.02226
6956.98432,0.02300
6955.05558,0.02296
6953.12683,0.02131
6951.19809,0.01956
6949.26934,0.01887
6947.34060,0.01994
6945.41185,0.02130
6943.48311,0.02064
6941.55436,0.01929
6939.62562,0.02003
6937.69687,0.02273
6935.76812,0.02355
6933.83938,0.02036
6931.91063,0.01797
6929.98189,0.01936
6928.05314,0.02123
6926.12440,0.02070
6924.19565,0.01952
6922.26691,0.01817
6920.33816,0.01623
6918.40942,0.01521
6916.48067,0.01683
6914.55193,0.02004
6912.62318,0.02269
6910.69444,0.02359
6908.76569,0.02329
6906.83695,0.02245
6904.90820,0.02194
6902.97945,0.02232
6901.05071,0.02321
6899.12196,0.02287
6897.19322,0.02179
6895.26447,0.02053
6893.33573,0.01921
6891.40698,0.01914
6889.47824,0.02040
6887.54949,0.02073
6885.62075,0.02101
6883.69200,0.02306
6881.76326,0.02463
6879.83451,0.02336
6877.90577,0.02015
6875.97702,0.01755
6874.04828,0.01827
6872.11953,0.02042
6870.19078,0.02075
6868.26204,0.01987
6866.33329,0.01960
6864.40455,0.02003
6862.47580,0.02074
6860.54706,0.02170
6858.61831,0.02278
6856.68957,0.02264
6854.76082,0.02152
6852.83208,0.02159
6850.90333,0.02278
6848.97459,0.02292
6847.04584,0.02125
6845.11710,0.01925
6843.18835,0.01853
6841.25960,0.01949
6839.33086,0.02122
6837.40211,0.02152
6835.47337,0.02051
6833.54462,0.01967
6831.61588,0.02075
6829.68713,0.02279
6827.75839,0.02339
6825.82964,0.02239
6823.90090,0.02110
6821.97215,0.02052
6820.04341,0.01998
6818.11466,0.01829
6816.18592,0.01780
6814.25717,0.01861
6812.32843,0.01813
6810.39968,0.01747
6808.47093,0.01851
6806.54219,0.01888
6804.61344,0.01801
6802.68470,0.01785
6800.75595,0.01967
6798.82721,0.02248
6796.89846,0.02432
6794.96972,0.02320
6793.04097,0.02049
6791.11223,0.01913
6789.18348,0.01961
6787.25474,0.01939
6785.32599,0.01919
6783.39725,0.01964
6781.46850,0.01831
6779.53975,0.01671
6777.61101,0.01747
6775.68226,0.01859
6773.75352,0.01773
6771.82477,0.01589
6769.89603,0.01569
6767.96728,0.01727
6766.03854,0.01811
6764.10979,0.01783
6762.18105,0.01914
6760.25230,0.02044
6758.32356,0.01844
6756.39481,0.01529
6754.46607,0.01487
6752.53732,0.01727
6750.60858,0.02033
6748.67983,0.02197
6746.75108,0.02171
6744.82234,0.01981
6742.89359,0.01802
6740.96485,0.01859
6739.03610,0.02042
6737.10736,0.01958
6735.17861,0.01739
6733.24987,0.01758
6731.32112,0.01884
6729.39238,0.01905
6727.46363,0.02013
6725.53489,0.02284
6723.60614,0.02342
6721.67740,0.02042
6719.74865,0.01852
6717.81991,0.02051
6715.89116,0.02273
6713.96241,0.02072
6712.03367,0.01612
6710.10492,0.01473
6708.17618,0.01789
6706.24743,0.02140
6704.31869,0.02215
6702.38994,0.02083
6700.46120,0.01928
6698.53245,0.01837
6696.60371,0.01896
6694.67496,0.02052
6692.74622,0.02175
6690.81747,0.02136
6688.88873,0.01914
6686.95998,0.01713
6685.03123,0.01808
6683.10249,0.02022
6681.17374,0.02080
6679.24500,0.02071
6677.31625,0.02142
6675.38751,0.02184
6673.45876,0.02092
6671.53002,0.01955
6669.60127,0.01880
6667.67253,0.01868
6665.74378,0.01883
6663.81504,0.01874
6661.88629,0.01910
6659.95755,0.02004
6658.02880,0.02159
6656.10006,0.02254
6654.17131,0.02210
6652.24256,0.02084
6650.31382,0.01906
6648.38507,0.01621
6646.45633,0.01486
6644.52758,0.01666
6642.59884,0.01886
6640.67009,0.02044
6638.74135,0.02116
6636.81260,0.01958
6634.88386,0.01853
6632.95511,0.01992
6631.02637,0.02015
6629.09762,0.01779
6627.16888,0.01567
6625.24013,0.01531
6623.31139,0.01568
6621.38264,0.01629
6619.45389,0.01793
6617.52515,0.01951
6615.59640,0.01913
6613.66766,0.01833
6611.73891,0.01957
6609.81017,0.02068
6607.88142,0.01982
6605.95268,0.01860
6604.02393,0.01795
6602.09519,0.01621
6600.16644,0.01394
6598.23770,0.01343
6596.30895,0.01552
6594.38021,0.01898
6592.45146,0.02200
6590.52271,0.02275
6588.59397,0.02181
6586.66522,0.02014
6584.73648,0.01766
6582.80773,0.01589
6580.87899,0.01614
6578.95024,0.01695
6577.02150,0.01749
6575.09275,0.01826
6573.16401,0.01976
6571.23526,0.02131
6569.30652,0.02106
6567.37777,0.01944
6565.44903,0.01887
6563.52028,0.01919
6561.59154,0.01915
6559.66279,0.01907
6557.73404,0.02079
6555.80530,0.02378
6553.87655,0.02507
6551.94781,0.02404
6550.01906,0.02191
6548.09032,0.01881
6546.16157,0.01673
6544.23283,0.01706
6542.30408,0.01764
6540.37534,0.01772
6538.44659,0.01866
6536.51785,0.01961
6534.58910,0.02009
6532.66036,0.02032
6530.73161,0.01921
6528.80287,0.01741
6526.87412,0.01724
6524.94537,0.01759
6523.01663,0.01683
6521.08788,0.01734
6519.15914,0.02047
6517.23039,0.02299
6515.30165,0.02285
6513.37290,0.02120
6511.44416,0.01938
6509.51541,0.01829
6507.58667,0.01862
6505.65792,0.01972
6503.72918,0.02025
6501.80043,0.02004
6499.87169,0.01991
6497.94294,0.01947
6496.01419,0.01893
6494.08545,0.01924
6492.15670,0.01997
6490.22796,0.01982
6488.29921,0.01944
6486.37047,0.01956
6484.44172,0.01977
6482.51298,0.01942
6480.58423,0.01930
6478.65549,0.01963
6476.72674,0.01928
6474.79800,0.01819
6472.86925,0.01799
6470.94051,0.01819
6469.01176,0.01765
6467.08302,0.01779
6465.15427,0.01928
6463.22552,0.01935
6461.29678,0.01721
6459.36803,0.01573
6457.43929,0.01601
6455.51054,0.01655
6453.58180,0.01743
6451.65305,0.01954
6449.72431,0.02050
6447.79556,0.01824
6445.86682,0.01577
6443.93807,0.01534
6442.00933,0.01613
6440.08058,0.01750
6438.15184,0.01909
6436.22309,0.02031
6434.29434,0.02013
6432.36560,0.01820
6430.43685,0.01715
6428.50811,0.01927
6426.57936,0.02286
6424.65062,0.02401
6422.72187,0.02228
6420.79313,0.02105
6418.86438,0.02180
6416.93564,0.02252
6415.00689,0.02157
6413.07815,0.02016
6411.14940,0.01990
6409.22066,0.02012
6407.29191,0.02044
6405.36317,0.02094
6403.43442,0.02018
6401.50567,0.01752
6399.57693,0.01583
6397.64818,0.01681
6395.71944,0.01837
6393.79069,0.01841
6391.86195,0.01717
6389.93320,0.01577
6388.00446,0.01520
6386.07571,0.01580
6384.14697,0.01677
6382.21822,0.01714
6380.28948,0.01724
6378.36073,0.01712
6376.43199,0.01648
6374.50324,0.01653
6372.57450,0.01757
6370.64575,0.01795
6368.71700,0.01780
6366.78826,0.01823
6364.85951,0.01918
6362.93077,0.01988
6361.00202,0.02044
6359.07328,0.02146
6357.14453,0.02162
6355.21579,0.02029
6353.28704,0.01983
6351.35830,0.02061
6349.42955,0.02124
6347.50081,0.02150
6345.57206,0.02074
6343.64332,0.01894
6341.71457,0.01813
6339.78582,0.01889
6337.85708,0.02039
6335.92833,0.02123
6333.99959,0.02068
6332.07084,0.02000
6330.14210,0.02022
6328.21335,0.02028
6326.28461,0.02070
6324.35586,0.02133
6322.42712,0.02115
6320.49837,0.02034
6318.56963,0.01929
6316.64088,0.01837
6314.71214,0.01821
6312.78339,0.01808
6310.85465,0.01779
6308.92590,0.01738
6306.99715,0.01646
6305.06841,0.01582
6303.13966,0.01642
6301.21092,0.01727
6299.28217,0.01784
6297.35343,0.01902
6295.42468,0.02058
6293.49594,0.02185
6291.56719,0.02221
6289.63845,0.02052
6287.70970,0.01795
6285.78096,0.01685
6283.85221,0.01676
6281.92347,0.01693
6279.99472,0.01818
6278.06598,0.01977
6276.13723,0.02077
6274.20848,0.02150
6272.27974,0.02180
6270.35099,0.02137
6268.42225,0.02033
6266.49350,0.01863
6264.56476,0.01651
6262.63601,0.01494
6260.70727,0.01461
6258.77852,0.01435
6256.84978,0.01455
6254.92103,0.01667
6252.99229,0.01903
6251.06354,0.02016
6249.13480,0.02023
6247.20605,0.01868
6245.27730,0.01714
6243.34856,0.01788
6241.41981,0.01948
6239.49107,0.02046
6237.56232,0.02077
6235.63358,0.01967
6233.70483,0.01787
6231.77609,0.01678
6229.84734,0.01655
6227.91860,0.01732
6225.98985,0.01924
6224.06111,0.02108
6222.13236,0.02088
6220.20362,0.01912
6218.27487,0.01833
6216.34613,0.01866
6214.41738,0.01932
6212.48863,0.02044
6210.55989,0.02130
6208.63114,0.02074
6206.70240,0.01944
6204.77365,0.01881
6202.84491,0.01892
6200.91616,0.01896
6198.98742,0.01868
6197.05867,0.01878
6195.12993,0.01982
6193.20118,0.02050
6191.27244,0.01926
6189.34369,0.01680
6187.41495,0.01545
6185.48620,0.01601
6183.55746,0.01764
6181.62871,0.01871
6179.69996,0.01852
6177.77122,0.01863
6175.84247,0.01913
6173.91373,0.01856
6171.98498,0.01759
6170.05624,0.01718
6168.12749,0.01815
6166.19875,0.01943
6164.27000,0.01829
6162.34126,0.01646
6160.41251,0.01683
6158.48377,0.01803
6156.55502,0.01882
6154.62628,0.01941
6152.69753,0.01977
6150.76878,0.01955
6148.84004,0.01886
6146.91129,0.01873
6144.98255,0.01969
6143.05380,0.02068
6141.12506,0.02068
6139.19631,0.01988
6137.26757,0.01917
6135.33882,0.01867
6133.41008,0.01830
6131.48133,0.01822
6129.55259,0.01849
6127.62384,0.01862
6125.69510,0.01853
6123.76635,0.01876
6121.83761,0.01930
6119.90886,0.01958
6117.98011,0.01993
6116.05137,0.02024
6114.12262,0.01968
6112.19388,0.01918
6110.26513,0.02012
6108.33639,0.02160
6106.40764,0.02179
6104.47890,0.02051
6102.55015,0.02009
6100.62141,0.02119
6098.69266,0.02171
6096.76392,0.02148
6094.83517,0.02135
6092.90643,0.02130
6090.97768,0.02133
6089.04893,0.02066
6087.12019,0.01920
6085.19144,0.01856
6083.26270,0.01973
6081.33395,0.02061
6079.40521,0.01918
6077.47646,0.01751
6075.54772,0.01815
6073.61897,0.01921
6071.69023,0.01875
6069.76148,0.01868
6067.83274,0.02004
6065.90399,0.02033
6063.97525,0.01936
6062.04650,0.01909
6060.11776,0.01864
6058.18901,0.01654
6056.26026,0.01478
6054.33152,0.01607
6052.40277,0.01923
6050.47403,0.02108
6048.54528,0.02083
6046.61654,0.01933
6044.68779,0.01732
6042.75905,0.01582
6040.83030,0.01545
6038.90156,0.01556
6036.97281,0.01591
6035.04407,0.01670
6033.11532,0.01698
6031.18658,0.01688
6029.25783,0.01801
6027.32909,0.01988
6025.40034,0.02081
6023.47159,0.02007
6021.54285,0.01880
6019.61410,0.01882
6017.68536,0.01992
6015.75661,0.02071
6013.82787,0.02056
6011.89912,0.01906
6009.97038,0.01677
6008.04163,0.01571
6006.11289,0.01695
6004.18414,0.01875
6002.25540,0.01920
6000.32665,0.01897
5998.39791,0.01954
5996.46916,0.02061
5994.54041,0.02061
5992.61167,0.01894
5990.68292,0.01677
5988.75418,0.01540
5986.82543,0.01490
5984.89669,0.01491
5982.96794,0.01580
5981.03920,0.01809
5979.11045,0.02119
5977.18171,0.02269
5975.25296,0.02109
5973.32422,0.01868
5971.39547,0.01850
5969.46673,0.01961
5967.53798,0.01959
5965.60924,0.01908
5963.68049,0.01947
5961.75174,0.01995
5959.82300,0.01951
5957.89425,0.01843
5955.96551,0.01823
5954.03676,0.01878
5952.10802,0.01842
5950.17927,0.01808
5948.25053,0.01928
5946.32178,0.02090
5944.39304,0.02073
5942.46429,0.01851
5940.53555,0.01674
5938.60680,0.01670
5936.67806,0.01645
5934.74931,0.01531
5932.82057,0.01505
5930.89182,0.01610
5928.96307,0.01694
5927.03433,0.01675
5925.10558,0.01680
5923.17684,0.01772
5921.24809,0.01842
5919.31935,0.01875
5917.39060,0.01938
5915.46186,0.01969
5913.53311,0.01900
5911.60437,0.01784
5909.67562,0.01693
5907.74688,0.01639
5905.81813,0.01690
5903.88939,0.01851
5901.96064,0.02009
5900.03189,0.02137
5898.10315,0.02279
5896.17440,0.02337
5894.24566,0.02245
5892.31691,0.02072
5890.38817,0.01924
5888.45942,0.01907
5886.53068,0.01999
5884.60193,0.02051
5882.67319,0.01999
5880.74444,0.01948
5878.81570,0.01964
5876.88695,0.01939
5874.95821,0.01898
5873.02946,0.01965
5871.10072,0.02072
5869.17197,0.02046
5867.24322,0.01932
5865.31448,0.01835
5863.38573,0.01747
5861.45699,0.01695
5859.52824,0.01784
5857.59950,0.01927
5855.67075,0.01933
5853.74201,0.01830
5851.81326,0.01819
5849.88452,0.01876
5847.95577,0.01915
5846.02703,0.01944
5844.09828,0.01933
5842.16954,0.01898
5840.24079,0.01920
5838.31205,0.01966
5836.38330,0.01942
5834.45455,0.01814
5832.52581,0.01673
5830.59706,0.01608
5828.66832,0.01643
5826.73957,0.01725
5824.81083,0.01816
5822.88208,0.01897
5820.95334,0.01932
5819.02459,0.01950
5817.09585,0.01984
5815.16710,0.01963
5813.23836,0.01875
5811.30961,0.01825
5809.38087,0.01886
5807.45212,0.02006
5805.52337,0.02063
5803.59463,0.01954
5801.66588,0.01757
5799.73714,0.01656
5797.80839,0.01713
5795.87965,0.01814
5793.95090,0.01868
5792.02216,0.01868
5790.09341,0.01785
5788.16467,0.01662
5786.23592,0.01627
5784.30718,0.01680
5782.37843,0.01787
5780.44969,0.01929
5778.52094,0.02053
5776.59220,0.02084
5774.66345,0.02008
5772.73470,0.01936
5770.80596,0.01887
5768.87721,0.01827
5766.94847,0.01850
5765.01972,0.01945
5763.09098,0.02000
5761.16223,0.01970
5759.23349,0.01832
5757.30474,0.01697
5755.37600,0.01728
5753.44725,0.01840
5751.51851,0.01850
5749.58976,0.01781
5747.66102,0.01781
5745.73227,0.01845
5743.80352,0.01901
5741.87478,0.01956
5739.94603,0.02023
5738.01729,0.02103
5736.08854,0.02164
5734.15980,0.02103
5732.23105,0.01965
5730.30231,0.01876
5728.37356,0.01812
5726.44482,0.01765
5724.51607,0.01777
5722.58733,0.01800
5720.65858,0.01790
5718.72984,0.01778
5716.80109,0.01860
5714.87235,0.01984
5712.94360,0.01998
5711.01485,0.01886
5709.08611,0.01777
5707.15736,0.01763
5705.22862,0.01793
5703.29987,0.01859
5701.37113,0.01961
5699.44238,0.01921
5697.51364,0.01726
5695.58489,0.01616
5693.65615,0.01679
5691.72740,0.01783
5689.79866,0.01879
5687.86991,0.01998
5685.94117,0.02082
5684.01242,0.02120
5682.08368,0.02128
5680.15493,0.02028
5678.22618,0.01865
5676.29744,0.01804
5674.36869,0.01814
5672.43995,0.01802
5670.51120,0.01819
5668.58246,0.01858
5666.65371,0.01879
5664.72497,0.01892
5662.79622,0.01855
5660.86748,0.01804
5658.93873,0.01874
5657.00999,0.01986
5655.08124,0.01996
5653.15250,0.01976
5651.22375,0.02007
5649.29500,0.02006
5647.36626,0.01909
5645.43751,0.01833
5643.50877,0.01871
5641.58002,0.01913
5639.65128,0.01904
5637.72253,0.01920
5635.79379,0.01996
5633.86504,0.02068
5631.93630,0.02061
5630.00755,0.01961
5628.07881,0.01845
5626.15006,0.01818
5624.22132,0.01866
5622.29257,0.01852
5620.36383,0.01803
5618.43508,0.01809
5616.50633,0.01836
5614.57759,0.01840
5612.64884,0.01872
5610.72010,0.01925
5608.79135,0.01966
5606.86261,0.02023
5604.93386,0.02104
5603.00512,0.02154
5601.07637,0.02146
5599.14763,0.02086
5597.21888,0.01969
5595.29014,0.01847
5593.36139,0.01788
5591.43265,0.01767
5589.50390,0.01777
5587.57516,0.01807
5585.64641,0.01846
5583.71766,0.01924
5581.78892,0.02040
5579.86017,0.02096
5577.93143,0.02001
5576.00268,0.01877
5574.07394,0.01863
5572.14519,0.01892
5570.21645,0.01891
5568.28770,0.01855
5566.35896,0.01808
5564.43021,0.01807
5562.50147,0.01861
5560.57272,0.01881
5558.64398,0.01837
5556.71523,0.01797
5554.78648,0.01784
5552.85774,0.01817
5550.92899,0.01915
5549.00025,0.01996
5547.07150,0.02025
5545.14276,0.02048
5543.21401,0.02029
5541.28527,0.01906
5539.35652,0.01787
5537.42778,0.01808
5535.49903,0.01869
5533.57029,0.01836
5531.64154,0.01823
5529.71280,0.01885
5527.78405,0.01882
5525.85531,0.01790
5523.92656,0.01753
5521.99781,0.01819
5520.06907,0.01888
5518.14032,0.01846
5516.21158,0.01757
5514.28283,0.01764
5512.35409,0.01840
5510.42534,0.01875
5508.49660,0.01882
5506.56785,0.01936
5504.63911,0.02014
5502.71036,0.02038
5500.78162,0.01985
5498.85287,0.01887
5496.92413,0.01826
5494.99538,0.01848
5493.06664,0.01884
5491.13789,0.01873
5489.20914,0.01837
5487.28040,0.01819
5485.35165,0.01850
5483.42291,0.01907
5481.49416,0.01948
5479.56542,0.01989
5477.63667,0.02041
5475.70793,0.02064
5473.77918,0.02063
5471.85044,0.02024
5469.92169,0.01903
5467.99295,0.01788
5466.06420,0.01807
5464.13546,0.01903
5462.20671,0.01927
5460.27796,0.01881
5458.34922,0.01871
5456.42047,0.01903
5454.49173,0.01968
5452.56298,0.02019
5450.63424,0.01982
5448.70549,0.01915
5446.77675,0.01926
5444.84800,0.01972
5442.91926,0.01979
5440.99051,0.01958
5439.06177,0.01921
5437.13302,0.01887
5435.20428,0.01881
5433.27553,0.01870
5431.34679,0.01872
5429.41804,0.01936
5427.48929,0.02036
5425.56055,0.02075
5423.63180,0.02034
5421.70306,0.01989
5419.77431,0.01975
5417.84557,0.01942
5415.91682,0.01880
5413.98808,0.01870
5412.05933,0.01963
5410.13059,0.02056
5408.20184,0.02034
5406.27310,0.01942
5404.34435,0.01866
5402.41561,0.01801
5400.48686,0.01757
5398.55811,0.01767
5396.62937,0.01807
5394.70062,0.01828
5392.77188,0.01829
5390.84313,0.01845
5388.91439,0.01859
5386.98564,0.01859
5385.05690,0.01879
5383.12815,0.01911
5381.19941,0.01953
5379.27066,0.01995
5377.34192,0.01978
5375.41317,0.01941
5373.48443,0.01950
5371.55568,0.01957
5369.62694,0.01958
5367.69819,0.01952
5365.76944,0.01923
5363.84070,0.01945
5361.91195,0.01990
5359.98321,0.01972
5358.05446,0.01965
5356.12572,0.02028
5354.19697,0.02099
5352.26823,0.02106
5350.33948,0.02046
5348.41074,0.01978
5346.48199,0.01917
5344.55325,0.01862
5342.62450,0.01853
5340.69576,0.01885
5338.76701,0.01923
5336.83827,0.01953
5334.90952,0.01957
5332.98077,0.01901
5331.05203,0.01794
5329.12328,0.01744
5327.19454,0.01803
5325.26579,0.01864
5323.33705,0.01854
5321.40830,0.01838
5319.47956,0.01858
5317.55081,0.01887
5315.62207,0.01933
5313.69332,0.01983
5311.76458,0.01988
5309.83583,0.01953
5307.90709,0.01907
5305.97834,0.01893
5304.04959,0.01940
5302.12085,0.01945
5300.19210,0.01839
5298.26336,0.01755
5296.33461,0.01799
5294.40587,0.01877
5292.47712,0.01895
5290.54838,0.01873
5288.61963,0.01853
5286.69089,0.01841
5284.76214,0.01863
5282.83340,0.01938
5280.90465,0.01999
5278.97591,0.01987
5277.04716,0.01931
5275.11842,0.01908
5273.18967,0.01977
5271.26092,0.02070
5269.33218,0.02061
5267.40343,0.01924
5265.47469,0.01778
5263.54594,0.01713
5261.61720,0.01706
5259.68845,0.01746
5257.75971,0.01828
5255.83096,0.01860
5253.90222,0.01838
5251.97347,0.01854
5250.04473,0.01903
5248.11598,0.01916
5246.18724,0.01894
5244.25849,0.01880
5242.32975,0.01891
5240.40100,0.01912
5238.47225,0.01925
5236.54351,0.01910
5234.61476,0.01864
5232.68602,0.01825
5230.75727,0.01819
5228.82853,0.01846
5226.89978,0.01890
5224.97104,0.01889
5223.04229,0.01864
5221.11355,0.01922
5219.18480,0.02028
5217.25606,0.02023
5215.32731,0.01943
5213.39857,0.01915
5211.46982,0.01913
5209.54107,0.01902
5207.61233,0.01936
5205.68358,0.02020
5203.75484,0.02101
5201.82609,0.02137
5199.89735,0.02092
5197.96860,0.01962
5196.03986,0.01859
5194.11111,0.01836
5192.18237,0.01816
5190.25362,0.01779
5188.32488,0.01796
5186.39613,0.01859
5184.46739,0.01887
5182.53864,0.01868
5180.60990,0.01857
5178.68115,0.01910
5176.75240,0.02028
5174.82366,0.02104
5172.89491,0.02056
5170.96617,0.01967
5169.03742,0.01949
5167.10868,0.01997
5165.17993,0.02019
5163.25119,0.01959
5161.32244,0.01874
5159.39370,0.01848
5157.46495,0.01876
5155.53621,0.01912
5153.60746,0.01927
5151.67872,0.01932
5149.74997,0.01939
5147.82123,0.01949
5145.89248,0.01978
5143.96373,0.02008
5142.03499,0.02012
5140.10624,0.02009
5138.17750,0.02002
5136.24875,0.01977
5134.32001,0.01934
5132.39126,0.01916
5130.46252,0.01950
5128.53377,0.01985
5126.60503,0.02002
5124.67628,0.02024
5122.74754,0.02057
5120.81879,0.02087
5118.89005,0.02096
5116.96130,0.02090
5115.03255,0.02059
5113.10381,0.01991
5111.17506,0.01918
5109.24632,0.01878
5107.31757,0.01890
5105.38883,0.01944
5103.46008,0.01974
5101.53134,0.01914
5099.60259,0.01847
5097.67385,0.01911
5095.74510,0.02027
5093.81636,0.02002
5091.88761,0.01864
5089.95887,0.01791
5088.03012,0.01824
5086.10138,0.01907
5084.17263,0.01979
5082.24388,0.01961
5080.31514,0.01870
5078.38639,0.01776
5076.45765,0.01737
5074.52890,0.01827
5072.60016,0.01976
5070.67141,0.02020
5068.74267,0.01963
5066.81392,0.01898
5064.88518,0.01835
5062.95643,0.01789
5061.02769,0.01823
5059.09894,0.01899
5057.17020,0.01914
5055.24145,0.01850
5053.31270,0.01794
5051.38396,0.01839
5049.45521,0.01946
5047.52647,0.02001
5045.59772,0.01988
5043.66898,0.01958
5041.74023,0.01958
5039.81149,0.02002
5037.88274,0.02058
5035.95400,0.02061
5034.02525,0.01985
5032.09651,0.01881
5030.16776,0.01837
5028.23902,0.01878
5026.31027,0.01951
5024.38153,0.02016
5022.45278,0.02048
5020.52403,0.02044
5018.59529,0.02025
5016.66654,0.01974
5014.73780,0.01903
5012.80905,0.01890
5010.88031,0.01938
5008.95156,0.01962
5007.02282,0.01942
5005.09407,0.01927
5003.16533,0.01917
5001.23658,0.01900
4999.30784,0.01901
4997.37909,0.01889
4995.45035,0.01847
4993.52160,0.01842
4991.59286,0.01898
4989.66411,0.01968
4987.73536,0.02001
4985.80662,0.01991
4983.87787,0.01958
4981.94913,0.01920
4980.02038,0.01908
4978.09164,0.01910
4976.16289,0.01871
4974.23415,0.01796
4972.30540,0.01754
4970.37666,0.01764
4968.44791,0.01814
4966.51917,0.01885
4964.59042,0.01915
4962.66168,0.01886
4960.73293,0.01835
4958.80418,0.01785
4956.87544,0.01766
4954.94669,0.01798
4953.01795,0.01844
4951.08920,0.01846
4949.16046,0.01828
4947.23171,0.01846
4945.30297,0.01902
4943.37422,0.01967
4941.44548,0.01998
4939.51673,0.01987
4937.58799,0.01946
4935.65924,0.01888
4933.73050,0.01866
4931.80175,0.01892
4929.87301,0.01917
4927.94426,0.01887
4926.01551,0.01810
4924.08677,0.01794
4922.15802,0.01870
4920.22928,0.01949
4918.30053,0.01974
4916.37179,0.01957
4914.44304,0.01938
4912.51430,0.01950
4910.58555,0.01989
4908.65681,0.02016
4906.72806,0.01996
4904.79932,0.01948
4902.87057,0.01904
4900.94183,0.01865
4899.01308,0.01868
4897.08434,0.01924
4895.15559,0.01965
4893.22684,0.01965
4891.29810,0.01953
4889.36935,0.01925
4887.44061,0.01877
4885.51186,0.01823
4883.58312,0.01777
4881.65437,0.01776
4879.72563,0.01855
4877.79688,0.01915
4875.86814,0.01874
4873.93939,0.01834
4872.01065,0.01880
4870.08190,0.01941
4868.15316,0.01961
4866.22441,0.01978
4864.29566,0.02002
4862.36692,0.02005
4860.43817,0.01983
4858.50943,0.01926
4856.58068,0.01875
4854.65194,0.01889
4852.72319,0.01936
4850.79445,0.01949
4848.86570,0.01948
4846.93696,0.01983
4845.00821,0.02011
4843.07947,0.01985
4841.15072,0.01967
4839.22198,0.01993
4837.29323,0.02017
4835.36449,0.02027
4833.43574,0.02005
4831.50699,0.01946
4829.57825,0.01906
4827.64950,0.01902
4825.72076,0.01915
4823.79201,0.01918
4821.86327,0.01902
4819.93452,0.01910
4818.00578,0.01952
4816.07703,0.01972
4814.14829,0.01947
4812.21954,0.01911
4810.29080,0.01881
4808.36205,0.01861
4806.43331,0.01873
4804.50456,0.01917
4802.57582,0.01950
4800.64707,0.01937
4798.71832,0.01919
4796.78958,0.01933
4794.86083,0.01926
4792.93209,0.01880
4791.00334,0.01849
4789.07460,0.01834
4787.14585,0.01807
4785.21711,0.01799
4783.28836,0.01850
4781.35962,0.01932
4779.43087,0.01967
4777.50213,0.01927
4775.57338,0.01889
4773.64464,0.01873
4771.71589,0.01856
4769.78714,0.01872
4767.85840,0.01924
4765.92965,0.01946
4764.00091,0.01935
4762.07216,0.01957
4760.14342,0.02006
4758.21467,0.02027
4756.28593,0.02017
4754.35718,0.02010
4752.42844,0.01999
4750.49969,0.01957
4748.57095,0.01918
4746.64220,0.01910
4744.71346,0.01918
4742.78471,0.01926
4740.85597,0.01929
4738.92722,0.01938
4736.99847,0.01932
4735.06973,0.01900
4733.14098,0.01890
4731.21224,0.01914
4729.28349,0.01917
4727.35475,0.01897
4725.42600,0.01907
4723.49726,0.01937
4721.56851,0.01946
4719.63977,0.01931
4717.71102,0.01909
4715.78228,0.01900
4713.85353,0.01909
4711.92479,0.01909
4709.99604,0.01918
4708.06729,0.01949
4706.13855,0.01960
4704.20980,0.01940
4702.28106,0.01927
4700.35231,0.01937
4698.42357,0.01942
4696.49482,0.01927
4694.56608,0.01924
4692.63733,0.01936
4690.70859,0.01940
4688.77984,0.01933
4686.85110,0.01909
4684.92235,0.01887
4682.99361,0.01913
4681.06486,0.01985
4679.13612,0.02040
4677.20737,0.02027
4675.27862,0.01973
4673.34988,0.01949
4671.42113,0.01964
4669.49239,0.01957
4667.56364,0.01923
4665.63490,0.01888
4663.70615,0.01861
4661.77741,0.01875
4659.84866,0.01913
4657.91992,0.01935
4655.99117,0.01970
4654.06243,0.02008
4652.13368,0.01977
4650.20494,0.01900
4648.27619,0.01875
4646.34745,0.01905
4644.41870,0.01917
4642.48995,0.01890
4640.56121,0.01888
4638.63246,0.01937
4636.70372,0.01979
4634.77497,0.01955
4632.84623,0.01892
4630.91748,0.01867
4628.98874,0.01906
4627.05999,0.01956
4625.13125,0.01983
4623.20250,0.01986
4621.27376,0.01964
4619.34501,0.01924
4617.41627,0.01891
4615.48752,0.01901
4613.55877,0.01948
4611.63003,0.01982
4609.70128,0.01994
4607.77254,0.02015
4605.84379,0.02006
4603.91505,0.01940
4601.98630,0.01890
4600.05756,0.01892
4598.12881,0.01916
4596.20007,0.01941
4594.27132,0.01951
4592.34258,0.01937
4590.41383,0.01918
4588.48509,0.01904
4586.55634,0.01883
4584.62760,0.01850
4582.69885,0.01825
4580.77010,0.01834
4578.84136,0.01879
4576.91261,0.01913
4574.98387,0.01916
4573.05512,0.01914
4571.12638,0.01908
4569.19763,0.01913
4567.26889,0.01953
4565.34014,0.01964
4563.41140,0.01915
4561.48265,0.01893
4559.55391,0.01930
4557.62516,0.01964
4555.69642,0.01956
4553.76767,0.01928
4551.83893,0.01921
4549.91018,0.01937
4547.98143,0.01940
4546.05269,0.01926
4544.12394,0.01914
4542.19520,0.01913
4540.26645,0.01914
4538.33771,0.01917
4536.40896,0.01916
4534.48022,0.01897
4532.55147,0.01871
4530.62273,0.01869
4528.69398,0.01901
4526.76524,0.01938
4524.83649,0.01953
4522.90775,0.01948
4520.97900,0.01927
4519.05025,0.01901
4517.12151,0.01903
4515.19276,0.01943
4513.26402,0.01985
4511.33527,0.02000
4509.40653,0.01989
4507.47778,0.01955
4505.54904,0.01908
4503.62029,0.01873
4501.69155,0.01866
4499.76280,0.01882
4497.83406,0.01909
4495.90531,0.01928
4493.97657,0.01917
4492.04782,0.01881
4490.11908,0.01870
4488.19033,0.01931
4486.26158,0.02021
4484.33284,0.02029
4482.40409,0.01959
4480.47535,0.01908
4478.54660,0.01902
4476.61786,0.01903
4474.68911,0.01899
4472.76037,0.01894
4470.83162,0.01891
4468.90288,0.01900
4466.97413,0.01928
4465.04539,0.01957
4463.11664,0.01961
4461.18790,0.01967
4459.25915,0.01993
4457.33041,0.01989
4455.40166,0.01942
4453.47291,0.01900
4451.54417,0.01876
4449.61542,0.01871
4447.68668,0.01897
4445.75793,0.01949
4443.82919,0.02002
4441.90044,0.02028
4439.97170,0.02018
4438.04295,0.01971
4436.11421,0.01928
4434.18546,0.01935
4432.25672,0.01988
4430.32797,0.02029
4428.39923,0.01993
4426.47048,0.01921
4424.54173,0.01914
4422.61299,0.01953
4420.68424,0.01967
4418.75550,0.01955
4416.82675,0.01935
4414.89801,0.01932
4412.96926,0.01954
4411.04052,0.01964
4409.11177,0.01966
4407.18303,0.01984
4405.25428,0.01983
4403.32554,0.01953
4401.39679,0.01939
4399.46805,0.01946
4397.53930,0.01952
4395.61056,0.01957
4393.68181,0.01964
4391.75306,0.01957
4389.82432,0.01940
4387.89557,0.01935
4385.96683,0.01931
4384.03808,0.01911
4382.10934,0.01896
4380.18059,0.01911
4378.25185,0.01931
4376.32310,0.01938
4374.39436,0.01956
4372.46561,0.01981
4370.53687,0.01992
4368.60812,0.02003
4366.67938,0.02008
4364.75063,0.01974
4362.82189,0.01918
4360.89314,0.01885
4358.96439,0.01882
4357.03565,0.01898
4355.10690,0.01916
4353.17816,0.01924
4351.24941,0.01935
4349.32067,0.01942
4347.39192,0.01918
4345.46318,0.01898
4343.53443,0.01922
4341.60569,0.01944
4339.67694,0.01930
4337.74820,0.01926
4335.81945,0.01957
4333.89071,0.01974
4331.96196,0.01961
4330.03321,0.01945
4328.10447,0.01928
4326.17572,0.01910
4324.24698,0.01898
4322.31823,0.01888
4320.38949,0.01891
4318.46074,0.01920
4316.53200,0.01952
4314.60325,0.01966
4312.67451,0.01957
4310.74576,0.01946
4308.81702,0.01957
4306.88827,0.01981
4304.95953,0.02005
4303.03078,0.02024
4301.10204,0.02034
4299.17329,0.02018
4297.24454,0.01976
4295.31580,0.01967
4293.38705,0.01993
4291.45831,0.01993
4289.52956,0.01975
4287.60082,0.01968
4285.67207,0.01960
4283.74333,0.01939
4281.81458,0.01921
4279.88584,0.01929
4277.95709,0.01942
4276.02835,0.01946
4274.09960,0.01963
4272.17086,0.01984
4270.24211,0.01978
4268.31336,0.01953
4266.38462,0.01933
4264.45587,0.01941
4262.52713,0.01978
4260.59838,0.02000
4258.66964,0.01970
4256.74089,0.01934
4254.81215,0.01945
4252.88340,0.01985
4250.95466,0.02019
4249.02591,0.02013
4247.09717,0.01942
4245.16842,0.01871
4243.23968,0.01872
4241.31093,0.01922
4239.38219,0.01969
4237.45344,0.01987
4235.52469,0.01968
4233.59595,0.01936
4231.66720,0.01921
4229.73846,0.01919
4227.80971,0.01919
4225.88097,0.01911
4223.95222,0.01903
4222.02348,0.01926
4220.09473,0.01974
4218.16599,0.01984
4216.23724,0.01951
4214.30850,0.01928
4212.37975,0.01933
4210.45101,0.01940
4208.52226,0.01940
4206.59352,0.01937
4204.66477,0.01931
4202.73602,0.01917
4200.80728,0.01905
4198.87853,0.01904
4196.94979,0.01907
4195.02104,0.01914
4193.09230,0.01932
4191.16355,0.01962
4189.23481,0.01986
4187.30606,0.01974
4185.37732,0.01933
4183.44857,0.01910
4181.51983,0.01915
4179.59108,0.01931
4177.66234,0.01943
4175.73359,0.01928
4173.80484,0.01883
4171.87610,0.01834
4169.94735,0.01823
4168.01861,0.01859
4166.08986,0.01912
4164.16112,0.01962
4162.23237,0.01983
4160.30363,0.01961
4158.37488,0.01939
4156.44614,0.01938
4154.51739,0.01929
4152.58865,0.01895
4150.65990,0.01845
4148.73116,0.01815
4146.80241,0.01831
4144.87367,0.01871
4142.94492,0.01911
4141.01617,0.01946
4139.08743,0.01960
4137.15868,0.01949
4135.22994,0.01935
4133.30119,0.01939
4131.37245,0.01955
4129.44370,0.01955
4127.51496,0.01948
4125.58621,0.01956
4123.65747,0.01968
4121.72872,0.01960
4119.79998,0.01928
4117.87123,0.01888
4115.94249,0.01884
4114.01374,0.01898
4112.08500,0.01893
4110.15625,0.01880
4108.22750,0.01888
4106.29876,0.01915
4104.37001,0.01950
4102.44127,0.01978
4100.51252,0.01980
4098.58378,0.01945
4096.65503,0.01913
4094.72629,0.01925
4092.79754,0.01958
4090.86880,0.01972
4088.94005,0.01977
4087.01131,0.01990
4085.08256,0.01991
4083.15382,0.01968
4081.22507,0.01952
4079.29632,0.01955
4077.36758,0.01952
4075.43883,0.01929
4073.51009,0.01904
4071.58134,0.01896
4069.65260,0.01904
4067.72385,0.01921
4065.79511,0.01939
4063.86636,0.01949
4061.93762,0.01940
4060.00887,0.01926
4058.08013,0.01922
4056.15138,0.01913
4054.22264,0.01906
4052.29389,0.01922
4050.36515,0.01937
4048.43640,0.01929
4046.50765,0.01937
4044.57891,0.01956
4042.65016,0.01937
4040.72142,0.01908
4038.79267,0.01917
4036.86393,0.01927
4034.93518,0.01913
4033.00644,0.01909
4031.07769,0.01925
4029.14895,0.01949
4027.22020,0.01977
4025.29146,0.01998
4023.36271,0.02010
4021.43397,0.02015
4019.50522,0.02018
4017.57648,0.02031
4015.64773,0.02039
4013.71898,0.02027
4011.79024,0.02012
4009.86149,0.02010
4007.93275,0.02010
4006.00400,0.01997
4004.07526,0.01983
4002.14651,0.01987
4000.21777,0.01990
3998.28902,0.01985
3996.36028,0.01972
3994.43153,0.01951
3992.50279,0.01949
3990.57404,0.01951
3988.64530,0.01937
3986.71655,0.01940
3984.78780,0.01969
3982.85906,0.01978
3980.93031,0.01962
3979.00157,0.01971
3977.07282,0.02002
3975.14408,0.02001
3973.21533,0.01970
3971.28659,0.01953
3969.35784,0.01948
3967.42910,0.01934
3965.50035,0.01923
3963.57161,0.01932
3961.64286,0.01954
3959.71412,0.01966
3957.78537,0.01975
3955.85663,0.01994
3953.92788,0.01995
3951.99913,0.01966
3950.07039,0.01932
3948.14164,0.01910
3946.21290,0.01897
3944.28415,0.01901
3942.35541,0.01933
3940.42666,0.01965
3938.49792,0.01962
3936.56917,0.01944
3934.64043,0.01939
3932.71168,0.01946
3930.78294,0.01955
3928.85419,0.01962
3926.92545,0.01977
3924.99670,0.01994
3923.06795,0.01992
3921.13921,0.01985
3919.21046,0.01987
3917.28172,0.01967
3915.35297,0.01921
3913.42423,0.01893
3911.49548,0.01880
3909.56674,0.01883
3907.63799,0.01924
3905.70925,0.01976
3903.78050,0.02000
3901.85176,0.02000
3899.92301,0.01987
3897.99427,0.01977
3896.06552,0.01983
3894.13678,0.01997
3892.20803,0.02008
3890.27928,0.02010
3888.35054,0.02001
3886.42179,0.01979
3884.49305,0.01964
3882.56430,0.01969
3880.63556,0.01963
3878.70681,0.01925
3876.77807,0.01889
3874.84932,0.01892
3872.92058,0.01919
3870.99183,0.01918
3869.06309,0.01895
3867.13434,0.01905
3865.20560,0.01935
3863.27685,0.01957
3861.34811,0.01987
3859.41936,0.02017
3857.49061,0.02030
3855.56187,0.02022
3853.63312,0.02001
3851.70438,0.01991
3849.77563,0.01987
3847.84689,0.01980
3845.91814,0.01975
3843.98940,0.01975
3842.06065,0.01976
3840.13191,0.01974
3838.20316,0.01969
3836.27442,0.01956
3834.34567,0.01934
3832.41693,0.01924
3830.48818,0.01925
3828.55943,0.01920
3826.63069,0.01932
3824.70194,0.01969
3822.77320,0.01979
3820.84445,0.01960
3818.91571,0.01970
3816.98696,0.01993
3815.05822,0.01995
3813.12947,0.01989
3811.20073,0.01987
3809.27198,0.01982
3807.34324,0.01968
3805.41449,0.01951
3803.48575,0.01944
3801.55700,0.01949
3799.62826,0.01965
3797.69951,0.01989
3795.77076,0.01996
3793.84202,0.01977
3791.91327,0.01962
3789.98453,0.01959
3788.05578,0.01954
3786.12704,0.01951
3784.19829,0.01971
3782.26955,0.01996
3780.34080,0.01984
3778.41206,0.01961
3776.48331,0.01967
3774.55457,0.01979
3772.62582,0.01979
3770.69708,0.01962
3768.76833,0.01937
3766.83959,0.01933
3764.91084,0.01948
3762.98209,0.01967
3761.05335,0.01983
3759.12460,0.01981
3757.19586,0.01971
3755.26711,0.01981
3753.33837,0.02012
3751.40962,0.02016
3749.48088,0.01985
3747.55213,0.01973
3745.62339,0.01971
3743.69464,0.01952
3741.76590,0.01942
3739.83715,0.01947
3737.90841,0.01961
3735.97966,0.01967
3734.05091,0.01942
3732.12217,0.01914
3730.19342,0.01919
3728.26468,0.01950
3726.33593,0.01971
3724.40719,0.01969
3722.47844,0.01961
3720.54970,0.01942
3718.62095,0.01915
3716.69221,0.01908
3714.76346,0.01912
3712.83472,0.01910
3710.90597,0.01917
3708.97723,0.01939
3707.04848,0.01948
3705.11974,0.01924
3703.19099,0.01891
3701.26224,0.01879
3699.33350,0.01888
3697.40475,0.01915
3695.47601,0.01944
3693.54726,0.01955
3691.61852,0.01957
3689.68977,0.01945
3687.76103,0.01914
3685.83228,0.01900
3683.90354,0.01919
3681.97479,0.01938
3680.04605,0.01938
3678.11730,0.01928
3676.18856,0.01939
3674.25981,0.01977
3672.33107,0.02007
3670.40232,0.02008
3668.47357,0.01981
3666.54483,0.01943
3664.61608,0.01908
3662.68734,0.01887
3660.75859,0.01885
3658.82985,0.01902
3656.90110,0.01925
3654.97236,0.01946
3653.04361,0.01959
3651.11487,0.01949
3649.18612,0.01918
3647.25738,0.01904
3645.32863,0.01910
3643.39989,0.01913
3641.47114,0.01909
3639.54239,0.01913
3637.61365,0.01925
3635.68490,0.01920
3633.75616,0.01890
3631.82741,0.01876
3629.89867,0.01890
3627.96992,0.01898
3626.04118,0.01890
3624.11243,0.01891
3622.18369,0.01915
3620.25494,0.01941
3618.32620,0.01939
3616.39745,0.01910
3614.46871,0.01881
3612.53996,0.01884
3610.61122,0.01904
3608.68247,0.01893
3606.75372,0.01874
3604.82498,0.01888
3602.89623,0.01915
3600.96749,0.01925
3599.03874,0.01922
3597.11000,0.01927
3595.18125,0.01952
3593.25251,0.01957
3591.32376,0.01921
3589.39502,0.01879
3587.46627,0.01842
3585.53753,0.01811
3583.60878,0.01809
3581.68004,0.01836
3579.75129,0.01867
3577.82254,0.01880
3575.89380,0.01870
3573.96505,0.01842
3572.03631,0.01815
3570.10756,0.01813
3568.17882,0.01840
3566.25007,0.01863
3564.32133,0.01880
3562.39258,0.01892
3560.46384,0.01868
3558.53509,0.01815
3556.60635,0.01805
3554.67760,0.01861
3552.74886,0.01914
3550.82011,0.01893
3548.89137,0.01836
3546.96262,0.01812
3545.03387,0.01813
3543.10513,0.01803
3541.17638,0.01789
3539.24764,0.01801
3537.31889,0.01840
3535.39015,0.01855
3533.46140,0.01823
3531.53266,0.01783
3529.60391,0.01779
3527.67517,0.01810
3525.74642,0.01832
3523.81768,0.01831
3521.88893,0.01842
3519.96019,0.01846
3518.03144,0.01808
3516.10270,0.01770
3514.17395,0.01772
3512.24520,0.01789
3510.31646,0.01798
3508.38771,0.01797
3506.45897,0.01785
3504.53022,0.01783
3502.60148,0.01807
3500.67273,0.01842
3498.74399,0.01869
3496.81524,0.01871
3494.88650,0.01833
3492.95775,0.01778
3491.02901,0.01748
3489.10026,0.01742
3487.17152,0.01736
3485.24277,0.01729
3483.31402,0.01733
3481.38528,0.01746
3479.45653,0.01747
3477.52779,0.01742
3475.59904,0.01758
3473.67030,0.01789
3471.74155,0.01798
3469.81281,0.01781
3467.88406,0.01757
3465.95532,0.01743
3464.02657,0.01762
3462.09783,0.01810
3460.16908,0.01832
3458.24034,0.01824
3456.31159,0.01826
3454.38285,0.01824
3452.45410,0.01783
3450.52535,0.01737
3448.59661,0.01723
3446.66786,0.01747
3444.73912,0.01774
3442.81037,0.01744
3440.88163,0.01690
3438.95288,0.01691
3437.02414,0.01746
3435.09539,0.01812
3433.16665,0.01841
3431.23790,0.01810
3429.30916,0.01764
3427.38041,0.01768
3425.45167,0.01820
3423.52292,0.01847
3421.59418,0.01806
3419.66543,0.01745
3417.73668,0.01723
3415.80794,0.01745
3413.87919,0.01753
3411.95045,0.01706
3410.02170,0.01656
3408.09296,0.01672
3406.16421,0.01720
3404.23547,0.01739
3402.30672,0.01730
3400.37798,0.01723
3398.44923,0.01741
3396.52049,0.01773
3394.59174,0.01749
3392.66300,0.01679
3390.73425,0.01654
3388.80550,0.01684
3386.87676,0.01718
3384.94801,0.01725
3383.01927,0.01716
3381.09052,0.01723
3379.16178,0.01740
3377.23303,0.01729
3375.30429,0.01687
3373.37554,0.01652
3371.44680,0.01648
3369.51805,0.01647
3367.58931,0.01649
3365.66056,0.01695
3363.73182,0.01768
3361.80307,0.01792
3359.87433,0.01753
3357.94558,0.01693
3356.01683,0.01657
3354.08809,0.01660
3352.15934,0.01676
3350.23060,0.01687
3348.30185,0.01705
3346.37311,0.01734
3344.44436,0.01754
3342.51562,0.01739
3340.58687,0.01713
3338.65813,0.01710
3336.72938,0.01719
3334.80064,0.01720
3332.87189,0.01700
3330.94315,0.01659
3329.01440,0.01645
3327.08566,0.01678
3325.15691,0.01714
3323.22816,0.01717
3321.29942,0.01699
3319.37067,0.01693
3317.44193,0.01713
3315.51318,0.01739
3313.58444,0.01740
3311.65569,0.01714
3309.72695,0.01708
3307.79820,0.01736
3305.86946,0.01745
3303.94071,0.01706
3302.01197,0.01650
3300.08322,0.01639
3298.15448,0.01682
3296.22573,0.01722
3294.29698,0.01721
3292.36824,0.01691
3290.43949,0.01683
3288.51075,0.01694
3286.58200,0.01692
3284.65326,0.01728
3282.72451,0.01797
3280.79577,0.01809
3278.86702,0.01771
3276.93828,0.01741
3275.00953,0.01700
3273.08079,0.01644
3271.15204,0.01641
3269.22330,0.01698
3267.29455,0.01774
3265.36581,0.01824
3263.43706,0.01803
3261.50831,0.01760
3259.57957,0.01731
3257.65082,0.01670
3255.72208,0.01619
3253.79333,0.01624
3251.86459,0.01644
3249.93584,0.01674
3248.00710,0.01730
3246.07835,0.01768
3244.14961,0.01777
3242.22086,0.01800
3240.29212,0.01843
3238.36337,0.01847
3236.43463,0.01782
3234.50588,0.01711
3232.57713,0.01691
3230.64839,0.01700
3228.71964,0.01714
3226.79090,0.01746
3224.86215,0.01795
3222.93341,0.01813
3221.00466,0.01789
3219.07592,0.01757
3217.14717,0.01755
3215.21843,0.01786
3213.28968,0.01804
3211.36094,0.01793
3209.43219,0.01784
3207.50345,0.01769
3205.57470,0.01743
3203.64596,0.01749
3201.71721,0.01808
3199.78846,0.01863
3197.85972,0.01857
3195.93097,0.01820
3194.00223,0.01807
3192.07348,0.01811
3190.14474,0.01795
3188.21599,0.01746
3186.28725,0.01690
3184.35850,0.01677
3182.42976,0.01692
3180.50101,0.01689
3178.57227,0.01696
3176.64352,0.01731
3174.71478,0.01748
3172.78603,0.01720
3170.85729,0.01705
3168.92854,0.01741
3166.99979,0.01785
3165.07105,0.01784
3163.14230,0.01738
3161.21356,0.01713
3159.28481,0.01730
3157.35607,0.01750
3155.42732,0.01764
3153.49858,0.01776
3151.56983,0.01774
3149.64109,0.01749
3147.71234,0.01729
3145.78360,0.01751
3143.85485,0.01784
3141.92611,0.01781
3139.99736,0.01773
3138.06861,0.01799
3136.13987,0.01834
3134.21112,0.01823
3132.28238,0.01775
3130.35363,0.01756
3128.42489,0.01764
3126.49614,0.01761
3124.56740,0.01763
3122.63865,0.01778
3120.70991,0.01772
3118.78116,0.01742
3116.85242,0.01737
3114.92367,0.01769
3112.99493,0.01787
3111.06618,0.01776
3109.13744,0.01780
3107.20869,0.01813
3105.27994,0.01832
3103.35120,0.01818
3101.42245,0.01795
3099.49371,0.01775
3097.56496,0.01760
3095.63622,0.01766
3093.70747,0.01787
3091.77873,0.01784
3089.84998,0.01748
3087.92124,0.01718
3085.99249,0.01716
3084.06375,0.01719
3082.13500,0.01722
3080.20626,0.01748
3078.27751,0.01782
3076.34877,0.01788
3074.42002,0.01769
3072.49127,0.01758
3070.56253,0.01761
3068.63378,0.01765
3066.70504,0.01762
3064.77629,0.01759
3062.84755,0.01762
3060.91880,0.01764
3058.99006,0.01766
3057.06131,0.01780
3055.13257,0.01797
3053.20382,0.01795
3051.27508,0.01778
3049.34633,0.01766
3047.41759,0.01758
3045.48884,0.01746
3043.56009,0.01751
3041.63135,0.01761
3039.70260,0.01746
3037.77386,0.01719
3035.84511,0.01715
3033.91637,0.01726
3031.98762,0.01736
3030.05888,0.01745
3028.13013,0.01752
3026.20139,0.01740
3024.27264,0.01720
3022.34390,0.01726
3020.41515,0.01748
3018.48641,0.01755
3016.55766,0.01749
3014.62892,0.01732
3012.70017,0.01709
3010.77142,0.01702
3008.84268,0.01715
3006.91393,0.01717
3004.98519,0.01706
3003.05644,0.01706
3001.12770,0.01721
2999.19895,0.01733
2997.27021,0.01728
2995.34146,0.01707
2993.41272,0.01693
2991.48397,0.01693
2989.55523,0.01695
2987.62648,0.01706
2985.69774,0.01723
2983.76899,0.01716
2981.84025,0.01684
2979.91150,0.01656
2977.98275,0.01644
2976.05401,0.01625
2974.12526,0.01611
2972.19652,0.01618
2970.26777,0.01629
2968.33903,0.01632
2966.41028,0.01641
2964.48154,0.01660
2962.55279,0.01685
2960.62405,0.01709
2958.69530,0.01706
2956.76656,0.01669
2954.83781,0.01645
2952.90907,0.01655
2950.98032,0.01664
2949.05157,0.01651
2947.12283,0.01632
2945.19408,0.01617
2943.26534,0.01609
2941.33659,0.01613
2939.40785,0.01628
2937.47910,0.01641
2935.55036,0.01652
2933.62161,0.01672
2931.69287,0.01682
2929.76412,0.01670
2927.83538,0.01658
2925.90663,0.01655
2923.97789,0.01656
2922.04914,0.01675
2920.12040,0.01720
2918.19165,0.01760
2916.26290,0.01765
2914.33416,0.01747
2912.40541,0.01731
2910.47667,0.01728
2908.54792,0.01735
2906.61918,0.01746
2904.69043,0.01758
2902.76169,0.01762
2900.83294,0.01754
2898.90420,0.01748
2896.97545,0.01746
2895.04671,0.01745
2893.11796,0.01743
2891.18922,0.01734
2889.26047,0.01724
2887.33172,0.01736
2885.40298,0.01759
2883.47423,0.01766
2881.54549,0.01755
2879.61674,0.01737
2877.68800,0.01721
2875.75925,0.01711
2873.83051,0.01712
2871.90176,0.01726
2869.97302,0.01748
2868.04427,0.01767
2866.11553,0.01783
2864.18678,0.01789
2862.25804,0.01774
2860.32929,0.01746
2858.40055,0.01733
2856.47180,0.01739
2854.54305,0.01749
2852.61431,0.01763
2850.68556,0.01775
2848.75682,0.01776
2846.82807,0.01786
2844.89933,0.01812
2842.97058,0.01825
2841.04184,0.01815
2839.11309,0.01815
2837.18435,0.01836
2835.25560,0.01852
2833.32686,0.01849
2831.39811,0.01841
2829.46937,0.01841
2827.54062,0.01838
2825.61188,0.01825
2823.68313,0.01814
2821.75438,0.01813
2819.82564,0.01808
2817.89689,0.01801
2815.96815,0.01806
2814.03940,0.01818
2812.11066,0.01831
2810.18191,0.01845
2808.25317,0.01849
2806.32442,0.01842
2804.39568,0.01835
2802.46693,0.01842
2800.53819,0.01856
2798.60944,0.01858
2796.68070,0.01842
2794.75195,0.01821
2792.82320,0.01803
2790.89446,0.01793
2788.96571,0.01792
2787.03697,0.01801
2785.10822,0.01823
2783.17948,0.01845
2781.25073,0.01846
2779.32199,0.01836
2777.39324,0.01834
2775.46450,0.01842
2773.53575,0.01850
2771.60701,0.01855
2769.67826,0.01849
2767.74952,0.01828
2765.82077,0.01806
2763.89203,0.01797
2761.96328,0.01801
2760.03453,0.01809
2758.10579,0.01808
2756.17704,0.01804
2754.24830,0.01808
2752.31955,0.01805
2750.39081,0.01791
2748.46206,0.01789
2746.53332,0.01808
2744.60457,0.01827
2742.67583,0.01836
2740.74708,0.01839
2738.81834,0.01828
2736.88959,0.01815
2734.96085,0.01817
2733.03210,0.01824
2731.10336,0.01828
2729.17461,0.01832
2727.24586,0.01843
2725.31712,0.01857
2723.38837,0.01857
2721.45963,0.01840
2719.53088,0.01827
2717.60214,0.01829
2715.67339,0.01829
2713.74465,0.01829
2711.81590,0.01840
2709.88716,0.01845
2707.95841,0.01830
2706.02967,0.01822
2704.10092,0.01832
2702.17218,0.01827
2700.24343,0.01808
2698.31468,0.01806
2696.38594,0.01818
2694.45719,0.01825
2692.52845,0.01823
2690.59970,0.01816
2688.67096,0.01815
2686.74221,0.01827
2684.81347,0.01843
2682.88472,0.01852
2680.95598,0.01853
2679.02723,0.01836
2677.09849,0.01809
2675.16974,0.01805
2673.24100,0.01824
2671.31225,0.01826
2669.38351,0.01811
2667.45476,0.01807
2665.52601,0.01813
2663.59727,0.01821
2661.66852,0.01829
2659.73978,0.01825
2657.81103,0.01822
2655.88229,0.01834
2653.95354,0.01841
2652.02480,0.01829
2650.09605,0.01816
2648.16731,0.01826
2646.23856,0.01849
2644.30982,0.01856
2642.38107,0.01834
2640.45233,0.01802
2638.52358,0.01799
2636.59484,0.01835
2634.66609,0.01858
2632.73734,0.01836
2630.80860,0.01803
2628.87985,0.01797
2626.95111,0.01814
2625.02236,0.01829
2623.09362,0.01826
2621.16487,0.01810
2619.23613,0.01799
2617.30738,0.01795
2615.37864,0.01798
2613.44989,0.01803
2611.52115,0.01800
2609.59240,0.01808
2607.66366,0.01842
2605.73491,0.01881
2603.80616,0.01896
2601.87742,0.01880
2599.94867,0.01854
2598.01993,0.01843
2596.09118,0.01843
2594.16244,0.01836
2592.23369,0.01827
2590.30495,0.01828
2588.37620,0.01838
2586.44746,0.01845
2584.51871,0.01840
2582.58997,0.01816
2580.66122,0.01792
2578.73248,0.01798
2576.80373,0.01817
2574.87499,0.01822
2572.94624,0.01820
2571.01749,0.01827
2569.08875,0.01839
2567.16000,0.01846
2565.23126,0.01854
2563.30251,0.01877
2561.37377,0.01913
2559.44502,0.01924
2557.51628,0.01893
2555.58753,0.01850
2553.65879,0.01838
2551.73004,0.01847
2549.80130,0.01840
2547.87255,0.01821
2545.94381,0.01808
2544.01506,0.01806
2542.08631,0.01817
2540.15757,0.01824
2538.22882,0.01826
2536.30008,0.01824
2534.37133,0.01818
2532.44259,0.01812
2530.51384,0.01803
2528.58510,0.01792
2526.65635,0.01781
2524.72761,0.01772
2522.79886,0.01770
2520.87012,0.01779
2518.94137,0.01804
2517.01263,0.01834
2515.08388,0.01844
2513.15514,0.01836
2511.22639,0.01831
2509.29764,0.01833
2507.36890,0.01836
2505.44015,0.01840
2503.51141,0.01835
2501.58266,0.01824
2499.65392,0.01813
2497.72517,0.01799
2495.79643,0.01805
2493.86768,0.01831
2491.93894,0.01850
2490.01019,0.01850
2488.08145,0.01838
2486.15270,0.01820
2484.22396,0.01812
2482.29521,0.01813
2480.36647,0.01810
2478.43772,0.01798
2476.50897,0.01795
2474.58023,0.01805
2472.65148,0.01806
2470.72274,0.01804
2468.79399,0.01812
2466.86525,0.01821
2464.93650,0.01833
2463.00776,0.01845
2461.07901,0.01848
2459.15027,0.01848
2457.22152,0.01845
2455.29278,0.01833
2453.36403,0.01818
2451.43529,0.01804
2449.50654,0.01794
2447.57779,0.01796
2445.64905,0.01804
2443.72030,0.01812
2441.79156,0.01829
2439.86281,0.01850
2437.93407,0.01858
2436.00532,0.01859
2434.07658,0.01862
2432.14783,0.01863
2430.21909,0.01860
2428.29034,0.01851
2426.36160,0.01836
2424.43285,0.01828
2422.50411,0.01824
2420.57536,0.01812
2418.64662,0.01809
2416.71787,0.01828
2414.78912,0.01842
2412.86038,0.01835
2410.93163,0.01823
2409.00289,0.01815
2407.07414,0.01819
2405.14540,0.01835
2403.21665,0.01839
2401.28791,0.01829
2399.35916,0.01821
2397.43042,0.01818
2395.50167,0.01823
2393.57293,0.01834
2391.64418,0.01843
2389.71544,0.01845
2387.78669,0.01840
2385.85795,0.01829
2383.92920,0.01825
2382.00045,0.01828
2380.07171,0.01820
2378.14296,0.01804
2376.21422,0.01802
2374.28547,0.01816
2372.35673,0.01828
2370.42798,0.01832
2368.49924,0.01831
2366.57049,0.01833
2364.64175,0.01837
2362.71300,0.01836
2360.78426,0.01840
2358.85551,0.01852
2356.92677,0.01848
2354.99802,0.01827
2353.06927,0.01819
2351.14053,0.01828
2349.21178,0.01831
2347.28304,0.01827
2345.35429,0.01815
2343.42555,0.01792
2341.49680,0.01776
2339.56806,0.01783
2337.63931,0.01799
2335.71057,0.01813
2333.78182,0.01823
2331.85308,0.01822
2329.92433,0.01811
2327.99559,0.01799
2326.06684,0.01786
2324.13810,0.01776
2322.20935,0.01775
2320.28060,0.01781
2318.35186,0.01797
2316.42311,0.01820
2314.49437,0.01833
2312.56562,0.01829
2310.63688,0.01823
2308.70813,0.01824
2306.77939,0.01823
2304.85064,0.01815
2302.92190,0.01813
2300.99315,0.01814
2299.06441,0.01817
2297.13566,0.01815
2295.20692,0.01806
2293.27817,0.01810
2291.34943,0.01832
2289.42068,0.01838
2287.49193,0.01823
2285.56319,0.01811
2283.63444,0.01810
2281.70570,0.01812
2279.77695,0.01809
2277.84821,0.01800
2275.91946,0.01794
2273.99072,0.01787
2272.06197,0.01771
2270.13323,0.01762
2268.20448,0.01777
2266.27574,0.01805
2264.34699,0.01825
2262.41825,0.01816
2260.48950,0.01788
2258.56075,0.01773
2256.63201,0.01782
2254.70326,0.01791
2252.77452,0.01792
2250.84577,0.01798
2248.91703,0.01809
2246.98828,0.01812
2245.05954,0.01812
2243.13079,0.01814
2241.20205,0.01813
2239.27330,0.01808
2237.34456,0.01805
2235.41581,0.01811
2233.48707,0.01811
2231.55832,0.01798
2229.62958,0.01792
2227.70083,0.01798
2225.77208,0.01799
2223.84334,0.01791
2221.91459,0.01785
2219.98585,0.01785
2218.05710,0.01791
2216.12836,0.01800
2214.19961,0.01798
2212.27087,0.01785
2210.34212,0.01778
2208.41338,0.01786
2206.48463,0.01802
2204.55589,0.01803
2202.62714,0.01799
2200.69840,0.01811
2198.76965,0.01821
2196.84090,0.01812
2194.91216,0.01808
2192.98341,0.01820
2191.05467,0.01828
2189.12592,0.01819
2187.19718,0.01801
2185.26843,0.01794
2183.33969,0.01808
2181.41094,0.01821
2179.48220,0.01815
2177.55345,0.01796
2175.62471,0.01779
2173.69596,0.01772
2171.76722,0.01780
2169.83847,0.01795
2167.90973,0.01796
2165.98098,0.01788
2164.05223,0.01794
2162.12349,0.01804
2160.19474,0.01796
2158.26600,0.01786
2156.33725,0.01788
2154.40851,0.01793
2152.47976,0.01792
2150.55102,0.01796
2148.62227,0.01804
2146.69353,0.01805
2144.76478,0.01802
2142.83604,0.01802
2140.90729,0.01804
2138.97855,0.01811
2137.04980,0.01810
2135.12106,0.01794
2133.19231,0.01782
2131.26356,0.01783
2129.33482,0.01780
2127.40607,0.01780
2125.47733,0.01791
2123.54858,0.01801
2121.61984,0.01809
2119.69109,0.01808
2117.76235,0.01792
2115.83360,0.01784
2113.90486,0.01803
2111.97611,0.01830
2110.04737,0.01833
2108.11862,0.01819
2106.18988,0.01815
2104.26113,0.01818
2102.33238,0.01816
2100.40364,0.01815
2098.47489,0.01817
2096.54615,0.01814
2094.61740,0.01814
2092.68866,0.01812
2090.75991,0.01798
2088.83117,0.01783
2086.90242,0.01780
2084.97368,0.01781
2083.04493,0.01782
2081.11619,0.01786
2079.18744,0.01787
2077.25870,0.01782
2075.32995,0.01774
2073.40121,0.01764
2071.47246,0.01764
2069.54371,0.01779
2067.61497,0.01788
2065.68622,0.01777
2063.75748,0.01770
2061.82873,0.01777
2059.89999,0.01774
2057.97124,0.01762
2056.04250,0.01769
2054.11375,0.01794
2052.18501,0.01812
2050.25626,0.01814
2048.32752,0.01813
2046.39877,0.01819
2044.47003,0.01819
2042.54128,0.01807
2040.61254,0.01803
2038.68379,0.01808
2036.75504,0.01805
2034.82630,0.01789
2032.89755,0.01768
2030.96881,0.01757
2029.04006,0.01762
2027.11132,0.01771
2025.18257,0.01777
2023.25383,0.01789
2021.32508,0.01796
2019.39634,0.01792
2017.46759,0.01792
2015.53885,0.01802
2013.61010,0.01812
2011.68136,0.01811
2009.75261,0.01802
2007.82386,0.01795
2005.89512,0.01796
2003.96637,0.01804
2002.03763,0.01819
2000.10888,0.01822
1998.18014,0.01798
1996.25139,0.01776
1994.32265,0.01780
1992.39390,0.01793
1990.46516,0.01790
1988.53641,0.01778
1986.60767,0.01777
1984.67892,0.01787
1982.75018,0.01790
1980.82143,0.01788
1978.89269,0.01795
1976.96394,0.01803
1975.03519,0.01793
1973.10645,0.01775
1971.17770,0.01767
1969.24896,0.01768
1967.32021,0.01779
1965.39147,0.01797
1963.46272,0.01809
1961.53398,0.01799
1959.60523,0.01784
1957.67649,0.01782
1955.74774,0.01786
1953.81900,0.01770
1951.89025,0.01744
1949.96151,0.01739
1948.03276,0.01752
1946.10402,0.01769
1944.17527,0.01783
1942.24652,0.01788
1940.31778,0.01782
1938.38903,0.01776
1936.46029,0.01773
1934.53154,0.01774
1932.60280,0.01773
1930.67405,0.01762
1928.74531,0.01758
1926.81656,0.01767
1924.88782,0.01778
1922.95907,0.01781
1921.03033,0.01772
1919.10158,0.01759
1917.17284,0.01750
1915.24409,0.01753
1913.31534,0.01772
1911.38660,0.01792
1909.45785,0.01797
1907.52911,0.01791
1905.60036,0.01781
1903.67162,0.01768
1901.74287,0.01758
1899.81413,0.01756
1897.88538,0.01764
1895.95664,0.01781
1894.02789,0.01786
1892.09915,0.01773
1890.17040,0.01756
1888.24166,0.01747
1886.31291,0.01754
1884.38417,0.01765
1882.45542,0.01765
1880.52667,0.01761
1878.59793,0.01761
1876.66918,0.01754
1874.74044,0.01752
1872.81169,0.01766
1870.88295,0.01778
1868.95420,0.01775
1867.02546,0.01759
1865.09671,0.01745
1863.16797,0.01744
1861.23922,0.01745
1859.31048,0.01733
1857.38173,0.01727
1855.45299,0.01744
1853.52424,0.01759
1851.59549,0.01749
1849.66675,0.01734
1847.73800,0.01741
1845.80926,0.01756
1843.88051,0.01746
1841.95177,0.01728
1840.02302,0.01732
1838.09428,0.01744
1836.16553,0.01736
1834.23679,0.01716
1832.30804,0.01707
1830.37930,0.01712
1828.45055,0.01720
1826.52181,0.01721
1824.59306,0.01715
1822.66432,0.01703
1820.73557,0.01690
1818.80682,0.01688
1816.87808,0.01701
1814.94933,0.01719
1813.02059,0.01732
1811.09184,0.01724
1809.16310,0.01709
1807.23435,0.01705
1805.30561,0.01700
1803.37686,0.01686
1801.44812,0.01673
1799.51937,0.01664
1797.59063,0.01657
1795.66188,0.01650
1793.73314,0.01637
1791.80439,0.01619
1789.87565,0.01607
1787.94690,0.01603
1786.01815,0.01607
1784.08941,0.01620
1782.16066,0.01625
1780.23192,0.01613
1778.30317,0.01599
1776.37443,0.01592
1774.44568,0.01587
1772.51694,0.01581
1770.58819,0.01563
1768.65945,0.01531
1766.73070,0.01510
1764.80196,0.01514
1762.87321,0.01518
1760.94447,0.01504
1759.01572,0.01481
1757.08697,0.01457
1755.15823,0.01441
1753.22948,0.01441
1751.30074,0.01445
1749.37199,0.01445
1747.44325,0.01455
1745.51450,0.01483
1743.58576,0.01513
1741.65701,0.01530
1739.72827,0.01542
1737.79952,0.01565
1735.87078,0.01605
1733.94203,0.01654
1732.01329,0.01689
1730.08454,0.01712
1728.15580,0.01743
1726.22705,0.01773
1724.29830,0.01782
1722.36956,0.01767
1720.44081,0.01756
1718.51207,0.01762
1716.58332,0.01766
1714.65458,0.01759
1712.72583,0.01746
1710.79709,0.01733
1708.86834,0.01728
1706.93960,0.01734
1705.01085,0.01740
1703.08211,0.01731
1701.15336,0.01708
1699.22462,0.01689
1697.29587,0.01683
1695.36713,0.01676
1693.43838,0.01657
1691.50963,0.01631
1689.58089,0.01623
1687.65214,0.01642
1685.72340,0.01652
1683.79465,0.01631
1681.86591,0.01607
1679.93716,0.01596
1678.00842,0.01599
1676.07967,0.01607
1674.15093,0.01594
1672.22218,0.01571
1670.29344,0.01559
1668.36469,0.01552
1666.43595,0.01551
1664.50720,0.01554
1662.57845,0.01554
1660.64971,0.01550
1658.72096,0.01547
1656.79222,0.01546
1654.86347,0.01536
1652.93473,0.01511
1651.00598,0.01512
1649.07724,0.01544
1647.14849,0.01565
1645.21975,0.01559
1643.29100,0.01557
1641.36226,0.01575
1639.43351,0.01591
1637.50477,0.01593
1635.57602,0.01577
1633.64728,0.01547
1631.71853,0.01530
1629.78978,0.01540
1627.86104,0.01563
1625.93229,0.01571
1624.00355,0.01568
1622.07480,0.01581
1620.14606,0.01610
1618.21731,0.01624
1616.28857,0.01607
1614.35982,0.01585
1612.43108,0.01581
1610.50233,0.01587
1608.57359,0.01596
1606.64484,0.01606
1604.71610,0.01601
1602.78735,0.01589
1600.85861,0.01590
1598.92986,0.01594
1597.00111,0.01588
1595.07237,0.01568
1593.14362,0.01556
1591.21488,0.01563
1589.28613,0.01567
1587.35739,0.01562
1585.42864,0.01563
1583.49990,0.01561
1581.57115,0.01560
1579.64241,0.01570
1577.71366,0.01564
1575.78492,0.01533
1573.85617,0.01521
1571.92743,0.01529
1569.99868,0.01518
1568.06993,0.01498
1566.14119,0.01496
1564.21244,0.01498
1562.28370,0.01494
1560.35495,0.01484
1558.42621,0.01468
1556.49746,0.01473
1554.56872,0.01499
1552.63997,0.01517
1550.71123,0.01517
1548.78248,0.01526
1546.85374,0.01552
1544.92499,0.01566
1542.99625,0.01549
1541.06750,0.01515
1539.13876,0.01493
1537.21001,0.01511
1535.28126,0.01546
1533.35252,0.01553
1531.42377,0.01541
1529.49503,0.01538
1527.56628,0.01541
1525.63754,0.01543
1523.70879,0.01544
1521.78005,0.01537
1519.85130,0.01529
1517.92256,0.01538
1515.99381,0.01558
1514.06507,0.01571
1512.13632,0.01572
1510.20758,0.01571
1508.27883,0.01563
1506.35008,0.01549
1504.42134,0.01563
1502.49259,0.01598
1500.56385,0.01616
1498.63510,0.01606
1496.70636,0.01595
1494.77761,0.01587
1492.84887,0.01573
1490.92012,0.01569
1488.99138,0.01576
1487.06263,0.01571
1485.13389,0.01561
1483.20514,0.01555
1481.27640,0.01553
1479.34765,0.01553
1477.41891,0.01551
1475.49016,0.01546
1473.56141,0.01542
1471.63267,0.01534
1469.70392,0.01528
1467.77518,0.01526
1465.84643,0.01525
1463.91769,0.01532
1461.98894,0.01544
1460.06020,0.01549
1458.13145,0.01552
1456.20271,0.01558
1454.27396,0.01567
1452.34522,0.01577
1450.41647,0.01584
1448.48773,0.01591
1446.55898,0.01598
1444.63024,0.01605
1442.70149,0.01616
1440.77274,0.01622
1438.84400,0.01610
1436.91525,0.01586
1434.98651,0.01575
1433.05776,0.01581
1431.12902,0.01591
1429.20027,0.01590
1427.27153,0.01570
1425.34278,0.01538
1423.41404,0.01518
1421.48529,0.01524
1419.55655,0.01538
1417.62780,0.01537
1415.69906,0.01537
1413.77031,0.01549
1411.84156,0.01555
1409.91282,0.01542
1407.98407,0.01531
1406.05533,0.01530
1404.12658,0.01526
1402.19784,0.01522
1400.26909,0.01520
1398.34035,0.01512
1396.41160,0.01508
1394.48286,0.01512
1392.55411,0.01516
1390.62537,0.01525
1388.69662,0.01540
1386.76788,0.01544
1384.83913,0.01541
1382.91039,0.01535
1380.98164,0.01515
1379.05289,0.01490
1377.12415,0.01486
1375.19540,0.01501
1373.26666,0.01512
1371.33791,0.01514
1369.40917,0.01518
1367.48042,0.01521
1365.55168,0.01518
1363.62293,0.01518
1361.69419,0.01522
1359.76544,0.01518
1357.83670,0.01512
1355.90795,0.01511
1353.97921,0.01508
1352.05046,0.01511
1350.12172,0.01523
1348.19297,0.01525
1346.26422,0.01511
1344.33548,0.01500
1342.40673,0.01495
1340.47799,0.01477
1338.54924,0.01457
1336.62050,0.01461
1334.69175,0.01476
1332.76301,0.01476
1330.83426,0.01461
1328.90552,0.01443
1326.97677,0.01426
1325.04803,0.01420
1323.11928,0.01429
1321.19054,0.01439
1319.26179,0.01434
1317.33304,0.01413
1315.40430,0.01400
1313.47555,0.01404
1311.54681,0.01402
1309.61806,0.01395
1307.68932,0.01400
1305.76057,0.01404
1303.83183,0.01402
1301.90308,0.01415
1299.97434,0.01439
1298.04559,0.01459
1296.11685,0.01484
1294.18810,0.01510
1292.25936,0.01521
1290.33061,0.01518
1288.40187,0.01522
1286.47312,0.01530
1284.54437,0.01537
1282.61563,0.01560
1280.68688,0.01596
1278.75814,0.01615
1276.82939,0.01612
1274.90065,0.01604
1272.97190,0.01611
1271.04316,0.01641
1269.11441,0.01680
1267.18567,0.01703
1265.25692,0.01697
1263.32818,0.01675
1261.39943,0.01655
1259.47069,0.01645
1257.54194,0.01657
1255.61320,0.01681
1253.68445,0.01694
1251.75570,0.01693
1249.82696,0.01688
1247.89821,0.01695
1245.96947,0.01712
1244.04072,0.01728
1242.11198,0.01733
1240.18323,0.01708
1238.25449,0.01655
1236.32574,0.01612
1234.39700,0.01605
1232.46825,0.01627
1230.53951,0.01655
1228.61076,0.01671
1226.68202,0.01658
1224.75327,0.01632
1222.82452,0.01621
1220.89578,0.01623
1218.96703,0.01619
1217.03829,0.01609
1215.10954,0.01609
1213.18080,0.01611
1211.25205,0.01593
1209.32331,0.01560
1207.39456,0.01541
1205.46582,0.01544
1203.53707,0.01558
1201.60833,0.01568
1199.67958,0.01573
1197.75084,0.01567
1195.82209,0.01540
1193.89335,0.01508
1191.96460,0.01508
1190.03585,0.01524
1188.10711,0.01537
1186.17836,0.01555
1184.24962,0.01568
1182.32087,0.01557
1180.39213,0.01532
1178.46338,0.01514
1176.53464,0.01509
1174.60589,0.01509
1172.67715,0.01504
1170.74840,0.01490
1168.81966,0.01473
1166.89091,0.01457
1164.96217,0.01447
1163.03342,0.01462
1161.10467,0.01482
1159.17593,0.01473
1157.24718,0.01456
1155.31844,0.01436
1153.38969,0.01403
1151.46095,0.01397
1149.53220,0.01427
1147.60346,0.01448
1145.67471,0.01449
1143.74597,0.01452
1141.81722,0.01461
1139.88848,0.01461
1137.95973,0.01454
1136.03099,0.01464
1134.10224,0.01492
1132.17350,0.01498
1130.24475,0.01489
1128.31600,0.01502
1126.38726,0.01541
1124.45851,0.01579
1122.52977,0.01597
1120.60102,0.01592
1118.67228,0.01586
1116.74353,0.01610
1114.81479,0.01638
1112.88604,0.01629
1110.95730,0.01596
1109.02855,0.01556
1107.09981,0.01509
1105.17106,0.01466
1103.24232,0.01449
1101.31357,0.01460
1099.38483,0.01482
1097.45608,0.01516
1095.52733,0.01563
1093.59859,0.01601
1091.66984,0.01608
1089.74110,0.01596
1087.81235,0.01589
1085.88361,0.01567
1083.95486,0.01535
1082.02612,0.01554
1080.09737,0.01602
1078.16863,0.01608
1076.23988,0.01591
1074.31114,0.01589
1072.38239,0.01603
1070.45365,0.01640
1068.52490,0.01677
1066.59615,0.01692
1064.66741,0.01705
1062.73866,0.01714
1060.80992,0.01700
1058.88117,0.01679
1056.95243,0.01662
1055.02368,0.01642
1053.09494,0.01627
1051.16619,0.01624
1049.23745,0.01623
1047.30870,0.01614
1045.37996,0.01601
1043.45121,0.01595
1041.52247,0.01608
1039.59372,0.01632
1037.66498,0.01660
1035.73623,0.01674
1033.80748,0.01654
1031.87874,0.01621
1029.94999,0.01603
1028.02125,0.01582
1026.09250,0.01574
1024.16376,0.01618
1022.23501,0.01679
1020.30627,0.01689
1018.37752,0.01664
1016.44878,0.01652
1014.52003,0.01653
1012.59129,0.01671
1010.66254,0.01692
1008.73380,0.01692
1006.80505,0.01706
1004.87631,0.01755
1002.94756,0.01795
1001.01881,0.01795
999.09007,0.01775
997.16132,0.01769
995.23258,0.01778
993.30383,0.01797
991.37509,0.01819
989.44634,0.01813
987.51760,0.01773
985.58885,0.01740
983.66011,0.01740
981.73136,0.01753
979.80262,0.01757
977.87387,0.01749
975.94513,0.01721
974.01638,0.01692
972.08763,0.01715
970.15889,0.01770
968.23014,0.01774
966.30140,0.01724
964.37265,0.01686
962.44391,0.01689
960.51516,0.01720
958.58642,0.01742
956.65767,0.01738
954.72893,0.01719
952.80018,0.01701
950.87144,0.01704
948.94269,0.01734
947.01395,0.01744
945.08520,0.01710
943.15646,0.01681
941.22771,0.01679
939.29896,0.01684
937.37022,0.01687
935.44147,0.01687
933.51273,0.01678
931.58398,0.01648
929.65524,0.01623
927.72649,0.01631
925.79775,0.01648
923.86900,0.01650
921.94026,0.01655
920.01151,0.01690
918.08277,0.01728
916.15402,0.01716
914.22528,0.01657
912.29653,0.01601
910.36779,0.01583
908.43904,0.01610
906.51029,0.01641
904.58155,0.01629
902.65280,0.01605
900.72406,0.01625
898.79531,0.01656
896.86657,0.01645
894.93782,0.01606
893.00908,0.01574
891.08033,0.01564
889.15159,0.01579
887.22284,0.01612
885.29410,0.01626
883.36535,0.01620
881.43661,0.01622
879.50786,0.01623
877.57911,0.01615
875.65037,0.01616
873.72162,0.01632
871.79288,0.01650
869.86413,0.01636
867.93539,0.01589
866.00664,0.01551
864.07790,0.01550
862.14915,0.01581
860.22041,0.01615
858.29166,0.01628
856.36292,0.01597
854.43417,0.01535
852.50543,0.01528
850.57668,0.01594
848.64794,0.01656
846.71919,0.01689
844.79044,0.01676
842.86170,0.01606
840.93295,0.01548
839.00421,0.01547
837.07546,0.01563
835.14672,0.01583
833.21797,0.01633
831.28923,0.01684
829.36048,0.01663
827.43174,0.01588
825.50299,0.01569
823.57425,0.01610
821.64550,0.01633
819.71676,0.01637
817.78801,0.01662
815.85926,0.01682
813.93052,0.01668
812.00177,0.01650
810.07303,0.01637
808.14428,0.01601
806.21554,0.01564
804.28679,0.01573
802.35805,0.01605
800.42930,0.01618
798.50056,0.01610
796.57181,0.01586
794.64307,0.01570
792.71432,0.01584
790.78558,0.01601
788.85683,0.01584
786.92809,0.01560
784.99934,0.01549
783.07059,0.01523
781.14185,0.01504
779.21310,0.01520
777.28436,0.01519
775.35561,0.01497
773.42687,0.01512
771.49812,0.01548
769.56938,0.01569
767.64063,0.01586
765.71189,0.01590
763.78314,0.01584
761.85440,0.01574
759.92565,0.01542
757.99691,0.01512
756.06816,0.01505
754.13942,0.01485
752.21067,0.01456
750.28192,0.01452
748.35318,0.01454
746.42443,0.01450
744.49569,0.01450
742.56694,0.01453
740.63820,0.01481
738.70945,0.01528
736.78071,0.01573
734.85196,0.01608
732.92322,0.01616
730.99447,0.01597
729.06573,0.01567
727.13698,0.01520
725.20824,0.01469
723.27949,0.01442
721.35074,0.01465
719.42200,0.01523
717.49325,0.01560
715.56451,0.01542
713.63576,0.01473
711.70702,0.01414
709.77827,0.01409
707.84953,0.01422
705.92078,0.01422
703.99204,0.01424
702.06329,0.01443
700.13455,0.01474
698.20580,0.01501
696.27706,0.01520
694.34831,0.01527
692.41957,0.01513
690.49082,0.01494
688.56207,0.01483
686.63333,0.01474
684.70458,0.01436
682.77584,0.01381
680.84709,0.01373
678.91835,0.01435
676.98960,0.01501
675.06086,0.01504
673.13211,0.01460
671.20337,0.01409
669.27462,0.01367
667.34588,0.01373
665.41713,0.01423
663.48839,0.01472
661.55964,0.01497
659.63090,0.01469
657.70215,0.01406
655.77340,0.01381
653.84466,0.01376
651.91591,0.01332
649.98717,0.01280
648.05842,0.01290
646.12968,0.01355
644.20093,0.01401
642.27219,0.01392
640.34344,0.01342
638.41470,0.01302
636.48595,0.01331
634.55721,0.01399
632.62846,0.01443
630.69972,0.01465
628.77097,0.01465
626.84222,0.01415
624.91348,0.01318
622.98473,0.01273
621.05599,0.01398
619.12724,0.01593
617.19850,0.01659
615.26975,0.01536
613.34101,0.01349
611.41226,0.01300
609.48352,0.01445
607.55477,0.01598
605.62603,0.01645
603.69728,0.01603
601.76854,0.01457
599.83979,0.01245
