7497.03301,0.82000
7495.10426,0.82081
7493.17552,0.82165
7491.24677,0.81878
7489.31803,0.81306
7487.38928,0.80835
7485.46054,0.80748
7483.53179,0.80890
7481.60305,0.80676
7479.67430,0.80138
7477.74556,0.80098
7475.81681,0.80662
7473.88807,0.80941
7471.95932,0.80590
7470.03057,0.80446
7468.10183,0.80887
7466.17308,0.81128
7464.24434,0.80939
7462.31559,0.80652
7460.38685,0.80131
7458.45810,0.79642
7456.52936,0.79685
7454.60061,0.80007
7452.67187,0.79990
7450.74312,0.79358
7448.81438,0.78869
7446.88563,0.79293
7444.95689,0.79892
7443.02814,0.80008
7441.09940,0.80324
7439.17065,0.80984
7437.24190,0.81050
7435.31316,0.80214
7433.38441,0.79399
7431.45567,0.79423
7429.52692,0.79947
7427.59818,0.80349
7425.66943,0.80584
7423.74069,0.80630
7421.81194,0.80442
7419.88320,0.80096
7417.95445,0.79708
7416.02571,0.79443
7414.09696,0.79114
7412.16822,0.78711
7410.23947,0.78538
7408.31073,0.78584
7406.38198,0.78937
7404.45323,0.79383
7402.52449,0.79275
7400.59574,0.78811
7398.66700,0.78594
7396.73825,0.78765
7394.80951,0.79067
7392.88076,0.79115
7390.95202,0.78989
7389.02327,0.78899
7387.09453,0.78750
7385.16578,0.78792
7383.23704,0.79298
7381.30829,0.79758
7379.37955,0.79650
7377.45080,0.79332
7375.52205,0.79067
7373.59331,0.78571
7371.66456,0.77925
7369.73582,0.77454
7367.80707,0.77416
7365.87833,0.77816
7363.94958,0.78098
7362.02084,0.78127
7360.09209,0.78261
7358.16335,0.78336
7356.23460,0.78315
7354.30586,0.78421
7352.37711,0.78417
7350.44837,0.78196
7348.51962,0.77977
7346.59088,0.77925
7344.66213,0.78003
7342.73338,0.77966
7340.80464,0.77678
7338.87589,0.77416
7336.94715,0.77364
7335.01840,0.77130
7333.08966,0.76668
7331.16091,0.76570
7329.23217,0.76877
7327.30342,0.77007
7325.37468,0.76851
7323.44593,0.76646
7321.51719,0.76357
7319.58844,0.76113
7317.65970,0.76192
7315.73095,0.76449
7313.80221,0.76641
7311.87346,0.76799
7309.94471,0.77033
7308.01597,0.77085
7306.08722,0.76608
7304.15848,0.76239
7302.22973,0.76686
7300.30099,0.77472
7298.37224,0.77876
7296.44350,0.77844
7294.51475,0.77414
7292.58601,0.76810
7290.65726,0.76605
7288.72852,0.76574
7286.79977,0.76268
7284.87103,0.76053
7282.94228,0.76156
7281.01353,0.76357
7279.08479,0.76564
7277.15604,0.76645
7275.22730,0.76479
7273.29855,0.76279
7271.36981,0.76188
7269.44106,0.75995
7267.51232,0.75747
7265.58357,0.75809
7263.65483,0.76303
7261.72608,0.76893
7259.79734,0.77251
7257.86859,0.77295
7255.93985,0.76871
7254.01110,0.76227
7252.08236,0.75947
7250.15361,0.76064
7248.22486,0.76274
7246.29612,0.76249
7244.36737,0.75817
7242.43863,0.75565
7240.50988,0.75994
7238.58114,0.76354
7236.65239,0.76145
7234.72365,0.75819
7232.79490,0.75704
7230.86616,0.75792
7228.93741,0.75919
7227.00867,0.75845
7225.07992,0.75612
7223.15118,0.75591
7221.22243,0.75908
7219.29369,0.76066
7217.36494,0.75922
7215.43619,0.76034
7213.50745,0.76210
7211.57870,0.75885
7209.64996,0.75485
7207.72121,0.75374
7205.79247,0.75288
7203.86372,0.75324
7201.93498,0.75394
7200.00623,0.75138
7198.07749,0.74910
7196.14874,0.74933
7194.22000,0.74897
7192.29125,0.74793
7190.36251,0.74749
7188.43376,0.74708
7186.50501,0.74582
7184.57627,0.74192
7182.64752,0.73725
7180.71878,0.73823
7178.79003,0.74338
7176.86129,0.74556
7174.93254,0.74447
7173.00380,0.74183
7171.07505,0.73663
7169.14631,0.73170
7167.21756,0.73242
7165.28882,0.73543
7163.36007,0.73429
7161.43133,0.73198
7159.50258,0.73353
7157.57384,0.73588
7155.64509,0.73395
7153.71634,0.72976
7151.78760,0.72796
7149.85885,0.72716
7147.93011,0.72412
7146.00136,0.72123
7144.07262,0.72195
7142.14387,0.72349
7140.21513,0.72271
7138.28638,0.72173
7136.35764,0.72204
7134.42889,0.72231
7132.50015,0.72170
7130.57140,0.72111
7128.64266,0.72088
7126.71391,0.71872
7124.78516,0.71456
7122.85642,0.71261
7120.92767,0.71336
7118.99893,0.71323
7117.07018,0.71246
7115.14144,0.71208
7113.21269,0.71000
7111.28395,0.70566
7109.35520,0.70105
7107.42646,0.69695
7105.49771,0.69240
7103.56897,0.68990
7101.64022,0.69077
7099.71148,0.68982
7097.78273,0.68650
7095.85399,0.68596
7093.92524,0.68647
7091.99649,0.68317
7090.06775,0.67852
7088.13900,0.67613
7086.21026,0.67456
7084.28151,0.67211
7082.35277,0.66910
7080.42402,0.66636
7078.49528,0.66547
7076.56653,0.66699
7074.63779,0.66832
7072.70904,0.66675
7070.78030,0.66300
7068.85155,0.65925
7066.92281,0.65510
7064.99406,0.64986
7063.06532,0.64622
7061.13657,0.64602
7059.20782,0.64702
7057.27908,0.64716
7055.35033,0.64733
7053.42159,0.64664
7051.49284,0.64349
7049.56410,0.64153
7047.63535,0.64161
7045.70661,0.63960
7043.77786,0.63667
7041.84912,0.63570
7039.92037,0.63560
7037.99163,0.63519
7036.06288,0.63438
7034.13414,0.63249
7032.20539,0.62915
7030.27664,0.62617
7028.34790,0.62437
7026.41915,0.62143
7024.49041,0.61723
7022.56166,0.61480
7020.63292,0.61413
7018.70417,0.61387
7016.77543,0.61319
7014.84668,0.61069
7012.91794,0.60977
7010.98919,0.61307
7009.06045,0.61448
7007.13170,0.61017
7005.20296,0.60652
7003.27421,0.60727
7001.34547,0.60729
6999.41672,0.60527
6997.48797,0.60502
6995.55923,0.60626
6993.63048,0.60601
6991.70174,0.60396
6989.77299,0.60187
6987.84425,0.59951
6985.91550,0.59754
6983.98676,0.59685
6982.05801,0.59465
6980.12927,0.59089
6978.20052,0.58952
6976.27178,0.59073
6974.34303,0.59121
6972.41429,0.58984
6970.48554,0.58771
6968.55680,0.58526
6966.62805,0.58276
6964.69930,0.58169
6962.77056,0.58323
6960.84181,0.58559
6958.91307,0.58644
6956.98432,0.58557
6955.05558,0.58398
6953.12683,0.58266
6951.19809,0.58108
6949.26934,0.57890
6947.34060,0.57657
6945.41185,0.57435
6943.48311,0.57376
6941.55436,0.57448
6939.62562,0.57443
6937.69687,0.57386
6935.76812,0.57370
6933.83938,0.57466
6931.91063,0.57676
6929.98189,0.57621
6928.05314,0.57112
6926.12440,0.56677
6924.19565,0.56798
6922.26691,0.57224
6920.33816,0.57383
6918.40942,0.57311
6916.48067,0.57368
6914.55193,0.57361
6912.62318,0.57120
6910.69444,0.56906
6908.76569,0.56879
6906.83695,0.56940
6904.90820,0.56815
6902.97945,0.56437
6901.05071,0.56107
6899.12196,0.55978
6897.19322,0.56060
6895.26447,0.56393
6893.33573,0.56753
6891.40698,0.56752
6889.47824,0.56358
6887.54949,0.55987
6885.62075,0.56008
6883.69200,0.56257
6881.76326,0.56311
6879.83451,0.56114
6877.90577,0.55988
6875.97702,0.56097
6874.04828,0.56251
6872.11953,0.56302
6870.19078,0.56316
6868.26204,0.56280
6866.33329,0.56047
6864.40455,0.55669
6862.47580,0.55358
6860.54706,0.55263
6858.61831,0.55472
6856.68957,0.55804
6854.76082,0.55955
6852.83208,0.55943
6850.90333,0.55926
6848.97459,0.56064
6847.04584,0.56271
6845.11710,0.56264
6843.18835,0.56155
6841.25960,0.56101
6839.33086,0.55907
6837.40211,0.55563
6835.47337,0.55424
6833.54462,0.55589
6831.61588,0.55637
6829.68713,0.55502
6827.75839,0.55578
6825.82964,0.55836
6823.90090,0.55960
6821.97215,0.55826
6820.04341,0.55604
6818.11466,0.55501
6816.18592,0.55397
6814.25717,0.55170
6812.32843,0.54920
6810.39968,0.54706
6808.47093,0.54599
6806.54219,0.54636
6804.61344,0.54633
6802.68470,0.54572
6800.75595,0.54662
6798.82721,0.54797
6796.89846,0.54828
6794.96972,0.54905
6793.04097,0.54997
6791.11223,0.54922
6789.18348,0.54780
6787.25474,0.54798
6785.32599,0.55031
6783.39725,0.55195
6781.46850,0.55047
6779.53975,0.54918
6777.61101,0.55110
6775.68226,0.55395
6773.75352,0.55516
6771.82477,0.55476
6769.89603,0.55431
6767.96728,0.55375
6766.03854,0.55101
6764.10979,0.54775
6762.18105,0.54744
6760.25230,0.54867
6758.32356,0.54877
6756.39481,0.54910
6754.46607,0.55095
6752.53732,0.55268
6750.60858,0.55380
6748.67983,0.55362
6746.75108,0.55110
6744.82234,0.54953
6742.89359,0.55088
6740.96485,0.55273
6739.03610,0.55338
6737.10736,0.55197
6735.17861,0.55006
6733.24987,0.55092
6731.32112,0.55343
6729.39238,0.55471
6727.46363,0.55474
6725.53489,0.55426
6723.60614,0.55392
6721.67740,0.55381
6719.74865,0.55274
6717.81991,0.55074
6715.89116,0.55014
6713.96241,0.55341
6712.03367,0.55832
6710.10492,0.55930
6708.17618,0.55674
6706.24743,0.55516
6704.31869,0.55583
6702.38994,0.55824
6700.46120,0.56076
6698.53245,0.56075
6696.60371,0.55899
6694.67496,0.55787
6692.74622,0.55806
6690.81747,0.55966
6688.88873,0.56058
6686.95998,0.55959
6685.03123,0.56029
6683.10249,0.56336
6681.17374,0.56478
6679.24500,0.56313
6677.31625,0.56010
6675.38751,0.55783
6673.45876,0.55787
6671.53002,0.55966
6669.60127,0.56140
6667.67253,0.56238
6665.74378,0.56305
6663.81504,0.56459
6661.88629,0.56698
6659.95755,0.56891
6658.02880,0.56983
6656.10006,0.56899
6654.17131,0.56712
6652.24256,0.56635
6650.31382,0.56646
6648.38507,0.56743
6646.45633,0.57012
6644.52758,0.57297
6642.59884,0.57377
6640.67009,0.57225
6638.74135,0.57106
6636.81260,0.57270
6634.88386,0.57467
6632.95511,0.57471
6631.02637,0.57505
6629.09762,0.57574
6627.16888,0.57562
6625.24013,0.57579
6623.31139,0.57588
6621.38264,0.57549
6619.45389,0.57555
6617.52515,0.57619
6615.59640,0.57735
6613.66766,0.57749
6611.73891,0.57594
6609.81017,0.57534
6607.88142,0.57688
6605.95268,0.57910
6604.02393,0.58089
6602.09519,0.58153
6600.16644,0.58022
6598.23770,0.57919
6596.30895,0.58224
6594.38021,0.58738
6592.45146,0.58956
6590.52271,0.58803
6588.59397,0.58588
6586.66522,0.58565
6584.73648,0.58629
6582.80773,0.58577
6580.87899,0.58418
6578.95024,0.58346
6577.02150,0.58541
6575.09275,0.58884
6573.16401,0.59105
6571.23526,0.59090
6569.30652,0.58943
6567.37777,0.58887
6565.44903,0.59011
6563.52028,0.59204
6561.59154,0.59239
6559.66279,0.59041
6557.73404,0.58890
6555.80530,0.58945
6553.87655,0.59024
6551.94781,0.59046
6550.01906,0.59174
6548.09032,0.59458
6546.16157,0.59609
6544.23283,0.59516
6542.30408,0.59466
6540.37534,0.59456
6538.44659,0.59337
6536.51785,0.59276
6534.58910,0.59361
6532.66036,0.59472
6530.73161,0.59548
6528.80287,0.59569
6526.87412,0.59529
6524.94537,0.59474
6523.01663,0.59470
6521.08788,0.59540
6519.15914,0.59635
6517.23039,0.59733
6515.30165,0.59800
6513.37290,0.59766
6511.44416,0.59756
6509.51541,0.59818
6507.58667,0.59808
6505.65792,0.59748
6503.72918,0.59663
6501.80043,0.59633
6499.87169,0.59830
6497.94294,0.60126
6496.01419,0.60225
6494.08545,0.60109
6492.15670,0.60074
6490.22796,0.60187
6488.29921,0.60198
6486.37047,0.60157
6484.44172,0.60209
6482.51298,0.60123
6480.58423,0.59862
6478.65549,0.59772
6476.72674,0.59903
6474.79800,0.60020
6472.86925,0.59991
6470.94051,0.59884
6469.01176,0.59868
6467.08302,0.59881
6465.15427,0.59860
6463.22552,0.59903
6461.29678,0.59971
6459.36803,0.60024
6457.43929,0.60027
6455.51054,0.59948
6453.58180,0.59945
6451.65305,0.60092
6449.72431,0.60181
6447.79556,0.60139
6445.86682,0.60204
6443.93807,0.60409
6442.00933,0.60520
6440.08058,0.60446
6438.15184,0.60327
6436.22309,0.60362
6434.29434,0.60471
6432.36560,0.60399
6430.43685,0.60239
6428.50811,0.60149
6426.57936,0.59986
6424.65062,0.59842
6422.72187,0.59964
6420.79313,0.60117
6418.86438,0.60009
6416.93564,0.59831
6415.00689,0.59855
6413.07815,0.60051
6411.14940,0.60179
6409.22066,0.60054
6407.29191,0.59787
6405.36317,0.59610
6403.43442,0.59590
6401.50567,0.59725
6399.57693,0.59967
6397.64818,0.60196
6395.71944,0.60349
6393.79069,0.60378
6391.86195,0.60286
6389.93320,0.60160
6388.00446,0.60025
6386.07571,0.59913
6384.14697,0.59931
6382.21822,0.60049
6380.28948,0.60065
6378.36073,0.59959
6376.43199,0.59910
6374.50324,0.60007
6372.57450,0.60184
6370.64575,0.60315
6368.71700,0.60366
6366.78826,0.60371
6364.85951,0.60289
6362.93077,0.60127
6361.00202,0.59988
6359.07328,0.59870
6357.14453,0.59781
6355.21579,0.59819
6353.28704,0.59951
6351.35830,0.60060
6349.42955,0.60138
6347.50081,0.60173
6345.57206,0.60084
6343.64332,0.59933
6341.71457,0.59897
6339.78582,0.60003
6337.85708,0.60190
6335.92833,0.60387
6333.99959,0.60439
6332.07084,0.60339
6330.14210,0.60265
6328.21335,0.60251
6326.28461,0.60197
6324.35586,0.60143
6322.42712,0.60179
6320.49837,0.60239
6318.56963,0.60250
6316.64088,0.60319
6314.71214,0.60470
6312.78339,0.60539
6310.85465,0.60619
6308.92590,0.60868
6306.99715,0.61085
6305.06841,0.61135
6303.13966,0.61150
6301.21092,0.61103
6299.28217,0.60911
6297.35343,0.60776
6295.42468,0.60806
6293.49594,0.60822
6291.56719,0.60867
6289.63845,0.61069
6287.70970,0.61235
6285.78096,0.61230
6283.85221,0.61179
6281.92347,0.61146
6279.99472,0.61093
6278.06598,0.61030
6276.13723,0.61072
6274.20848,0.61232
6272.27974,0.61312
6270.35099,0.61261
6268.42225,0.61222
6266.49350,0.61217
6264.56476,0.61269
6262.63601,0.61395
6260.70727,0.61529
6258.77852,0.61671
6256.84978,0.61744
6254.92103,0.61659
6252.99229,0.61518
6251.06354,0.61470
6249.13480,0.61574
6247.20605,0.61779
6245.27730,0.61981
6243.34856,0.62083
6241.41981,0.62033
6239.49107,0.61915
6237.56232,0.61916
6235.63358,0.62072
6233.70483,0.62219
6231.77609,0.62282
6229.84734,0.62293
6227.91860,0.62284
6225.98985,0.62277
6224.06111,0.62252
6222.13236,0.62260
6220.20362,0.62325
6218.27487,0.62338
6216.34613,0.62348
6214.41738,0.62454
6212.48863,0.62537
6210.55989,0.62515
6208.63114,0.62467
6206.70240,0.62500
6204.77365,0.62627
6202.84491,0.62757
6200.91616,0.62832
6198.98742,0.62918
6197.05867,0.63092
6195.12993,0.63276
6193.20118,0.63341
6191.27244,0.63302
6189.34369,0.63218
6187.41495,0.63135
6185.48620,0.63119
6183.55746,0.63240
6181.62871,0.63473
6179.69996,0.63694
6177.77122,0.63855
6175.84247,0.63885
6173.91373,0.63739
6171.98498,0.63603
6170.05624,0.63633
6168.12749,0.63754
6166.19875,0.63822
6164.27000,0.63791
6162.34126,0.63735
6160.41251,0.63742
6158.48377,0.63801
6156.55502,0.63850
6154.62628,0.63861
6152.69753,0.63916
6150.76878,0.64099
6148.84004,0.64282
6146.91129,0.64290
6144.98255,0.64163
6143.05380,0.64117
6141.12506,0.64245
6139.19631,0.64425
6137.26757,0.64600
6135.33882,0.64674
6133.41008,0.64595
6131.48133,0.64568
6129.55259,0.64701
6127.62384,0.64907
6125.69510,0.65003
6123.76635,0.64904
6121.83761,0.64772
6119.90886,0.64715
6117.98011,0.64784
6116.05137,0.65041
6114.12262,0.65305
6112.19388,0.65344
6110.26513,0.65220
6108.33639,0.65100
6106.40764,0.65098
6104.47890,0.65206
6102.55015,0.65257
6100.62141,0.65259
6098.69266,0.65335
6096.76392,0.65397
6094.83517,0.65410
6092.90643,0.65438
6090.97768,0.65399
6089.04893,0.65279
6087.12019,0.65233
6085.19144,0.65346
6083.26270,0.65579
6081.33395,0.65770
6079.40521,0.65748
6077.47646,0.65655
6075.54772,0.65744
6073.61897,0.65917
6071.69023,0.65929
6069.76148,0.65829
6067.83274,0.65882
6065.90399,0.66150
6063.97525,0.66384
6062.04650,0.66427
6060.11776,0.66396
6058.18901,0.66376
6056.26026,0.66415
6054.33152,0.66538
6052.40277,0.66572
6050.47403,0.66417
6048.54528,0.66283
6046.61654,0.66347
6044.68779,0.66474
6042.75905,0.66527
6040.83030,0.66585
6038.90156,0.66709
6036.97281,0.66851
6035.04407,0.66944
6033.11532,0.66941
6031.18658,0.66873
6029.25783,0.66800
6027.32909,0.66772
6025.40034,0.66865
6023.47159,0.67043
6021.54285,0.67142
6019.61410,0.67156
6017.68536,0.67140
6015.75661,0.67045
6013.82787,0.66964
6011.89912,0.67052
6009.97038,0.67252
6008.04163,0.67370
6006.11289,0.67335
6004.18414,0.67288
6002.25540,0.67299
6000.32665,0.67256
5998.39791,0.67132
5996.46916,0.67088
5994.54041,0.67233
5992.61167,0.67445
5990.68292,0.67531
5988.75418,0.67531
5986.82543,0.67605
5984.89669,0.67693
5982.96794,0.67696
5981.03920,0.67653
5979.11045,0.67549
5977.18171,0.67442
5975.25296,0.67418
5973.32422,0.67371
5971.39547,0.67247
5969.46673,0.67196
5967.53798,0.67325
5965.60924,0.67458
5963.68049,0.67401
5961.75174,0.67324
5959.82300,0.67399
5957.89425,0.67512
5955.96551,0.67539
5954.03676,0.67448
5952.10802,0.67309
5950.17927,0.67233
5948.25053,0.67207
5946.32178,0.67158
5944.39304,0.67053
5942.46429,0.66914
5940.53555,0.66821
5938.60680,0.66762
5936.67806,0.66753
5934.74931,0.66816
5932.82057,0.66810
5930.89182,0.66781
5928.96307,0.66868
5927.03433,0.66897
5925.10558,0.66786
5923.17684,0.66728
5921.24809,0.66771
5919.31935,0.66779
5917.39060,0.66684
5915.46186,0.66521
5913.53311,0.66356
5911.60437,0.66253
5909.67562,0.66222
5907.74688,0.66208
5905.81813,0.66212
5903.88939,0.66262
5901.96064,0.66283
5900.03189,0.66264
5898.10315,0.66280
5896.17440,0.66272
5894.24566,0.66173
5892.31691,0.66078
5890.38817,0.66114
5888.45942,0.66203
5886.53068,0.66167
5884.60193,0.66067
5882.67319,0.66040
5880.74444,0.66039
5878.81570,0.66006
5876.88695,0.65937
5874.95821,0.65851
5873.02946,0.65809
5871.10072,0.65829
5869.17197,0.65834
5867.24322,0.65752
5865.31448,0.65685
5863.38573,0.65703
5861.45699,0.65672
5859.52824,0.65615
5857.59950,0.65687
5855.67075,0.65806
5853.74201,0.65815
5851.81326,0.65775
5849.88452,0.65779
5847.95577,0.65787
5846.02703,0.65775
5844.09828,0.65761
5842.16954,0.65712
5840.24079,0.65644
5838.31205,0.65618
5836.38330,0.65614
5834.45455,0.65600
5832.52581,0.65582
5830.59706,0.65521
5828.66832,0.65426
5826.73957,0.65366
5824.81083,0.65242
5822.88208,0.64996
5820.95334,0.64825
5819.02459,0.64835
5817.09585,0.64885
5815.16710,0.64856
5813.23836,0.64782
5811.30961,0.64769
5809.38087,0.64850
5807.45212,0.64934
5805.52337,0.64939
5803.59463,0.64868
5801.66588,0.64759
5799.73714,0.64724
5797.80839,0.64795
5795.87965,0.64813
5793.95090,0.64757
5792.02216,0.64765
5790.09341,0.64835
5788.16467,0.64858
5786.23592,0.64788
5784.30718,0.64682
5782.37843,0.64615
5780.44969,0.64617
5778.52094,0.64654
5776.59220,0.64652
5774.66345,0.64620
5772.73470,0.64635
5770.80596,0.64699
5768.87721,0.64732
5766.94847,0.64667
5765.01972,0.64568
5763.09098,0.64568
5761.16223,0.64647
5759.23349,0.64638
5757.30474,0.64498
5755.37600,0.64380
5753.44725,0.64423
5751.51851,0.64584
5749.58976,0.64684
5747.66102,0.64650
5745.73227,0.64571
5743.80352,0.64507
5741.87478,0.64487
5739.94603,0.64511
5738.01729,0.64518
5736.08854,0.64530
5734.15980,0.64583
5732.23105,0.64603
5730.30231,0.64544
5728.37356,0.64461
5726.44482,0.64441
5724.51607,0.64466
5722.58733,0.64452
5720.65858,0.64414
5718.72984,0.64409
5716.80109,0.64397
5714.87235,0.64348
5712.94360,0.64304
5711.01485,0.64257
5709.08611,0.64194
5707.15736,0.64150
5705.22862,0.64086
5703.29987,0.63983
5701.37113,0.63950
5699.44238,0.64025
5697.51364,0.64101
5695.58489,0.64155
5693.65615,0.64251
5691.72740,0.64314
5689.79866,0.64252
5687.86991,0.64165
5685.94117,0.64089
5684.01242,0.63929
5682.08368,0.63772
5680.15493,0.63765
5678.22618,0.63774
5676.29744,0.63662
5674.36869,0.63569
5672.43995,0.63615
5670.51120,0.63712
5668.58246,0.63773
5666.65371,0.63819
5664.72497,0.63840
5662.79622,0.63811
5660.86748,0.63803
5658.93873,0.63839
5657.00999,0.63802
5655.08124,0.63688
5653.15250,0.63638
5651.22375,0.63646
5649.29500,0.63614
5647.36626,0.63606
5645.43751,0.63667
5643.50877,0.63751
5641.58002,0.63824
5639.65128,0.63796
5637.72253,0.63690
5635.79379,0.63665
5633.86504,0.63732
5631.93630,0.63763
5630.00755,0.63694
5628.07881,0.63633
5626.15006,0.63696
5624.22132,0.63793
5622.29257,0.63798
5620.36383,0.63784
5618.43508,0.63865
5616.50633,0.63918
5614.57759,0.63805
5612.64884,0.63651
5610.72010,0.63616
5608.79135,0.63728
5606.86261,0.63890
5604.93386,0.63943
5603.00512,0.63875
5601.07637,0.63820
5599.14763,0.63855
5597.21888,0.63966
5595.29014,0.64070
5593.36139,0.64050
5591.43265,0.63925
5589.50390,0.63815
5587.57516,0.63717
5585.64641,0.63649
5583.71766,0.63715
5581.78892,0.63857
5579.86017,0.63947
5577.93143,0.64005
5576.00268,0.64095
5574.07394,0.64167
5572.14519,0.64134
5570.21645,0.64077
5568.28770,0.64108
5566.35896,0.64156
5564.43021,0.64169
5562.50147,0.64196
5560.57272,0.64229
5558.64398,0.64259
5556.71523,0.64327
5554.78648,0.64442
5552.85774,0.64560
5550.92899,0.64577
5549.00025,0.64450
5547.07150,0.64315
5545.14276,0.64307
5543.21401,0.64406
5541.28527,0.64508
5539.35652,0.64515
5537.42778,0.64459
5535.49903,0.64478
5533.57029,0.64595
5531.64154,0.64699
5529.71280,0.64722
5527.78405,0.64672
5525.85531,0.64615
5523.92656,0.64610
5521.99781,0.64633
5520.06907,0.64678
5518.14032,0.64760
5516.21158,0.64810
5514.28283,0.64806
5512.35409,0.64792
5510.42534,0.64776
5508.49660,0.64810
5506.56785,0.64924
5504.63911,0.64981
5502.71036,0.64927
5500.78162,0.64878
5498.85287,0.64872
5496.92413,0.64891
5494.99538,0.64926
5493.06664,0.64924
5491.13789,0.64890
5489.20914,0.64877
5487.28040,0.64913
5485.35165,0.64971
5483.42291,0.64950
5481.49416,0.64849
5479.56542,0.64785
5477.63667,0.64789
5475.70793,0.64810
5473.77918,0.64853
5471.85044,0.64933
5469.92169,0.65029
5467.99295,0.65150
5466.06420,0.65254
5464.13546,0.65251
5462.20671,0.65157
5460.27796,0.65110
5458.34922,0.65148
5456.42047,0.65189
5454.49173,0.65260
5452.56298,0.65335
5450.63424,0.65290
5448.70549,0.65211
5446.77675,0.65264
5444.84800,0.65383
5442.91926,0.65410
5440.99051,0.65368
5439.06177,0.65352
5437.13302,0.65340
5435.20428,0.65325
5433.27553,0.65380
5431.34679,0.65504
5429.41804,0.65611
5427.48929,0.65654
5425.56055,0.65671
5423.63180,0.65686
5421.70306,0.65738
5419.77431,0.65826
5417.84557,0.65863
5415.91682,0.65840
5413.98808,0.65843
5412.05933,0.65890
5410.13059,0.65943
5408.20184,0.66025
5406.27310,0.66140
5404.34435,0.66242
5402.41561,0.66292
5400.48686,0.66265
5398.55811,0.66195
5396.62937,0.66153
5394.70062,0.66184
5392.77188,0.66290
5390.84313,0.66366
5388.91439,0.66337
5386.98564,0.66300
5385.05690,0.66354
5383.12815,0.66404
5381.19941,0.66375
5379.27066,0.66342
5377.34192,0.66348
5375.41317,0.66379
5373.48443,0.66432
5371.55568,0.66460
5369.62694,0.66419
5367.69819,0.66349
5365.76944,0.66338
5363.84070,0.66346
5361.91195,0.66241
5359.98321,0.66047
5358.05446,0.65915
5356.12572,0.65923
5354.19697,0.65962
5352.26823,0.65878
5350.33948,0.65763
5348.41074,0.65768
5346.48199,0.65829
5344.55325,0.65796
5342.62450,0.65689
5340.69576,0.65613
5338.76701,0.65588
5336.83827,0.65621
5334.90952,0.65609
5332.98077,0.65418
5331.05203,0.65134
5329.12328,0.64953
5327.19454,0.64874
5325.26579,0.64766
5323.33705,0.64612
5321.40830,0.64435
5319.47956,0.64228
5317.55081,0.64029
5315.62207,0.63868
5313.69332,0.63717
5311.76458,0.63530
5309.83583,0.63275
5307.90709,0.62955
5305.97834,0.62651
5304.04959,0.62456
5302.12085,0.62329
5300.19210,0.62143
5298.26336,0.61861
5296.33461,0.61558
5294.40587,0.61304
5292.47712,0.61127
5290.54838,0.60945
5288.61963,0.60667
5286.69089,0.60358
5284.76214,0.60018
5282.83340,0.59567
5280.90465,0.59081
5278.97591,0.58662
5277.04716,0.58289
5275.11842,0.57894
5273.18967,0.57450
5271.26092,0.57019
5269.33218,0.56662
5267.40343,0.56327
5265.47469,0.55918
5263.54594,0.55468
5261.61720,0.55034
5259.68845,0.54544
5257.75971,0.54045
5255.83096,0.53666
5253.90222,0.53360
5251.97347,0.52996
5250.04473,0.52538
5248.11598,0.52051
5246.18724,0.51648
5244.25849,0.51307
5242.32975,0.50930
5240.40100,0.50506
5238.47225,0.50077
5236.54351,0.49706
5234.61476,0.49432
5232.68602,0.49219
5230.75727,0.49008
5228.82853,0.48748
5226.89978,0.48420
5224.97104,0.48089
5223.04229,0.47830
5221.11355,0.47609
5219.18480,0.47409
5217.25606,0.47264
5215.32731,0.47096
5213.39857,0.46872
5211.46982,0.46695
5209.54107,0.46574
5207.61233,0.46407
5205.68358,0.46181
5203.75484,0.46003
5201.82609,0.45900
5199.89735,0.45808
5197.96860,0.45698
5196.03986,0.45580
5194.11111,0.45482
5192.18237,0.45416
5190.25362,0.45345
5188.32488,0.45239
5186.39613,0.45150
5184.46739,0.45126
5182.53864,0.45064
5180.60990,0.44911
5178.68115,0.44831
5176.75240,0.44917
5174.82366,0.45051
5172.89491,0.45123
5170.96617,0.45142
5169.03742,0.45169
5167.10868,0.45227
5165.17993,0.45292
5163.25119,0.45331
5161.32244,0.45337
5159.39370,0.45370
5157.46495,0.45472
5155.53621,0.45565
5153.60746,0.45605
5151.67872,0.45657
5149.74997,0.45726
5147.82123,0.45781
5145.89248,0.45829
5143.96373,0.45881
5142.03499,0.45971
5140.10624,0.46109
5138.17750,0.46269
5136.24875,0.46438
5134.32001,0.46582
5132.39126,0.46636
5130.46252,0.46617
5128.53377,0.46613
5126.60503,0.46687
5124.67628,0.46833
5122.74754,0.47017
5120.81879,0.47217
5118.89005,0.47384
5116.96130,0.47477
5115.03255,0.47506
5113.10381,0.47546
5111.17506,0.47693
5109.24632,0.47918
5107.31757,0.48086
5105.38883,0.48140
5103.46008,0.48159
5101.53134,0.48241
5099.60259,0.48388
5097.67385,0.48534
5095.74510,0.48657
5093.81636,0.48806
5091.88761,0.48986
5089.95887,0.49135
5088.03012,0.49243
5086.10138,0.49310
5084.17263,0.49337
5082.24388,0.49389
5080.31514,0.49483
5078.38639,0.49580
5076.45765,0.49700
5074.52890,0.49863
5072.60016,0.50023
5070.67141,0.50153
5068.74267,0.50254
5066.81392,0.50337
5064.88518,0.50436
5062.95643,0.50567
5061.02769,0.50718
5059.09894,0.50859
5057.17020,0.50966
5055.24145,0.51047
5053.31270,0.51139
5051.38396,0.51262
5049.45521,0.51375
5047.52647,0.51456
5045.59772,0.51577
5043.66898,0.51790
5041.74023,0.52008
5039.81149,0.52124
5037.88274,0.52128
5035.95400,0.52097
5034.02525,0.52172
5032.09651,0.52380
5030.16776,0.52566
5028.23902,0.52658
5026.31027,0.52710
5024.38153,0.52758
5022.45278,0.52827
5020.52403,0.52925
5018.59529,0.53003
5016.66654,0.53054
5014.73780,0.53116
5012.80905,0.53177
5010.88031,0.53236
5008.95156,0.53337
5007.02282,0.53452
5005.09407,0.53538
5003.16533,0.53610
5001.23658,0.53666
4999.30784,0.53664
4997.37909,0.53609
4995.45035,0.53622
4993.52160,0.53779
4991.59286,0.53931
4989.66411,0.53945
4987.73536,0.53902
4985.80662,0.53893
4983.87787,0.53918
4981.94913,0.53967
4980.02038,0.54022
4978.09164,0.54039
4976.16289,0.53991
4974.23415,0.53905
4972.30540,0.53816
4970.37666,0.53773
4968.44791,0.53798
4966.51917,0.53820
4964.59042,0.53794
4962.66168,0.53771
4960.73293,0.53773
4958.80418,0.53730
4956.87544,0.53634
4954.94669,0.53570
4953.01795,0.53540
4951.08920,0.53471
4949.16046,0.53371
4947.23171,0.53261
4945.30297,0.53126
4943.37422,0.52995
4941.44548,0.52895
4939.51673,0.52787
4937.58799,0.52653
4935.65924,0.52512
4933.73050,0.52347
4931.80175,0.52174
4929.87301,0.52039
4927.94426,0.51933
4926.01551,0.51808
4924.08677,0.51666
4922.15802,0.51523
4920.22928,0.51350
4918.30053,0.51114
4916.37179,0.50868
4914.44304,0.50669
4912.51430,0.50483
4910.58555,0.50275
4908.65681,0.50069
4906.72806,0.49904
4904.79932,0.49782
4902.87057,0.49635
4900.94183,0.49447
4899.01308,0.49250
4897.08434,0.49035
4895.15559,0.48835
4893.22684,0.48706
4891.29810,0.48603
4889.36935,0.48413
4887.44061,0.48101
4885.51186,0.47823
4883.58312,0.47718
4881.65437,0.47688
4879.72563,0.47585
4877.79688,0.47400
4875.86814,0.47171
4873.93939,0.46940
4872.01065,0.46776
4870.08190,0.46682
4868.15316,0.46607
4866.22441,0.46529
4864.29566,0.46454
4862.36692,0.46365
4860.43817,0.46237
4858.50943,0.46087
4856.58068,0.45931
4854.65194,0.45764
4852.72319,0.45603
4850.79445,0.45446
4848.86570,0.45316
4846.93696,0.45243
4845.00821,0.45182
4843.07947,0.45104
4841.15072,0.45019
4839.22198,0.44900
4837.29323,0.44744
4835.36449,0.44607
4833.43574,0.44528
4831.50699,0.44470
4829.57825,0.44383
4827.64950,0.44277
4825.72076,0.44167
4823.79201,0.44060
4821.86327,0.43984
4819.93452,0.43947
4818.00578,0.43893
4816.07703,0.43808
4814.14829,0.43744
4812.21954,0.43713
4810.29080,0.43682
4808.36205,0.43648
4806.43331,0.43607
4804.50456,0.43542
4802.57582,0.43463
4800.64707,0.43394
4798.71832,0.43349
4796.78958,0.43294
4794.86083,0.43208
4792.93209,0.43142
4791.00334,0.43126
4789.07460,0.43116
4787.14585,0.43076
4785.21711,0.43017
4783.28836,0.42967
4781.35962,0.42941
4779.43087,0.42936
4777.50213,0.42953
4775.57338,0.42982
4773.64464,0.43006
4771.71589,0.43011
4769.78714,0.42993
4767.85840,0.42988
4765.92965,0.43013
4764.00091,0.43036
4762.07216,0.43060
4760.14342,0.43099
4758.21467,0.43154
4756.28593,0.43217
4754.35718,0.43262
4752.42844,0.43295
4750.49969,0.43334
4748.57095,0.43377
4746.64220,0.43432
4744.71346,0.43482
4742.78471,0.43529
4740.85597,0.43641
4738.92722,0.43803
4736.99847,0.43893
4735.06973,0.43894
4733.14098,0.43885
4731.21224,0.43914
4729.28349,0.43980
4727.35475,0.44030
4725.42600,0.44048
4723.49726,0.44103
4721.56851,0.44213
4719.63977,0.44298
4717.71102,0.44331
4715.78228,0.44365
4713.85353,0.44444
4711.92479,0.44556
4709.99604,0.44633
4708.06729,0.44650
4706.13855,0.44689
4704.20980,0.44821
4702.28106,0.44980
4700.35231,0.45075
4698.42357,0.45138
4696.49482,0.45228
4694.56608,0.45324
4692.63733,0.45386
4690.70859,0.45442
4688.77984,0.45535
4686.85110,0.45650
4684.92235,0.45759
4682.99361,0.45846
4681.06486,0.45926
4679.13612,0.46010
4677.20737,0.46061
4675.27862,0.46092
4673.34988,0.46151
4671.42113,0.46236
4669.49239,0.46327
4667.56364,0.46420
4665.63490,0.46508
4663.70615,0.46562
4661.77741,0.46565
4659.84866,0.46585
4657.91992,0.46685
4655.99117,0.46832
4654.06243,0.46972
4652.13368,0.47077
4650.20494,0.47149
4648.27619,0.47235
4646.34745,0.47346
4644.41870,0.47440
4642.48995,0.47522
4640.56121,0.47587
4638.63246,0.47613
4636.70372,0.47639
4634.77497,0.47700
4632.84623,0.47760
4630.91748,0.47804
4628.98874,0.47857
4627.05999,0.47947
4625.13125,0.48065
4623.20250,0.48165
4621.27376,0.48212
4619.34501,0.48246
4617.41627,0.48331
4615.48752,0.48449
4613.55877,0.48539
4611.63003,0.48581
4609.70128,0.48599
4607.77254,0.48605
4605.84379,0.48623
4603.91505,0.48693
4601.98630,0.48800
4600.05756,0.48893
4598.12881,0.48984
4596.20007,0.49085
4594.27132,0.49165
4592.34258,0.49211
4590.41383,0.49225
4588.48509,0.49219
4586.55634,0.49238
4584.62760,0.49319
4582.69885,0.49441
4580.77010,0.49555
4578.84136,0.49629
4576.91261,0.49655
4574.98387,0.49657
4573.05512,0.49676
4571.12638,0.49724
4569.19763,0.49795
4567.26889,0.49880
4565.34014,0.49946
4563.41140,0.49966
4561.48265,0.49974
4559.55391,0.50023
4557.62516,0.50113
4555.69642,0.50221
4553.76767,0.50298
4551.83893,0.50310
4549.91018,0.50318
4547.98143,0.50364
4546.05269,0.50411
4544.12394,0.50438
4542.19520,0.50472
4540.26645,0.50536
4538.33771,0.50618
4536.40896,0.50683
4534.48022,0.50734
4532.55147,0.50780
4530.62273,0.50795
4528.69398,0.50764
4526.76524,0.50731
4524.83649,0.50746
4522.90775,0.50812
4520.97900,0.50896
4519.05025,0.50971
4517.12151,0.51052
4515.19276,0.51137
4513.26402,0.51180
4511.33527,0.51160
4509.40653,0.51120
4507.47778,0.51117
4505.54904,0.51168
4503.62029,0.51240
4501.69155,0.51285
4499.76280,0.51291
4497.83406,0.51289
4495.90531,0.51283
4493.97657,0.51258
4492.04782,0.51228
4490.11908,0.51214
4488.19033,0.51215
4486.26158,0.51226
4484.33284,0.51220
4482.40409,0.51165
4480.47535,0.51093
4478.54660,0.51068
4476.61786,0.51066
4474.68911,0.51014
4472.76037,0.50899
4470.83162,0.50774
4468.90288,0.50677
4466.97413,0.50581
4465.04539,0.50450
4463.11664,0.50304
4461.18790,0.50157
4459.25915,0.49980
4457.33041,0.49780
4455.40166,0.49598
4453.47291,0.49429
4451.54417,0.49240
4449.61542,0.49028
4447.68668,0.48804
4445.75793,0.48559
4443.82919,0.48303
4441.90044,0.48060
4439.97170,0.47814
4438.04295,0.47546
4436.11421,0.47262
4434.18546,0.46999
4432.25672,0.46802
4430.32797,0.46624
4428.39923,0.46391
4426.47048,0.46125
4424.54173,0.45877
4422.61299,0.45646
4420.68424,0.45439
4418.75550,0.45264
4416.82675,0.45104
4414.89801,0.44969
4412.96926,0.44864
4411.04052,0.44768
4409.11177,0.44680
4407.18303,0.44594
4405.25428,0.44503
4403.32554,0.44439
4401.39679,0.44421
4399.46805,0.44396
4397.53930,0.44335
4395.61056,0.44252
4393.68181,0.44157
4391.75306,0.44069
4389.82432,0.44017
4387.89557,0.44009
4385.96683,0.44014
4384.03808,0.43985
4382.10934,0.43952
4380.18059,0.44000
4378.25185,0.44111
4376.32310,0.44200
4374.39436,0.44254
4372.46561,0.44288
4370.53687,0.44313
4368.60812,0.44346
4366.67938,0.44371
4364.75063,0.44358
4362.82189,0.44314
4360.89314,0.44272
4358.96439,0.44229
4357.03565,0.44168
4355.10690,0.44096
4353.17816,0.44022
4351.24941,0.43955
4349.32067,0.43904
4347.39192,0.43851
4345.46318,0.43769
4343.53443,0.43655
4341.60569,0.43538
4339.67694,0.43447
4337.74820,0.43375
4335.81945,0.43275
4333.89071,0.43130
4331.96196,0.42974
4330.03321,0.42836
4328.10447,0.42716
4326.17572,0.42610
4324.24698,0.42510
4322.31823,0.42388
4320.38949,0.42260
4318.46074,0.42194
4316.53200,0.42183
4314.60325,0.42140
4312.67451,0.42027
4310.74576,0.41879
4308.81702,0.41745
4306.88827,0.41647
4304.95953,0.41576
4303.03078,0.41521
4301.10204,0.41477
4299.17329,0.41443
4297.24454,0.41379
4295.31580,0.41264
4293.38705,0.41171
4291.45831,0.41157
4289.52956,0.41168
4287.60082,0.41138
4285.67207,0.41095
4283.74333,0.41057
4281.81458,0.40994
4279.88584,0.40917
4277.95709,0.40866
4276.02835,0.40854
4274.09960,0.40855
4272.17086,0.40847
4270.24211,0.40834
4268.31336,0.40816
4266.38462,0.40783
4264.45587,0.40730
4262.52713,0.40679
4260.59838,0.40642
4258.66964,0.40592
4256.74089,0.40528
4254.81215,0.40461
4252.88340,0.40397
4250.95466,0.40370
4249.02591,0.40375
4247.09717,0.40384
4245.16842,0.40379
4243.23968,0.40346
4241.31093,0.40319
4239.38219,0.40349
4237.45344,0.40417
4235.52469,0.40482
4233.59595,0.40538
4231.66720,0.40590
4229.73846,0.40636
4227.80971,0.40676
4225.88097,0.40697
4223.95222,0.40702
4222.02348,0.40727
4220.09473,0.40781
4218.16599,0.40819
4216.23724,0.40828
4214.30850,0.40846
4212.37975,0.40863
4210.45101,0.40857
4208.52226,0.40847
4206.59352,0.40843
4204.66477,0.40845
4202.73602,0.40866
4200.80728,0.40892
4198.87853,0.40888
4196.94979,0.40871
4195.02104,0.40890
4193.09230,0.40954
4191.16355,0.41015
4189.23481,0.41033
4187.30606,0.41016
4185.37732,0.41005
4183.44857,0.41008
4181.51983,0.40979
4179.59108,0.40918
4177.66234,0.40877
4175.73359,0.40873
4173.80484,0.40871
4171.87610,0.40844
4169.94735,0.40792
4168.01861,0.40730
4166.08986,0.40667
4164.16112,0.40594
4162.23237,0.40498
4160.30363,0.40401
4158.37488,0.40317
4156.44614,0.40206
4154.51739,0.40066
4152.58865,0.39951
4150.65990,0.39870
4148.73116,0.39775
4146.80241,0.39631
4144.87367,0.39459
4142.94492,0.39303
4141.01617,0.39184
4139.08743,0.39088
4137.15868,0.38995
4135.22994,0.38884
4133.30119,0.38726
4131.37245,0.38561
4129.44370,0.38449
4127.51496,0.38361
4125.58621,0.38241
4123.65747,0.38082
4121.72872,0.37897
4119.79998,0.37714
4117.87123,0.37544
4115.94249,0.37369
4114.01374,0.37191
4112.08500,0.37028
4110.15625,0.36876
4108.22750,0.36710
4106.29876,0.36511
4104.37001,0.36304
4102.44127,0.36107
4100.51252,0.35908
4098.58378,0.35745
4096.65503,0.35629
4094.72629,0.35488
4092.79754,0.35289
4090.86880,0.35062
4088.94005,0.34829
4087.01131,0.34595
4085.08256,0.34366
4083.15382,0.34157
4081.22507,0.33972
4079.29632,0.33788
4077.36758,0.33589
4075.43883,0.33419
4073.51009,0.33282
4071.58134,0.33116
4069.65260,0.32913
4067.72385,0.32710
4065.79511,0.32509
4063.86636,0.32327
4061.93762,0.32189
4060.00887,0.32070
4058.08013,0.31916
4056.15138,0.31712
4054.22264,0.31498
4052.29389,0.31323
4050.36515,0.31178
4048.43640,0.31017
4046.50765,0.30838
4044.57891,0.30682
4042.65016,0.30565
4040.72142,0.30447
4038.79267,0.30298
4036.86393,0.30162
4034.93518,0.30076
4033.00644,0.29997
4031.07769,0.29893
4029.14895,0.29796
4027.22020,0.29713
4025.29146,0.29626
4023.36271,0.29527
4021.43397,0.29420
4019.50522,0.29328
4017.57648,0.29287
4015.64773,0.29269
4013.71898,0.29222
4011.79024,0.29134
4009.86149,0.29042
4007.93275,0.28976
4006.00400,0.28926
4004.07526,0.28895
4002.14651,0.28906
4000.21777,0.28949
3998.28902,0.28995
3996.36028,0.29028
3994.43153,0.29048
3992.50279,0.29062
3990.57404,0.29084
3988.64530,0.29128
3986.71655,0.29185
3984.78780,0.29223
3982.85906,0.29234
3980.93031,0.29236
3979.00157,0.29250
3977.07282,0.29277
3975.14408,0.29291
3973.21533,0.29283
3971.28659,0.29284
3969.35784,0.29306
3967.42910,0.29334
3965.50035,0.29352
3963.57161,0.29355
3961.64286,0.29361
3959.71412,0.29403
3957.78537,0.29469
3955.85663,0.29521
3953.92788,0.29561
3951.99913,0.29598
3950.07039,0.29637
3948.14164,0.29685
3946.21290,0.29748
3944.28415,0.29836
3942.35541,0.29940
3940.42666,0.30036
3938.49792,0.30117
3936.56917,0.30188
3934.64043,0.30282
3932.71168,0.30405
3930.78294,0.30509
3928.85419,0.30592
3926.92545,0.30686
3924.99670,0.30783
3923.06795,0.30870
3921.13921,0.30955
3919.21046,0.31041
3917.28172,0.31134
3915.35297,0.31247
3913.42423,0.31369
3911.49548,0.31466
3909.56674,0.31553
3907.63799,0.31672
3905.70925,0.31810
3903.78050,0.31918
3901.85176,0.32012
3899.92301,0.32133
3897.99427,0.32232
3896.06552,0.32297
3894.13678,0.32376
3892.20803,0.32480
3890.27928,0.32585
3888.35054,0.32682
3886.42179,0.32794
3884.49305,0.32909
3882.56430,0.32991
3880.63556,0.33051
3878.70681,0.33114
3876.77807,0.33198
3874.84932,0.33308
3872.92058,0.33406
3870.99183,0.33491
3869.06309,0.33596
3867.13434,0.33708
3865.20560,0.33847
3863.27685,0.34007
3861.34811,0.34104
3859.41936,0.34139
3857.49061,0.34181
3855.56187,0.34292
3853.63312,0.34479
3851.70438,0.34563
3849.77563,0.34550
3847.84689,0.34573
3845.91814,0.34646
3843.98940,0.34730
3842.06065,0.34798
3840.13191,0.34847
3838.20316,0.34874
3836.27442,0.34901
3834.34567,0.34927
3832.41693,0.34924
3830.48818,0.34910
3828.55943,0.34918
3826.63069,0.34935
3824.70194,0.34950
3822.77320,0.34980
3820.84445,0.34991
3818.91571,0.34950
3816.98696,0.34902
3815.05822,0.34848
3813.12947,0.34782
3811.20073,0.34740
3809.27198,0.34734
3807.34324,0.34733
3805.41449,0.34716
3803.48575,0.34697
3801.55700,0.34654
3799.62826,0.34583
3797.69951,0.34519
3795.77076,0.34436
3793.84202,0.34342
3791.91327,0.34273
3789.98453,0.34212
3788.05578,0.34145
3786.12704,0.34073
3784.19829,0.34009
3782.26955,0.33992
3780.34080,0.33995
3778.41206,0.33940
3776.48331,0.33837
3774.55457,0.33748
3772.62582,0.33694
3770.69708,0.33649
3768.76833,0.33555
3766.83959,0.33422
3764.91084,0.33308
3762.98209,0.33238
3761.05335,0.33187
3759.12460,0.33104
3757.19586,0.32998
3755.26711,0.32914
3753.33837,0.32857
3751.40962,0.32786
3749.48088,0.32642
3747.55213,0.32489
3745.62339,0.32353
3743.69464,0.32196
3741.76590,0.32051
3739.83715,0.31954
3737.90841,0.31874
3735.97966,0.31719
3734.05091,0.31471
3732.12217,0.31211
3730.19342,0.30974
3728.26468,0.30751
3726.33593,0.30529
3724.40719,0.30311
3722.47844,0.30071
3720.54970,0.29778
3718.62095,0.29484
3716.69221,0.29256
3714.76346,0.29065
3712.83472,0.28825
3710.90597,0.28478
3708.97723,0.28116
3707.04848,0.27808
3705.11974,0.27500
3703.19099,0.27140
3701.26224,0.26712
3699.33350,0.26272
3697.40475,0.25842
3695.47601,0.25411
3693.54726,0.25021
3691.61852,0.24639
3689.68977,0.24125
3687.76103,0.23503
3685.83228,0.22949
3683.90354,0.22434
3681.97479,0.21879
3680.04605,0.21320
3678.11730,0.20807
3676.18856,0.20205
3674.25981,0.19487
3672.33107,0.18900
3670.40232,0.18256
3668.47357,0.17454
3666.54483,0.16787
3664.61608,0.16234
3662.68734,0.15671
3660.75859,0.15104
3658.82985,0.14566
3656.90110,0.13984
3654.97236,0.13383
3653.04361,0.12933
3651.11487,0.12545
3649.18612,0.11998
3647.25738,0.11365
3645.32863,0.10865
3643.39989,0.10457
3641.47114,0.10064
3639.54239,0.09686
3637.61365,0.09326
3635.68490,0.08967
3633.75616,0.08643
3631.82741,0.08396
3629.89867,0.08133
3627.96992,0.07765
3626.04118,0.07458
3624.11243,0.07231
3622.18369,0.07007
3620.25494,0.06752
3618.32620,0.06484
3616.39745,0.06269
3614.46871,0.06095
3612.53996,0.05927
3610.61122,0.05742
3608.68247,0.05525
3606.75372,0.05315
3604.82498,0.05158
3602.89623,0.05019
3600.96749,0.04859
3599.03874,0.04721
3597.11000,0.04636
3595.18125,0.04561
3593.25251,0.04443
3591.32376,0.04320
3589.39502,0.04224
3587.46627,0.04120
3585.53753,0.04005
3583.60878,0.03907
3581.68004,0.03816
3579.75129,0.03724
3577.82254,0.03648
3575.89380,0.03567
3573.96505,0.03468
3572.03631,0.03410
3570.10756,0.03409
3568.17882,0.03397
3566.25007,0.03318
3564.32133,0.03218
3562.39258,0.03148
3560.46384,0.03108
3558.53509,0.03073
3556.60635,0.03033
3554.67760,0.02999
3552.74886,0.02970
3550.82011,0.02942
3548.89137,0.02918
3546.96262,0.02893
3545.03387,0.02862
3543.10513,0.02819
3541.17638,0.02761
3539.24764,0.02697
3537.31889,0.02659
3535.39015,0.02661
3533.46140,0.02698
3531.53266,0.02718
3529.60391,0.02676
3527.67517,0.02630
3525.74642,0.02628
3523.81768,0.02615
3521.88893,0.02558
3519.96019,0.02493
3518.03144,0.02458
3516.10270,0.02461
3514.17395,0.02477
3512.24520,0.02488
3510.31646,0.02495
3508.38771,0.02500
3506.45897,0.02491
3504.53022,0.02462
3502.60148,0.02418
3500.67273,0.02387
3498.74399,0.02384
3496.81524,0.02399
3494.88650,0.02412
3492.95775,0.02423
3491.02901,0.02437
3489.10026,0.02438
3487.17152,0.02438
3485.24277,0.02460
3483.31402,0.02486
3481.38528,0.02495
3479.45653,0.02507
3477.52779,0.02521
3475.59904,0.02515
3473.67030,0.02512
3471.74155,0.02524
3469.81281,0.02518
3467.88406,0.02499
3465.95532,0.02509
3464.02657,0.02538
3462.09783,0.02538
3460.16908,0.02528
3458.24034,0.02547
3456.31159,0.02570
3454.38285,0.02580
3452.45410,0.02599
3450.52535,0.02626
3448.59661,0.02643
3446.66786,0.02660
3444.73912,0.02679
3442.81037,0.02659
3440.88163,0.02611
3438.95288,0.02600
3437.02414,0.02623
3435.09539,0.02650
3433.16665,0.02665
3431.23790,0.02652
3429.30916,0.02634
3427.38041,0.02628
3425.45167,0.02629
3423.52292,0.02646
3421.59418,0.02682
3419.66543,0.02706
3417.73668,0.02704
3415.80794,0.02693
3413.87919,0.02679
3411.95045,0.02646
3410.02170,0.02609
3408.09296,0.02594
3406.16421,0.02612
3404.23547,0.02663
3402.30672,0.02709
3400.37798,0.02721
3398.44923,0.02709
3396.52049,0.02679
3394.59174,0.02652
3392.66300,0.02678
3390.73425,0.02759
3388.80550,0.02817
3386.87676,0.02810
3384.94801,0.02761
3383.01927,0.02713
3381.09052,0.02713
3379.16178,0.02765
3377.23303,0.02798
3375.30429,0.02787
3373.37554,0.02777
3371.44680,0.02768
3369.51805,0.02763
3367.58931,0.02796
3365.66056,0.02833
3363.73182,0.02831
3361.80307,0.02793
3359.87433,0.02739
3357.94558,0.02713
3356.01683,0.02734
3354.08809,0.02775
3352.15934,0.02795
3350.23060,0.02782
3348.30185,0.02761
3346.37311,0.02773
3344.44436,0.02812
3342.51562,0.02830
3340.58687,0.02828
3338.65813,0.02834
3336.72938,0.02853
3334.80064,0.02866
3332.87189,0.02855
3330.94315,0.02839
3329.01440,0.02838
3327.08566,0.02845
3325.15691,0.02854
3323.22816,0.02874
3321.29942,0.02902
3319.37067,0.02914
3317.44193,0.02896
3315.51318,0.02871
3313.58444,0.02867
3311.65569,0.02882
3309.72695,0.02891
3307.79820,0.02876
3305.86946,0.02859
3303.94071,0.02858
3302.01197,0.02870
3300.08322,0.02890
3298.15448,0.02887
3296.22573,0.02860
3294.29698,0.02868
3292.36824,0.02918
3290.43949,0.02940
3288.51075,0.02915
3286.58200,0.02891
3284.65326,0.02898
3282.72451,0.02928
3280.79577,0.02956
3278.86702,0.02966
3276.93828,0.02961
3275.00953,0.02945
3273.08079,0.02920
3271.15204,0.02919
3269.22330,0.02945
3267.29455,0.02965
3265.36581,0.02967
3263.43706,0.02952
3261.50831,0.02935
3259.57957,0.02961
3257.65082,0.03023
3255.72208,0.03042
3253.79333,0.03003
3251.86459,0.02971
3249.93584,0.02986
3248.00710,0.03033
3246.07835,0.03071
3244.14961,0.03050
3242.22086,0.02979
3240.29212,0.02931
3238.36337,0.02935
3236.43463,0.02955
3234.50588,0.02993
3232.57713,0.03062
3230.64839,0.03103
3228.71964,0.03096
3226.79090,0.03108
3224.86215,0.03139
3222.93341,0.03137
3221.00466,0.03121
3219.07592,0.03133
3217.14717,0.03163
3215.21843,0.03176
3213.28968,0.03160
3211.36094,0.03131
3209.43219,0.03113
3207.50345,0.03127
3205.57470,0.03169
3203.64596,0.03197
3201.71721,0.03209
3199.78846,0.03218
3197.85972,0.03224
3195.93097,0.03244
3194.00223,0.03270
3192.07348,0.03282
3190.14474,0.03287
3188.21599,0.03297
3186.28725,0.03294
3184.35850,0.03272
3182.42976,0.03271
3180.50101,0.03321
3178.57227,0.03365
3176.64352,0.03356
3174.71478,0.03345
3172.78603,0.03378
3170.85729,0.03420
3168.92854,0.03425
3166.99979,0.03405
3165.07105,0.03397
3163.14230,0.03413
3161.21356,0.03446
3159.28481,0.03469
3157.35607,0.03476
3155.42732,0.03513
3153.49858,0.03579
3151.56983,0.03631
3149.64109,0.03657
3147.71234,0.03666
3145.78360,0.03675
3143.85485,0.03717
3141.92611,0.03780
3139.99736,0.03818
3138.06861,0.03815
3136.13987,0.03813
3134.21112,0.03854
3132.28238,0.03907
3130.35363,0.03922
3128.42489,0.03922
3126.49614,0.03954
3124.56740,0.04014
3122.63865,0.04064
3120.70991,0.04101
3118.78116,0.04131
3116.85242,0.04156
3114.92367,0.04192
3112.99493,0.04255
3111.06618,0.04318
3109.13744,0.04361
3107.20869,0.04408
3105.27994,0.04474
3103.35120,0.04535
3101.42245,0.04581
3099.49371,0.04625
3097.56496,0.04675
3095.63622,0.04733
3093.70747,0.04801
3091.77873,0.04858
3089.84998,0.04903
3087.92124,0.04972
3085.99249,0.05060
3084.06375,0.05128
3082.13500,0.05176
3080.20626,0.05222
3078.27751,0.05273
3076.34877,0.05339
3074.42002,0.05420
3072.49127,0.05515
3070.56253,0.05600
3068.63378,0.05642
3066.70504,0.05677
3064.77629,0.05762
3062.84755,0.05870
3060.91880,0.05958
3058.99006,0.06035
3057.06131,0.06103
3055.13257,0.06148
3053.20382,0.06191
3051.27508,0.06259
3049.34633,0.06346
3047.41759,0.06428
3045.48884,0.06491
3043.56009,0.06560
3041.63135,0.06661
3039.70260,0.06767
3037.77386,0.06836
3035.84511,0.06877
3033.91637,0.06936
3031.98762,0.07029
3030.05888,0.07139
3028.13013,0.07229
3026.20139,0.07285
3024.27264,0.07334
3022.34390,0.07402
3020.41515,0.07474
3018.48641,0.07540
3016.55766,0.07600
3014.62892,0.07641
3012.70017,0.07665
3010.77142,0.07694
3008.84268,0.07719
3006.91393,0.07733
3004.98519,0.07754
3003.05644,0.07773
3001.12770,0.07762
2999.19895,0.07729
2997.27021,0.07686
2995.34146,0.07627
2993.41272,0.07571
2991.48397,0.07520
2989.55523,0.07427
2987.62648,0.07273
2985.69774,0.07096
2983.76899,0.06942
2981.84025,0.06834
2979.91150,0.06775
2977.98275,0.06716
2976.05401,0.06602
2974.12526,0.06433
2972.19652,0.06274
2970.26777,0.06168
2968.33903,0.06081
2966.41028,0.05974
2964.48154,0.05855
2962.55279,0.05728
2960.62405,0.05587
2958.69530,0.05450
2956.76656,0.05338
2954.83781,0.05246
2952.90907,0.05167
2950.98032,0.05091
2949.05157,0.05014
2947.12283,0.04934
2945.19408,0.04841
2943.26534,0.04745
2941.33659,0.04651
2939.40785,0.04554
2937.47910,0.04457
2935.55036,0.04376
2933.62161,0.04317
2931.69287,0.04268
2929.76412,0.04220
2927.83538,0.04166
2925.90663,0.04114
2923.97789,0.04080
2922.04914,0.04057
2920.12040,0.04031
2918.19165,0.04010
2916.26290,0.04010
2914.33416,0.04023
2912.40541,0.04037
2910.47667,0.04044
2908.54792,0.04039
2906.61918,0.04040
2904.69043,0.04044
2902.76169,0.04030
2900.83294,0.04007
2898.90420,0.03996
2896.97545,0.03992
2895.04671,0.03993
2893.11796,0.04009
2891.18922,0.04044
2889.26047,0.04088
2887.33172,0.04125
2885.40298,0.04152
2883.47423,0.04197
2881.54549,0.04268
2879.61674,0.04331
2877.68800,0.04355
2875.75925,0.04372
2873.83051,0.04431
2871.90176,0.04537
2869.97302,0.04658
2868.04427,0.04773
2866.11553,0.04882
2864.18678,0.04986
2862.25804,0.05083
2860.32929,0.05183
2858.40055,0.05277
2856.47180,0.05361
2854.54305,0.05456
2852.61431,0.05556
2850.68556,0.05653
2848.75682,0.05782
2846.82807,0.05962
2844.89933,0.06170
2842.97058,0.06388
2841.04184,0.06592
2839.11309,0.06756
2837.18435,0.06889
2835.25560,0.07026
2833.32686,0.07155
2831.39811,0.07256
2829.46937,0.07346
2827.54062,0.07443
2825.61188,0.07550
2823.68313,0.07670
2821.75438,0.07787
2819.82564,0.07876
2817.89689,0.07945
2815.96815,0.08025
2814.03940,0.08135
2812.11066,0.08272
2810.18191,0.08406
2808.25317,0.08511
2806.32442,0.08594
2804.39568,0.08685
2802.46693,0.08789
2800.53819,0.08892
2798.60944,0.08996
2796.68070,0.09100
2794.75195,0.09206
2792.82320,0.09315
2790.89446,0.09416
2788.96571,0.09490
2787.03697,0.09551
2785.10822,0.09621
2783.17948,0.09699
2781.25073,0.09787
2779.32199,0.09887
2777.39324,0.09978
2775.46450,0.10044
2773.53575,0.10103
2771.60701,0.10183
2769.67826,0.10261
2767.74952,0.10327
2765.82077,0.10405
2763.89203,0.10481
2761.96328,0.10542
2760.03453,0.10606
2758.10579,0.10665
2756.17704,0.10710
2754.24830,0.10740
2752.31955,0.10764
2750.39081,0.10797
2748.46206,0.10835
2746.53332,0.10859
2744.60457,0.10875
2742.67583,0.10889
2740.74708,0.10900
2738.81834,0.10923
2736.88959,0.10966
2734.96085,0.11017
2733.03210,0.11055
2731.10336,0.11085
2729.17461,0.11135
2727.24586,0.11199
2725.31712,0.11253
2723.38837,0.11308
2721.45963,0.11382
2719.53088,0.11466
2717.60214,0.11535
2715.67339,0.11576
2713.74465,0.11623
2711.81590,0.11702
2709.88716,0.11788
2707.95841,0.11854
2706.02967,0.11914
2704.10092,0.11986
2702.17218,0.12068
2700.24343,0.12144
2698.31468,0.12208
2696.38594,0.12274
2694.45719,0.12361
2692.52845,0.12464
2690.59970,0.12567
2688.67096,0.12665
2686.74221,0.12749
2684.81347,0.12818
2682.88472,0.12891
2680.95598,0.12987
2679.02723,0.13095
2677.09849,0.13204
2675.16974,0.13309
2673.24100,0.13406
2671.31225,0.13504
2669.38351,0.13618
2667.45476,0.13732
2665.52601,0.13828
2663.59727,0.13914
2661.66852,0.14004
2659.73978,0.14097
2657.81103,0.14185
2655.88229,0.14270
2653.95354,0.14366
2652.02480,0.14464
2650.09605,0.14552
2648.16731,0.14640
2646.23856,0.14744
2644.30982,0.14851
2642.38107,0.14943
2640.45233,0.15039
2638.52358,0.15157
2636.59484,0.15263
2634.66609,0.15346
2632.73734,0.15442
2630.80860,0.15557
2628.87985,0.15655
2626.95111,0.15720
2625.02236,0.15780
2623.09362,0.15866
2621.16487,0.15987
2619.23613,0.16124
2617.30738,0.16245
2615.37864,0.16341
2613.44989,0.16425
2611.52115,0.16504
2609.59240,0.16569
2607.66366,0.16630
2605.73491,0.16701
2603.80616,0.16778
2601.87742,0.16853
2599.94867,0.16922
2598.01993,0.16983
2596.09118,0.17041
2594.16244,0.17086
2592.23369,0.17130
2590.30495,0.17196
2588.37620,0.17271
2586.44746,0.17317
2584.51871,0.17337
2582.58997,0.17370
2580.66122,0.17426
2578.73248,0.17485
2576.80373,0.17541
2574.87499,0.17604
2572.94624,0.17670
2571.01749,0.17721
2569.08875,0.17756
2567.16000,0.17795
2565.23126,0.17838
2563.30251,0.17863
2561.37377,0.17869
2559.44502,0.17881
2557.51628,0.17922
2555.58753,0.17973
2553.65879,0.17996
2551.73004,0.17999
2549.80130,0.18017
2547.87255,0.18049
2545.94381,0.18073
2544.01506,0.18072
2542.08631,0.18048
2540.15757,0.18033
2538.22882,0.18049
2536.30008,0.18076
2534.37133,0.18099
2532.44259,0.18129
2530.51384,0.18160
2528.58510,0.18183
2526.65635,0.18221
2524.72761,0.18276
2522.79886,0.18313
2520.87012,0.18334
2518.94137,0.18369
2517.01263,0.18422
2515.08388,0.18481
2513.15514,0.18534
2511.22639,0.18584
2509.29764,0.18643
2507.36890,0.18692
2505.44015,0.18717
2503.51141,0.18741
2501.58266,0.18788
2499.65392,0.18844
2497.72517,0.18894
2495.79643,0.18947
2493.86768,0.19011
2491.93894,0.19080
2490.01019,0.19157
2488.08145,0.19241
2486.15270,0.19315
2484.22396,0.19374
2482.29521,0.19449
2480.36647,0.19553
2478.43772,0.19652
2476.50897,0.19731
2474.58023,0.19811
2472.65148,0.19895
2470.72274,0.19963
2468.79399,0.20026
2466.86525,0.20124
2464.93650,0.20250
2463.00776,0.20353
2461.07901,0.20424
2459.15027,0.20498
2457.22152,0.20586
2455.29278,0.20684
2453.36403,0.20789
2451.43529,0.20898
2449.50654,0.21008
2447.57779,0.21119
2445.64905,0.21231
2443.72030,0.21344
2441.79156,0.21456
2439.86281,0.21565
2437.93407,0.21654
2436.00532,0.21718
2434.07658,0.21796
2432.14783,0.21909
2430.21909,0.22023
2428.29034,0.22114
2426.36160,0.22204
2424.43285,0.22309
2422.50411,0.22417
2420.57536,0.22525
2418.64662,0.22631
2416.71787,0.22720
2414.78912,0.22787
2412.86038,0.22850
2410.93163,0.22916
2409.00289,0.22977
2407.07414,0.23045
2405.14540,0.23130
2403.21665,0.23205
2401.28791,0.23253
2399.35916,0.23289
2397.43042,0.23328
2395.50167,0.23373
2393.57293,0.23423
2391.64418,0.23475
2389.71544,0.23529
2387.78669,0.23579
2385.85795,0.23618
2383.92920,0.23650
2382.00045,0.23701
2380.07171,0.23775
2378.14296,0.23841
2376.21422,0.23873
2374.28547,0.23889
2372.35673,0.23922
2370.42798,0.23974
2368.49924,0.24024
2366.57049,0.24053
2364.64175,0.24057
2362.71300,0.24074
2360.78426,0.24131
2358.85551,0.24197
2356.92677,0.24243
2354.99802,0.24287
2353.06927,0.24340
2351.14053,0.24394
2349.21178,0.24455
2347.28304,0.24539
2345.35429,0.24630
2343.42555,0.24693
2341.49680,0.24744
2339.56806,0.24806
2337.63931,0.24850
2335.71057,0.24859
2333.78182,0.24868
2331.85308,0.24907
2329.92433,0.24961
2327.99559,0.24997
2326.06684,0.24997
2324.13810,0.24979
2322.20935,0.24965
2320.28060,0.24959
2318.35186,0.24957
2316.42311,0.24964
2314.49437,0.24989
2312.56562,0.25033
2310.63688,0.25072
2308.70813,0.25073
2306.77939,0.25056
2304.85064,0.25057
2302.92190,0.25074
2300.99315,0.25078
2299.06441,0.25047
2297.13566,0.24996
2295.20692,0.24956
2293.27817,0.24933
2291.34943,0.24904
2289.42068,0.24858
2287.49193,0.24810
2285.56319,0.24774
2283.63444,0.24730
2281.70570,0.24659
2279.77695,0.24576
2277.84821,0.24499
2275.91946,0.24422
2273.99072,0.24330
2272.06197,0.24219
2270.13323,0.24115
2268.20448,0.24039
2266.27574,0.23958
2264.34699,0.23850
2262.41825,0.23748
2260.48950,0.23669
2258.56075,0.23588
2256.63201,0.23492
2254.70326,0.23404
2252.77452,0.23342
2250.84577,0.23283
2248.91703,0.23208
2246.98828,0.23128
2245.05954,0.23061
2243.13079,0.23008
2241.20205,0.22944
2239.27330,0.22869
2237.34456,0.22804
2235.41581,0.22739
2233.48707,0.22673
2231.55832,0.22622
2229.62958,0.22583
2227.70083,0.22543
2225.77208,0.22504
2223.84334,0.22462
2221.91459,0.22405
2219.98585,0.22336
2218.05710,0.22259
2216.12836,0.22184
2214.19961,0.22132
2212.27087,0.22097
2210.34212,0.22049
2208.41338,0.21985
2206.48463,0.21920
2204.55589,0.21875
2202.62714,0.21851
2200.69840,0.21818
2198.76965,0.21769
2196.84090,0.21718
2194.91216,0.21659
2192.98341,0.21583
2191.05467,0.21508
2189.12592,0.21437
2187.19718,0.21354
2185.26843,0.21257
2183.33969,0.21166
2181.41094,0.21088
2179.48220,0.21015
2177.55345,0.20935
2175.62471,0.20852
2173.69596,0.20768
2171.76722,0.20681
2169.83847,0.20603
2167.90973,0.20518
2165.98098,0.20419
2164.05223,0.20335
2162.12349,0.20268
2160.19474,0.20195
2158.26600,0.20128
2156.33725,0.20080
2154.40851,0.20047
2152.47976,0.20021
2150.55102,0.19992
2148.62227,0.19952
2146.69353,0.19909
2144.76478,0.19878
2142.83604,0.19862
2140.90729,0.19854
2138.97855,0.19848
2137.04980,0.19836
2135.12106,0.19816
2133.19231,0.19810
2131.26356,0.19825
2129.33482,0.19836
2127.40607,0.19835
2125.47733,0.19832
2123.54858,0.19845
2121.61984,0.19896
2119.69109,0.19972
2117.76235,0.20050
2115.83360,0.20121
2113.90486,0.20183
2111.97611,0.20245
2110.04737,0.20310
2108.11862,0.20369
2106.18988,0.20432
2104.26113,0.20515
2102.33238,0.20600
2100.40364,0.20666
2098.47489,0.20735
2096.54615,0.20826
2094.61740,0.20921
2092.68866,0.21003
2090.75991,0.21064
2088.83117,0.21109
2086.90242,0.21158
2084.97368,0.21212
2083.04493,0.21249
2081.11619,0.21275
2079.18744,0.21310
2077.25870,0.21353
2075.32995,0.21379
2073.40121,0.21382
2071.47246,0.21378
2069.54371,0.21384
2067.61497,0.21389
2065.68622,0.21378
2063.75748,0.21355
2061.82873,0.21339
2059.89999,0.21343
2057.97124,0.21358
2056.04250,0.21358
2054.11375,0.21350
2052.18501,0.21365
2050.25626,0.21392
2048.32752,0.21407
2046.39877,0.21418
2044.47003,0.21442
2042.54128,0.21482
2040.61254,0.21536
2038.68379,0.21601
2036.75504,0.21677
2034.82630,0.21764
2032.89755,0.21860
2030.96881,0.21958
2029.04006,0.22056
2027.11132,0.22163
2025.18257,0.22297
2023.25383,0.22457
2021.32508,0.22613
2019.39634,0.22745
2017.46759,0.22870
2015.53885,0.22998
2013.61010,0.23120
2011.68136,0.23236
2009.75261,0.23346
2007.82386,0.23449
2005.89512,0.23544
2003.96637,0.23633
2002.03763,0.23715
2000.10888,0.23780
1998.18014,0.23829
1996.25139,0.23867
1994.32265,0.23901
1992.39390,0.23940
1990.46516,0.23973
1988.53641,0.23985
1986.60767,0.24004
1984.67892,0.24063
1982.75018,0.24154
1980.82143,0.24261
1978.89269,0.24384
1976.96394,0.24508
1975.03519,0.24614
1973.10645,0.24711
1971.17770,0.24819
1969.24896,0.24937
1967.32021,0.25060
1965.39147,0.25173
1963.46272,0.25272
1961.53398,0.25374
1959.60523,0.25488
1957.67649,0.25620
1955.74774,0.25757
1953.81900,0.25884
1951.89025,0.26008
1949.96151,0.26133
1948.03276,0.26258
1946.10402,0.26379
1944.17527,0.26504
1942.24652,0.26630
1940.31778,0.26734
1938.38903,0.26824
1936.46029,0.26919
1934.53154,0.27004
1932.60280,0.27072
1930.67405,0.27150
1928.74531,0.27246
1926.81656,0.27344
1924.88782,0.27442
1922.95907,0.27539
1921.03033,0.27620
1919.10158,0.27684
1917.17284,0.27740
1915.24409,0.27798
1913.31534,0.27875
1911.38660,0.27975
1909.45785,0.28081
1907.52911,0.28167
1905.60036,0.28227
1903.67162,0.28282
1901.74287,0.28341
1899.81413,0.28387
1897.88538,0.28424
1895.95664,0.28457
1894.02789,0.28471
1892.09915,0.28464
1890.17040,0.28465
1888.24166,0.28477
1886.31291,0.28491
1884.38417,0.28500
1882.45542,0.28489
1880.52667,0.28457
1878.59793,0.28416
1876.66918,0.28372
1874.74044,0.28329
1872.81169,0.28300
1870.88295,0.28280
1868.95420,0.28238
1867.02546,0.28161
1865.09671,0.28079
1863.16797,0.28010
1861.23922,0.27952
1859.31048,0.27887
1857.38173,0.27800
1855.45299,0.27700
1853.52424,0.27600
1851.59549,0.27490
1849.66675,0.27377
1847.73800,0.27285
1845.80926,0.27210
1843.88051,0.27107
1841.95177,0.26973
1840.02302,0.26846
1838.09428,0.26733
1836.16553,0.26634
1834.23679,0.26549
1832.30804,0.26466
1830.37930,0.26363
1828.45055,0.26235
1826.52181,0.26114
1824.59306,0.25994
1822.66432,0.25869
1820.73557,0.25757
1818.80682,0.25650
1816.87808,0.25522
1814.94933,0.25382
1813.02059,0.25258
1811.09184,0.25135
1809.16310,0.24992
1807.23435,0.24835
1805.30561,0.24666
1803.37686,0.24507
1801.44812,0.24361
1799.51937,0.24201
1797.59063,0.24036
1795.66188,0.23898
1793.73314,0.23767
1791.80439,0.23590
1789.87565,0.23385
1787.94690,0.23208
1786.01815,0.23052
1784.08941,0.22901
1782.16066,0.22752
1780.23192,0.22584
1778.30317,0.22400
1776.37443,0.22229
1774.44568,0.22061
1772.51694,0.21834
1770.58819,0.21556
1768.65945,0.21286
1766.73070,0.21010
1764.80196,0.20739
1762.87321,0.20463
1760.94447,0.20180
1759.01572,0.19951
1757.08697,0.19768
1755.15823,0.19613
1753.22948,0.19473
1751.30074,0.19310
1749.37199,0.19103
1747.44325,0.18865
1745.51450,0.18598
1743.58576,0.18315
1741.65701,0.18025
1739.72827,0.17701
1737.79952,0.17386
1735.87078,0.17080
1733.94203,0.16605
1732.01329,0.16032
1730.08454,0.15538
1728.15580,0.15027
1726.22705,0.14479
1724.29830,0.13882
1722.36956,0.13273
1720.44081,0.12731
1718.51207,0.12103
1716.58332,0.11242
1714.65458,0.10427
1712.72583,0.09770
1710.79709,0.09182
1708.86834,0.08647
1706.93960,0.08123
1705.01085,0.07616
1703.08211,0.07231
1701.15336,0.06899
1699.22462,0.06537
1697.29587,0.06265
1695.36713,0.06034
1693.43838,0.05846
1691.50963,0.05717
1689.58089,0.05589
1687.65214,0.05491
1685.72340,0.05419
1683.79465,0.05319
1681.86591,0.05244
1679.93716,0.05207
1678.00842,0.05181
1676.07967,0.05158
1674.15093,0.05139
1672.22218,0.05122
1670.29344,0.05114
1668.36469,0.05113
1666.43595,0.05118
1664.50720,0.05140
1662.57845,0.05177
1660.64971,0.05219
1658.72096,0.05266
1656.79222,0.05336
1654.86347,0.05424
1652.93473,0.05497
1651.00598,0.05526
1649.07724,0.05562
1647.14849,0.05597
1645.21975,0.05584
1643.29100,0.05574
1641.36226,0.05599
1639.43351,0.05658
1637.50477,0.05748
1635.57602,0.05847
1633.64728,0.05910
1631.71853,0.05966
1629.78978,0.06068
1627.86104,0.06218
1625.93229,0.06371
1624.00355,0.06515
1622.07480,0.06660
1620.14606,0.06791
1618.21731,0.06921
1616.28857,0.07105
1614.35982,0.07308
1612.43108,0.07495
1610.50233,0.07690
1608.57359,0.07888
1606.64484,0.08064
1604.71610,0.08218
1602.78735,0.08368
1600.85861,0.08522
1598.92986,0.08678
1597.00111,0.08838
1595.07237,0.08994
1593.14362,0.09116
1591.21488,0.09214
1589.28613,0.09324
1587.35739,0.09449
1585.42864,0.09586
1583.49990,0.09726
1581.57115,0.09854
1579.64241,0.09967
1577.71366,0.10085
1575.78492,0.10212
1573.85617,0.10322
1571.92743,0.10424
1569.99868,0.10531
1568.06993,0.10617
1566.14119,0.10680
1564.21244,0.10755
1562.28370,0.10843
1560.35495,0.10925
1558.42621,0.10958
1556.49746,0.10927
1554.56872,0.10890
1552.63997,0.10855
1550.71123,0.10826
1548.78248,0.10787
1546.85374,0.10747
1544.92499,0.10725
1542.99625,0.10695
1541.06750,0.10590
1539.13876,0.10372
1537.21001,0.10196
1535.28126,0.10041
1533.35252,0.09805
1531.42377,0.09553
1529.49503,0.09346
1527.56628,0.09097
1525.63754,0.08788
1523.70879,0.08499
1521.78005,0.08177
1519.85130,0.07851
1517.92256,0.07605
1515.99381,0.07365
1514.06507,0.07142
1512.13632,0.06972
1510.20758,0.06854
1508.27883,0.06764
1506.35008,0.06634
1504.42134,0.06535
1502.49259,0.06509
1500.56385,0.06516
1498.63510,0.06525
1496.70636,0.06499
1494.77761,0.06450
1492.84887,0.06415
1490.92012,0.06366
1488.99138,0.06240
1487.06263,0.06033
1485.13389,0.05818
1483.20514,0.05623
1481.27640,0.05420
1479.34765,0.05207
1477.41891,0.05005
1475.49016,0.04815
1473.56141,0.04605
1471.63267,0.04360
1469.70392,0.04187
1467.77518,0.04098
1465.84643,0.04020
1463.91769,0.03936
1461.98894,0.03893
1460.06020,0.03875
1458.13145,0.03820
1456.20271,0.03724
1454.27396,0.03661
1452.34522,0.03607
1450.41647,0.03530
1448.48773,0.03449
1446.55898,0.03386
1444.63024,0.03345
1442.70149,0.03317
1440.77274,0.03307
1438.84400,0.03331
1436.91525,0.03355
1434.98651,0.03330
1433.05776,0.03293
1431.12902,0.03268
1429.20027,0.03234
1427.27153,0.03188
1425.34278,0.03150
1423.41404,0.03135
1421.48529,0.03144
1419.55655,0.03153
1417.62780,0.03142
1415.69906,0.03135
1413.77031,0.03158
1411.84156,0.03193
1409.91282,0.03215
1407.98407,0.03232
1406.05533,0.03247
1404.12658,0.03249
1402.19784,0.03254
1400.26909,0.03262
1398.34035,0.03252
1396.41160,0.03222
1394.48286,0.03177
1392.55411,0.03123
1390.62537,0.03070
1388.69662,0.03013
1386.76788,0.02952
1384.83913,0.02901
1382.91039,0.02856
1380.98164,0.02821
1379.05289,0.02798
1377.12415,0.02787
1375.19540,0.02784
1373.26666,0.02789
1371.33791,0.02800
1369.40917,0.02804
1367.48042,0.02814
1365.55168,0.02860
1363.62293,0.02932
1361.69419,0.03002
1359.76544,0.03064
1357.83670,0.03116
1355.90795,0.03154
1353.97921,0.03189
1352.05046,0.03218
1350.12172,0.03224
1348.19297,0.03214
1346.26422,0.03195
1344.33548,0.03178
1342.40673,0.03166
1340.47799,0.03157
1338.54924,0.03144
1336.62050,0.03120
1334.69175,0.03091
1332.76301,0.03084
1330.83426,0.03112
1328.90552,0.03148
1326.97677,0.03163
1325.04803,0.03160
1323.11928,0.03152
1321.19054,0.03136
1319.26179,0.03104
1317.33304,0.03072
1315.40430,0.03059
1313.47555,0.03074
1311.54681,0.03119
1309.61806,0.03183
1307.68932,0.03241
1305.76057,0.03290
1303.83183,0.03350
1301.90308,0.03426
1299.97434,0.03491
1298.04559,0.03528
1296.11685,0.03548
1294.18810,0.03573
1292.25936,0.03620
1290.33061,0.03670
1288.40187,0.03691
1286.47312,0.03677
1284.54437,0.03623
1282.61563,0.03530
1280.68688,0.03429
1278.75814,0.03372
1276.82939,0.03375
1274.90065,0.03409
1272.97190,0.03435
1271.04316,0.03436
1269.11441,0.03414
1267.18567,0.03387
1265.25692,0.03371
1263.32818,0.03364
1261.39943,0.03367
1259.47069,0.03397
1257.54194,0.03454
1255.61320,0.03508
1253.68445,0.03536
1251.75570,0.03548
1249.82696,0.03559
1247.89821,0.03560
1245.96947,0.03553
1244.04072,0.03540
1242.11198,0.03509
1240.18323,0.03457
1238.25449,0.03394
1236.32574,0.03339
1234.39700,0.03315
1232.46825,0.03326
1230.53951,0.03343
1228.61076,0.03351
1226.68202,0.03361
1224.75327,0.03388
1222.82452,0.03435
1220.89578,0.03477
1218.96703,0.03504
1217.03829,0.03510
1215.10954,0.03478
1213.18080,0.03392
1211.25205,0.03267
1209.32331,0.03129
1207.39456,0.02990
1205.46582,0.02881
1203.53707,0.02810
1201.60833,0.02745
1199.67958,0.02695
1197.75084,0.02695
1195.82209,0.02744
1193.89335,0.02799
1191.96460,0.02817
1190.03585,0.02790
1188.10711,0.02720
1186.17836,0.02626
1184.24962,0.02530
1182.32087,0.02425
1180.39213,0.02330
1178.46338,0.02262
1176.53464,0.02203
1174.60589,0.02161
1172.67715,0.02156
1170.74840,0.02178
1168.81966,0.02230
1166.89091,0.02317
1164.96217,0.02398
1163.03342,0.02463
1161.10467,0.02525
1159.17593,0.02555
1157.24718,0.02547
1155.31844,0.02531
1153.38969,0.02513
1151.46095,0.02477
1149.53220,0.02419
1147.60346,0.02360
1145.67471,0.02301
1143.74597,0.02246
1141.81722,0.02209
1139.88848,0.02164
1137.95973,0.02089
1136.03099,0.02033
1134.10224,0.02025
1132.17350,0.02035
1130.24475,0.02055
1128.31600,0.02098
1126.38726,0.02164
1124.45851,0.02249
1122.52977,0.02349
1120.60102,0.02452
1118.67228,0.02548
1116.74353,0.02626
1114.81479,0.02689
1112.88604,0.02740
1110.95730,0.02754
1109.02855,0.02728
1107.09981,0.02702
1105.17106,0.02687
1103.24232,0.02685
1101.31357,0.02721
1099.38483,0.02778
1097.45608,0.02805
1095.52733,0.02802
1093.59859,0.02807
1091.66984,0.02851
1089.74110,0.02946
1087.81235,0.03087
1085.88361,0.03249
1083.95486,0.03417
1082.02612,0.03582
1080.09737,0.03729
1078.16863,0.03859
1076.23988,0.04002
1074.31114,0.04152
1072.38239,0.04260
1070.45365,0.04303
1068.52490,0.04312
1066.59615,0.04331
1064.66741,0.04355
1062.73866,0.04334
1060.80992,0.04265
1058.88117,0.04224
1056.95243,0.04220
1055.02368,0.04201
1053.09494,0.04159
1051.16619,0.04108
1049.23745,0.04073
1047.30870,0.04084
1045.37996,0.04120
1043.45121,0.04132
1041.52247,0.04117
1039.59372,0.04110
1037.66498,0.04126
1035.73623,0.04146
1033.80748,0.04150
1031.87874,0.04161
1029.94999,0.04224
1028.02125,0.04336
1026.09250,0.04460
1024.16376,0.04581
1022.23501,0.04681
1020.30627,0.04735
1018.37752,0.04747
1016.44878,0.04736
1014.52003,0.04716
1012.59129,0.04692
1010.66254,0.04647
1008.73380,0.04573
1006.80505,0.04498
1004.87631,0.04463
1002.94756,0.04482
1001.01881,0.04539
999.09007,0.04602
997.16132,0.04661
995.23258,0.04739
993.30383,0.04840
991.37509,0.04936
989.44634,0.05024
987.51760,0.05151
985.58885,0.05339
983.66011,0.05547
981.73136,0.05752
979.80262,0.05964
977.87387,0.06135
975.94513,0.06210
974.01638,0.06230
972.08763,0.06251
970.15889,0.06270
968.23014,0.06286
966.30140,0.06331
964.37265,0.06451
962.44391,0.06646
960.51516,0.06893
958.58642,0.07181
956.65767,0.07491
954.72893,0.07799
952.80018,0.08091
950.87144,0.08347
948.94269,0.08552
947.01395,0.08699
945.08520,0.08790
943.15646,0.08849
941.22771,0.08880
939.29896,0.08855
937.37022,0.08790
935.44147,0.08727
933.51273,0.08663
931.58398,0.08588
929.65524,0.08527
927.72649,0.08506
925.79775,0.08492
923.86900,0.08446
921.94026,0.08389
920.01151,0.08325
918.08277,0.08204
916.15402,0.08004
914.22528,0.07737
912.29653,0.07411
910.36779,0.07023
908.43904,0.06605
906.51029,0.06234
904.58155,0.05941
902.65280,0.05688
900.72406,0.05450
898.79531,0.05279
896.86657,0.05257
894.93782,0.05388
893.00908,0.05625
891.08033,0.05956
889.15159,0.06373
887.22284,0.06829
885.29410,0.07265
883.36535,0.07656
881.43661,0.07988
879.50786,0.08223
877.57911,0.08384
875.65037,0.08524
873.72162,0.08633
871.79288,0.08709
869.86413,0.08750
867.93539,0.08736
866.00664,0.08698
864.07790,0.08671
862.14915,0.08623
860.22041,0.08529
858.29166,0.08442
856.36292,0.08386
854.43417,0.08311
852.50543,0.08202
850.57668,0.08076
848.64794,0.07940
846.71919,0.07802
844.79044,0.07668
842.86170,0.07543
840.93295,0.07447
839.00421,0.07377
837.07546,0.07295
835.14672,0.07181
833.21797,0.07051
831.28923,0.06935
829.36048,0.06815
827.43174,0.06665
825.50299,0.06520
823.57425,0.06410
821.64550,0.06308
819.71676,0.06198
817.78801,0.06113
815.85926,0.06068
813.93052,0.06037
812.00177,0.06003
810.07303,0.05975
808.14428,0.05953
806.21554,0.05922
804.28679,0.05881
802.35805,0.05836
800.42930,0.05787
798.50056,0.05725
796.57181,0.05633
794.64307,0.05545
792.71432,0.05519
790.78558,0.05533
788.85683,0.05505
786.92809,0.05419
784.99934,0.05338
783.07059,0.05296
781.14185,0.05262
779.21310,0.05210
777.28436,0.05139
775.35561,0.05063
773.42687,0.04996
771.49812,0.04946
769.56938,0.04920
767.64063,0.04905
765.71189,0.04874
763.78314,0.04810
761.85440,0.04726
759.92565,0.04677
757.99691,0.04661
756.06816,0.04634
754.13942,0.04610
752.21067,0.04611
750.28192,0.04601
748.35318,0.04530
746.42443,0.04431
744.49569,0.04361
742.56694,0.04309
740.63820,0.04273
738.70945,0.04274
736.78071,0.04262
734.85196,0.04175
732.92322,0.04061
730.99447,0.04025
729.06573,0.04051
727.13698,0.04031
725.20824,0.03953
723.27949,0.03912
721.35074,0.03929
719.42200,0.03925
717.49325,0.03894
715.56451,0.03883
713.63576,0.03865
711.70702,0.03826
709.77827,0.03806
707.84953,0.03794
705.92078,0.03771
703.99204,0.03747
702.06329,0.03728
700.13455,0.03707
698.20580,0.03678
696.27706,0.03654
694.34831,0.03621
692.41957,0.03572
690.49082,0.03559
688.56207,0.03559
686.63333,0.03527
684.70458,0.03479
682.77584,0.03423
680.84709,0.03366
678.91835,0.03321
676.98960,0.03289
675.06086,0.03269
673.13211,0.03277
671.20337,0.03330
669.27462,0.03403
667.34588,0.03437
665.41713,0.03441
663.48839,0.03451
661.55964,0.03453
659.63090,0.03468
657.70215,0.03465
655.77340,0.03378
653.84466,0.03294
651.91591,0.03314
649.98717,0.03373
648.05842,0.03394
646.12968,0.03385
644.20093,0.03351
642.27219,0.03312
640.34344,0.03307
638.41470,0.03340
636.48595,0.03349
634.55721,0.03274
632.62846,0.03190
630.69972,0.03189
628.77097,0.03215
626.84222,0.03188
624.91348,0.03128
622.98473,0.03039
621.05599,0.02934
619.12724,0.02925
617.19850,0.03058
615.26975,0.03253
613.34101,0.03391
611.41226,0.03403
609.48352,0.03422
607.55477,0.03544
605.62603,0.03617
603.69728,0.03529
601.76854,0.03390
599.83979,0.03319
