7497.03301,0.82070
7495.10426,0.82120
7493.17552,0.81948
7491.24677,0.81898
7489.31803,0.81990
7487.38928,0.81790
7485.46054,0.81322
7483.53179,0.80977
7481.60305,0.81031
7479.67430,0.81306
7477.74556,0.81382
7475.81681,0.81332
7473.88807,0.81312
7471.95932,0.81187
7470.03057,0.81188
7468.10183,0.81315
7466.17308,0.81206
7464.24434,0.81142
7462.31559,0.81256
7460.38685,0.81188
7458.45810,0.80937
7456.52936,0.80491
7454.60061,0.79948
7452.67187,0.79824
7450.74312,0.80050
7448.81438,0.80346
7446.88563,0.80776
7444.95689,0.80920
7443.02814,0.80570
7441.09940,0.80436
7439.17065,0.80866
7437.24190,0.81208
7435.31316,0.80892
7433.38441,0.80420
7431.45567,0.80351
7429.52692,0.80440
7427.59818,0.80519
7425.66943,0.80467
7423.74069,0.80107
7421.81194,0.79971
7419.88320,0.80368
7417.95445,0.80554
7416.02571,0.80021
7414.09696,0.79273
7412.16822,0.78952
7410.23947,0.79079
7408.31073,0.79384
7406.38198,0.79714
7404.45323,0.79769
7402.52449,0.79462
7400.59574,0.79188
7398.66700,0.79067
7396.73825,0.79169
7394.80951,0.79504
7392.88076,0.79577
7390.95202,0.79321
7389.02327,0.79025
7387.09453,0.78726
7385.16578,0.78648
7383.23704,0.78963
7381.30829,0.79351
7379.37955,0.79403
7377.45080,0.79182
7375.52205,0.78915
7373.59331,0.78596
7371.66456,0.78300
7369.73582,0.78148
7367.80707,0.78073
7365.87833,0.77848
7363.94958,0.77423
7362.02084,0.77180
7360.09209,0.77324
7358.16335,0.77525
7356.23460,0.77575
7354.30586,0.77611
7352.37711,0.77738
7350.44837,0.78000
7348.51962,0.78147
7346.59088,0.77748
7344.66213,0.77275
7342.73338,0.77397
7340.80464,0.77629
7338.87589,0.77418
7336.94715,0.77245
7335.01840,0.77504
7333.08966,0.77810
7331.16091,0.77684
7329.23217,0.77220
7327.30342,0.76912
7325.37468,0.76986
7323.44593,0.77143
7321.51719,0.77051
7319.58844,0.76800
7317.65970,0.76618
7315.73095,0.76515
7313.80221,0.76488
7311.87346,0.76560
7309.94471,0.76712
7308.01597,0.76967
7306.08722,0.77289
7304.15848,0.77503
7302.22973,0.77469
7300.30099,0.77380
7298.37224,0.77554
7296.44350,0.77791
7294.51475,0.77649
7292.58601,0.77215
7290.65726,0.76981
7288.72852,0.77029
7286.79977,0.76876
7284.87103,0.76244
7282.94228,0.75490
7281.01353,0.75129
7279.08479,0.75471
7277.15604,0.76209
7275.22730,0.76346
7273.29855,0.75734
7271.36981,0.75520
7269.44106,0.76002
7267.51232,0.76265
7265.58357,0.75990
7263.65483,0.75875
7261.72608,0.76219
7259.79734,0.76439
7257.86859,0.76461
7255.93985,0.76733
7254.01110,0.76923
7252.08236,0.76653
7250.15361,0.76355
7248.22486,0.76301
7246.29612,0.76182
7244.36737,0.75985
7242.43863,0.76144
7240.50988,0.76547
7238.58114,0.76739
7236.65239,0.76782
7234.72365,0.76863
7232.79490,0.76882
7230.86616,0.76716
7228.93741,0.76578
7227.00867,0.76600
7225.07992,0.76536
7223.15118,0.76366
7221.22243,0.76414
7219.29369,0.76570
7217.36494,0.76388
7215.43619,0.75999
7213.50745,0.75723
7211.57870,0.75524
7209.64996,0.75463
7207.72121,0.75586
7205.79247,0.75622
7203.86372,0.75386
7201.93498,0.75108
7200.00623,0.75050
7198.07749,0.75162
7196.14874,0.75276
7194.22000,0.75364
7192.29125,0.75439
7190.36251,0.75426
7188.43376,0.75302
7186.50501,0.74973
7184.57627,0.74494
7182.64752,0.74294
7180.71878,0.74365
7178.79003,0.74397
7176.86129,0.74656
7174.93254,0.75123
7173.00380,0.75056
7171.07505,0.74507
7169.14631,0.74205
7167.21756,0.73953
7165.28882,0.73513
7163.36007,0.73423
7161.43133,0.73689
7159.50258,0.73863
7157.57384,0.73920
7155.64509,0.73958
7153.71634,0.73914
7151.78760,0.73742
7149.85885,0.73644
7147.93011,0.73739
7146.00136,0.73655
7144.07262,0.73299
7142.14387,0.72949
7140.21513,0.72655
7138.28638,0.72649
7136.35764,0.73065
7134.42889,0.73450
7132.50015,0.73370
7130.57140,0.72914
7128.64266,0.72605
7126.71391,0.72616
7124.78516,0.72434
7122.85642,0.71998
7120.92767,0.71883
7118.99893,0.71925
7117.07018,0.71550
7115.14144,0.71126
7113.21269,0.71041
7111.28395,0.70873
7109.35520,0.70371
7107.42646,0.69897
7105.49771,0.69749
7103.56897,0.69852
7101.64022,0.70068
7099.71148,0.70137
7097.78273,0.69976
7095.85399,0.69841
7093.92524,0.69772
7091.99649,0.69644
7090.06775,0.69335
7088.13900,0.68945
7086.21026,0.68701
7084.28151,0.68489
7082.35277,0.68196
7080.42402,0.67922
7078.49528,0.67855
7076.56653,0.67901
7074.63779,0.67715
7072.70904,0.67591
7070.78030,0.67785
7068.85155,0.67647
7066.92281,0.66917
7064.99406,0.66239
7063.06532,0.65968
7061.13657,0.65856
7059.20782,0.65775
7057.27908,0.65790
7055.35033,0.65827
7053.42159,0.65750
7051.49284,0.65367
7049.56410,0.64799
7047.63535,0.64540
7045.70661,0.64585
7043.77786,0.64560
7041.84912,0.64378
7039.92037,0.64054
7037.99163,0.63724
7036.06288,0.63594
7034.13414,0.63550
7032.20539,0.63409
7030.27664,0.63232
7028.34790,0.63050
7026.41915,0.62804
7024.49041,0.62615
7022.56166,0.62530
7020.63292,0.62248
7018.70417,0.61710
7016.77543,0.61376
7014.84668,0.61466
7012.91794,0.61575
7010.98919,0.61481
7009.06045,0.61451
7007.13170,0.61367
7005.20296,0.60959
7003.27421,0.60696
7001.34547,0.60863
6999.41672,0.60873
6997.48797,0.60562
6995.55923,0.60465
6993.63048,0.60641
6991.70174,0.60742
6989.77299,0.60622
6987.84425,0.60201
6985.91550,0.59574
6983.98676,0.59159
6982.05801,0.59173
6980.12927,0.59374
6978.20052,0.59500
6976.27178,0.59460
6974.34303,0.59285
6972.41429,0.59197
6970.48554,0.59304
6968.55680,0.59355
6966.62805,0.59104
6964.69930,0.58671
6962.77056,0.58437
6960.84181,0.58348
6958.91307,0.58122
6956.98432,0.58081
6955.05558,0.58266
6953.12683,0.58193
6951.19809,0.58046
6949.26934,0.58206
6947.34060,0.58356
6945.41185,0.58261
6943.48311,0.58268
6941.55436,0.58507
6939.62562,0.58611
6937.69687,0.58389
6935.76812,0.58135
6933.83938,0.58099
6931.91063,0.58092
6929.98189,0.57940
6928.05314,0.57813
6926.12440,0.57936
6924.19565,0.58262
6922.26691,0.58426
6920.33816,0.58158
6918.40942,0.57645
6916.48067,0.57353
6914.55193,0.57401
6912.62318,0.57382
6910.69444,0.57062
6908.76569,0.56689
6906.83695,0.56578
6904.90820,0.56664
6902.97945,0.56751
6901.05071,0.57010
6899.12196,0.57407
6897.19322,0.57536
6895.26447,0.57481
6893.33573,0.57411
6891.40698,0.57153
6889.47824,0.56819
6887.54949,0.56675
6885.62075,0.56742
6883.69200,0.56810
6881.76326,0.56695
6879.83451,0.56543
6877.90577,0.56480
6875.97702,0.56426
6874.04828,0.56402
6872.11953,0.56543
6870.19078,0.56829
6868.26204,0.56975
6866.33329,0.56811
6864.40455,0.56556
6862.47580,0.56473
6860.54706,0.56503
6858.61831,0.56487
6856.68957,0.56415
6854.76082,0.56238
6852.83208,0.55981
6850.90333,0.55877
6848.97459,0.56037
6847.04584,0.56278
6845.11710,0.56308
6843.18835,0.56177
6841.25960,0.56256
6839.33086,0.56379
6837.40211,0.56053
6835.47337,0.55608
6833.54462,0.55542
6831.61588,0.55669
6829.68713,0.55789
6827.75839,0.55863
6825.82964,0.55842
6823.90090,0.55749
6821.97215,0.55571
6820.04341,0.55421
6818.11466,0.55475
6816.18592,0.55623
6814.25717,0.55688
6812.32843,0.55713
6810.39968,0.55662
6808.47093,0.55409
6806.54219,0.55213
6804.61344,0.55389
6802.68470,0.55658
6800.75595,0.55590
6798.82721,0.55315
6796.89846,0.55271
6794.96972,0.55504
6793.04097,0.55740
6791.11223,0.55902
6789.18348,0.56019
6787.25474,0.56016
6785.32599,0.55889
6783.39725,0.55820
6781.46850,0.55922
6779.53975,0.55964
6777.61101,0.55780
6775.68226,0.55563
6773.75352,0.55416
6771.82477,0.55292
6769.89603,0.55192
6767.96728,0.55202
6766.03854,0.55485
6764.10979,0.55926
6762.18105,0.56186
6760.25230,0.56184
6758.32356,0.56010
6756.39481,0.55722
6754.46607,0.55440
6752.53732,0.55284
6750.60858,0.55297
6748.67983,0.55448
6746.75108,0.55539
6744.82234,0.55539
6742.89359,0.55717
6740.96485,0.56074
6739.03610,0.56342
6737.10736,0.56312
6735.17861,0.55948
6733.24987,0.55634
6731.32112,0.55747
6729.39238,0.56080
6727.46363,0.56261
6725.53489,0.56226
6723.60614,0.56146
6721.67740,0.56179
6719.74865,0.56305
6717.81991,0.56325
6715.89116,0.56047
6713.96241,0.55702
6712.03367,0.55781
6710.10492,0.56207
6708.17618,0.56502
6706.24743,0.56576
6704.31869,0.56506
6702.38994,0.56377
6700.46120,0.56429
6698.53245,0.56589
6696.60371,0.56511
6694.67496,0.56288
6692.74622,0.56270
6690.81747,0.56313
6688.88873,0.56229
6686.95998,0.56326
6685.03123,0.56677
6683.10249,0.56865
6681.17374,0.56752
6679.24500,0.56646
6677.31625,0.56765
6675.38751,0.56997
6673.45876,0.57091
6671.53002,0.56853
6669.60127,0.56421
6667.67253,0.56202
6665.74378,0.56289
6663.81504,0.56481
6661.88629,0.56669
6659.95755,0.56843
6658.02880,0.57069
6656.10006,0.57355
6654.17131,0.57536
6652.24256,0.57514
6650.31382,0.57361
6648.38507,0.57179
6646.45633,0.57093
6644.52758,0.57140
6642.59884,0.57245
6640.67009,0.57370
6638.74135,0.57404
6636.81260,0.57298
6634.88386,0.57315
6632.95511,0.57581
6631.02637,0.57808
6629.09762,0.57789
6627.16888,0.57767
6625.24013,0.57994
6623.31139,0.58310
6621.38264,0.58446
6619.45389,0.58350
6617.52515,0.58273
6615.59640,0.58389
6613.66766,0.58416
6611.73891,0.58270
6609.81017,0.58343
6607.88142,0.58646
6605.95268,0.58742
6604.02393,0.58625
6602.09519,0.58680
6600.16644,0.58885
6598.23770,0.58916
6596.30895,0.58799
6594.38021,0.58706
6592.45146,0.58638
6590.52271,0.58635
6588.59397,0.58787
6586.66522,0.59036
6584.73648,0.59196
6582.80773,0.59231
6580.87899,0.59241
6578.95024,0.59228
6577.02150,0.59209
6575.09275,0.59212
6573.16401,0.59232
6571.23526,0.59345
6569.30652,0.59535
6567.37777,0.59638
6565.44903,0.59629
6563.52028,0.59561
6561.59154,0.59390
6559.66279,0.59185
6557.73404,0.59165
6555.80530,0.59408
6553.87655,0.59728
6551.94781,0.59906
6550.01906,0.59922
6548.09032,0.59872
6546.16157,0.59898
6544.23283,0.59967
6542.30408,0.59928
6540.37534,0.59877
6538.44659,0.59966
6536.51785,0.60182
6534.58910,0.60313
6532.66036,0.60178
6530.73161,0.59979
6528.80287,0.59973
6526.87412,0.60016
6524.94537,0.59889
6523.01663,0.59815
6521.08788,0.60051
6519.15914,0.60373
6517.23039,0.60551
6515.30165,0.60533
6513.37290,0.60356
6511.44416,0.60307
6509.51541,0.60450
6507.58667,0.60467
6505.65792,0.60298
6503.72918,0.60150
6501.80043,0.60088
6499.87169,0.60080
6497.94294,0.60107
6496.01419,0.60113
6494.08545,0.60148
6492.15670,0.60413
6490.22796,0.60781
6488.29921,0.60849
6486.37047,0.60625
6484.44172,0.60409
6482.51298,0.60370
6480.58423,0.60524
6478.65549,0.60685
6476.72674,0.60647
6474.79800,0.60528
6472.86925,0.60626
6470.94051,0.60871
6469.01176,0.60893
6467.08302,0.60653
6465.15427,0.60525
6463.22552,0.60688
6461.29678,0.60877
6459.36803,0.60806
6457.43929,0.60502
6455.51054,0.60297
6453.58180,0.60412
6451.65305,0.60622
6449.72431,0.60624
6447.79556,0.60448
6445.86682,0.60300
6443.93807,0.60272
6442.00933,0.60273
6440.08058,0.60208
6438.15184,0.60191
6436.22309,0.60329
6434.29434,0.60485
6432.36560,0.60512
6430.43685,0.60421
6428.50811,0.60311
6426.57936,0.60324
6424.65062,0.60458
6422.72187,0.60508
6420.79313,0.60419
6418.86438,0.60371
6416.93564,0.60457
6415.00689,0.60580
6413.07815,0.60544
6411.14940,0.60369
6409.22066,0.60291
6407.29191,0.60363
6405.36317,0.60500
6403.43442,0.60651
6401.50567,0.60774
6399.57693,0.60835
6397.64818,0.60847
6395.71944,0.60822
6393.79069,0.60747
6391.86195,0.60653
6389.93320,0.60575
6388.00446,0.60555
6386.07571,0.60633
6384.14697,0.60699
6382.21822,0.60680
6380.28948,0.60640
6378.36073,0.60545
6376.43199,0.60354
6374.50324,0.60204
6372.57450,0.60183
6370.64575,0.60208
6368.71700,0.60246
6366.78826,0.60335
6364.85951,0.60388
6362.93077,0.60386
6361.00202,0.60377
6359.07328,0.60243
6357.14453,0.60071
6355.21579,0.60147
6353.28704,0.60423
6351.35830,0.60638
6349.42955,0.60632
6347.50081,0.60420
6345.57206,0.60183
6343.64332,0.60132
6341.71457,0.60260
6339.78582,0.60413
6337.85708,0.60608
6335.92833,0.60896
6333.99959,0.61133
6332.07084,0.61169
6330.14210,0.60977
6328.21335,0.60726
6326.28461,0.60740
6324.35586,0.61019
6322.42712,0.61171
6320.49837,0.61076
6318.56963,0.60927
6316.64088,0.60803
6314.71214,0.60745
6312.78339,0.60827
6310.85465,0.60971
6308.92590,0.61021
6306.99715,0.61002
6305.06841,0.60967
6303.13966,0.60948
6301.21092,0.61056
6299.28217,0.61273
6297.35343,0.61420
6295.42468,0.61420
6293.49594,0.61387
6291.56719,0.61407
6289.63845,0.61468
6287.70970,0.61550
6285.78096,0.61546
6283.85221,0.61489
6281.92347,0.61562
6279.99472,0.61775
6278.06598,0.61979
6276.13723,0.61995
6274.20848,0.61814
6272.27974,0.61671
6270.35099,0.61672
6268.42225,0.61719
6266.49350,0.61813
6264.56476,0.61916
6262.63601,0.61933
6260.70727,0.61995
6258.77852,0.62125
6256.84978,0.62128
6254.92103,0.62090
6252.99229,0.62158
6251.06354,0.62182
6249.13480,0.62106
6247.20605,0.62102
6245.27730,0.62201
6243.34856,0.62285
6241.41981,0.62299
6239.49107,0.62330
6237.56232,0.62443
6235.63358,0.62542
6233.70483,0.62623
6231.77609,0.62760
6229.84734,0.62911
6227.91860,0.63060
6225.98985,0.63139
6224.06111,0.63067
6222.13236,0.62963
6220.20362,0.62974
6218.27487,0.63074
6216.34613,0.63107
6214.41738,0.63074
6212.48863,0.63157
6210.55989,0.63270
6208.63114,0.63198
6206.70240,0.63095
6204.77365,0.63161
6202.84491,0.63276
6200.91616,0.63354
6198.98742,0.63438
6197.05867,0.63532
6195.12993,0.63694
6193.20118,0.63839
6191.27244,0.63820
6189.34369,0.63756
6187.41495,0.63722
6185.48620,0.63714
6183.55746,0.63806
6181.62871,0.63921
6179.69996,0.63977
6177.77122,0.64098
6175.84247,0.64252
6173.91373,0.64210
6171.98498,0.64090
6170.05624,0.64143
6168.12749,0.64247
6166.19875,0.64251
6164.27000,0.64185
6162.34126,0.64093
6160.41251,0.64105
6158.48377,0.64338
6156.55502,0.64651
6154.62628,0.64813
6152.69753,0.64788
6150.76878,0.64671
6148.84004,0.64631
6146.91129,0.64831
6144.98255,0.65069
6143.05380,0.64978
6141.12506,0.64656
6139.19631,0.64567
6137.26757,0.64833
6135.33882,0.65115
6133.41008,0.65139
6131.48133,0.65043
6129.55259,0.65080
6127.62384,0.65153
6125.69510,0.65134
6123.76635,0.65199
6121.83761,0.65358
6119.90886,0.65385
6117.98011,0.65304
6116.05137,0.65307
6114.12262,0.65394
6112.19388,0.65506
6110.26513,0.65709
6108.33639,0.65916
6106.40764,0.65928
6104.47890,0.65818
6102.55015,0.65779
6100.62141,0.65841
6098.69266,0.65941
6096.76392,0.66001
6094.83517,0.65924
6092.90643,0.65770
6090.97768,0.65761
6089.04893,0.65965
6087.12019,0.66200
6085.19144,0.66305
6083.26270,0.66310
6081.33395,0.66252
6079.40521,0.66179
6077.47646,0.66228
6075.54772,0.66411
6073.61897,0.66567
6071.69023,0.66560
6069.76148,0.66463
6067.83274,0.66452
6065.90399,0.66479
6063.97525,0.66489
6062.04650,0.66640
6060.11776,0.66882
6058.18901,0.66932
6056.26026,0.66841
6054.33152,0.66859
6052.40277,0.66957
6050.47403,0.66978
6048.54528,0.66926
6046.61654,0.66941
6044.68779,0.67059
6042.75905,0.67147
6040.83030,0.67115
6038.90156,0.67065
6036.97281,0.67144
6035.04407,0.67322
6033.11532,0.67462
6031.18658,0.67498
6029.25783,0.67481
6027.32909,0.67516
6025.40034,0.67613
6023.47159,0.67700
6021.54285,0.67682
6019.61410,0.67548
6017.68536,0.67456
6015.75661,0.67515
6013.82787,0.67688
6011.89912,0.67910
6009.97038,0.68064
6008.04163,0.68019
6006.11289,0.67822
6004.18414,0.67670
6002.25540,0.67640
6000.32665,0.67654
5998.39791,0.67689
5996.46916,0.67780
5994.54041,0.67891
5992.61167,0.68009
5990.68292,0.68124
5988.75418,0.68170
5986.82543,0.68108
5984.89669,0.67993
5982.96794,0.67968
5981.03920,0.68045
5979.11045,0.68122
5977.18171,0.68215
5975.25296,0.68339
5973.32422,0.68425
5971.39547,0.68387
5969.46673,0.68236
5967.53798,0.68155
5965.60924,0.68138
5963.68049,0.68013
5961.75174,0.67900
5959.82300,0.67943
5957.89425,0.68010
5955.96551,0.67966
5954.03676,0.67827
5952.10802,0.67746
5950.17927,0.67792
5948.25053,0.67815
5946.32178,0.67719
5944.39304,0.67538
5942.46429,0.67355
5940.53555,0.67310
5938.60680,0.67373
5936.67806,0.67347
5934.74931,0.67272
5932.82057,0.67274
5930.89182,0.67228
5928.96307,0.67092
5927.03433,0.67018
5925.10558,0.67042
5923.17684,0.67109
5921.24809,0.67180
5919.31935,0.67172
5917.39060,0.67080
5915.46186,0.66993
5913.53311,0.66883
5911.60437,0.66810
5909.67562,0.66875
5907.74688,0.66904
5905.81813,0.66814
5903.88939,0.66736
5901.96064,0.66685
5900.03189,0.66626
5898.10315,0.66590
5896.17440,0.66592
5894.24566,0.66576
5892.31691,0.66512
5890.38817,0.66441
5888.45942,0.66374
5886.53068,0.66312
5884.60193,0.66349
5882.67319,0.66522
5880.74444,0.66651
5878.81570,0.66593
5876.88695,0.66463
5874.95821,0.66432
5873.02946,0.66455
5871.10072,0.66377
5869.17197,0.66207
5867.24322,0.66142
5865.31448,0.66293
5863.38573,0.66519
5861.45699,0.66685
5859.52824,0.66768
5857.59950,0.66738
5855.67075,0.66595
5853.74201,0.66405
5851.81326,0.66283
5849.88452,0.66263
5847.95577,0.66269
5846.02703,0.66244
5844.09828,0.66169
5842.16954,0.66048
5840.24079,0.65923
5838.31205,0.65829
5836.38330,0.65772
5834.45455,0.65775
5832.52581,0.65820
5830.59706,0.65811
5828.66832,0.65723
5826.73957,0.65583
5824.81083,0.65449
5822.88208,0.65358
5820.95334,0.65294
5819.02459,0.65295
5817.09585,0.65293
5815.16710,0.65161
5813.23836,0.65049
5811.30961,0.65160
5809.38087,0.65343
5807.45212,0.65314
5805.52337,0.65147
5803.59463,0.65121
5801.66588,0.65247
5799.73714,0.65361
5797.80839,0.65408
5795.87965,0.65378
5793.95090,0.65266
5792.02216,0.65140
5790.09341,0.65048
5788.16467,0.64913
5786.23592,0.64754
5784.30718,0.64775
5782.37843,0.64958
5780.44969,0.65037
5778.52094,0.64960
5776.59220,0.64915
5774.66345,0.64987
5772.73470,0.65061
5770.80596,0.65043
5768.87721,0.64968
5766.94847,0.64909
5765.01972,0.64910
5763.09098,0.64936
5761.16223,0.64974
5759.23349,0.65021
5757.30474,0.65011
5755.37600,0.64978
5753.44725,0.65005
5751.51851,0.65048
5749.58976,0.65026
5747.66102,0.64939
5745.73227,0.64884
5743.80352,0.64940
5741.87478,0.65048
5739.94603,0.65107
5738.01729,0.65077
5736.08854,0.65024
5734.15980,0.65047
5732.23105,0.65083
5730.30231,0.65009
5728.37356,0.64881
5726.44482,0.64830
5724.51607,0.64837
5722.58733,0.64817
5720.65858,0.64817
5718.72984,0.64894
5716.80109,0.64960
5714.87235,0.64921
5712.94360,0.64800
5711.01485,0.64675
5709.08611,0.64650
5707.15736,0.64742
5705.22862,0.64774
5703.29987,0.64678
5701.37113,0.64608
5699.44238,0.64663
5697.51364,0.64732
5695.58489,0.64678
5693.65615,0.64602
5691.72740,0.64592
5689.79866,0.64556
5687.86991,0.64509
5685.94117,0.64496
5684.01242,0.64444
5682.08368,0.64367
5680.15493,0.64340
5678.22618,0.64329
5676.29744,0.64297
5674.36869,0.64214
5672.43995,0.64068
5670.51120,0.63999
5668.58246,0.64092
5666.65371,0.64230
5664.72497,0.64336
5662.79622,0.64359
5660.86748,0.64249
5658.93873,0.64112
5657.00999,0.64051
5655.08124,0.64067
5653.15250,0.64182
5651.22375,0.64325
5649.29500,0.64354
5647.36626,0.64324
5645.43751,0.64335
5643.50877,0.64351
5641.58002,0.64330
5639.65128,0.64299
5637.72253,0.64324
5635.79379,0.64414
5633.86504,0.64448
5631.93630,0.64371
5630.00755,0.64321
5628.07881,0.64368
5626.15006,0.64382
5624.22132,0.64329
5622.29257,0.64320
5620.36383,0.64325
5618.43508,0.64275
5616.50633,0.64243
5614.57759,0.64241
5612.64884,0.64230
5610.72010,0.64243
5608.79135,0.64269
5606.86261,0.64248
5604.93386,0.64226
5603.00512,0.64259
5601.07637,0.64322
5599.14763,0.64389
5597.21888,0.64434
5595.29014,0.64457
5593.36139,0.64523
5591.43265,0.64620
5589.50390,0.64616
5587.57516,0.64509
5585.64641,0.64434
5583.71766,0.64405
5581.78892,0.64427
5579.86017,0.64511
5577.93143,0.64503
5576.00268,0.64371
5574.07394,0.64302
5572.14519,0.64388
5570.21645,0.64522
5568.28770,0.64543
5566.35896,0.64463
5564.43021,0.64461
5562.50147,0.64610
5560.57272,0.64779
5558.64398,0.64830
5556.71523,0.64787
5554.78648,0.64746
5552.85774,0.64736
5550.92899,0.64756
5549.00025,0.64821
5547.07150,0.64934
5545.14276,0.65027
5543.21401,0.64985
5541.28527,0.64861
5539.35652,0.64836
5537.42778,0.64959
5535.49903,0.65097
5533.57029,0.65136
5531.64154,0.65091
5529.71280,0.65005
5527.78405,0.64965
5525.85531,0.65038
5523.92656,0.65159
5521.99781,0.65257
5520.06907,0.65286
5518.14032,0.65271
5516.21158,0.65298
5514.28283,0.65311
5512.35409,0.65277
5510.42534,0.65291
5508.49660,0.65320
5506.56785,0.65298
5504.63911,0.65298
5502.71036,0.65323
5500.78162,0.65331
5498.85287,0.65326
5496.92413,0.65330
5494.99538,0.65440
5493.06664,0.65615
5491.13789,0.65668
5489.20914,0.65618
5487.28040,0.65539
5485.35165,0.65440
5483.42291,0.65413
5481.49416,0.65460
5479.56542,0.65478
5477.63667,0.65500
5475.70793,0.65545
5473.77918,0.65540
5471.85044,0.65526
5469.92169,0.65556
5467.99295,0.65565
5466.06420,0.65556
5464.13546,0.65625
5462.20671,0.65700
5460.27796,0.65626
5458.34922,0.65522
5456.42047,0.65576
5454.49173,0.65687
5452.56298,0.65712
5450.63424,0.65715
5448.70549,0.65793
5446.77675,0.65879
5444.84800,0.65905
5442.91926,0.65960
5440.99051,0.66034
5439.06177,0.66008
5437.13302,0.65930
5435.20428,0.65919
5433.27553,0.65955
5431.34679,0.65956
5429.41804,0.65973
5427.48929,0.66062
5425.56055,0.66152
5423.63180,0.66194
5421.70306,0.66185
5419.77431,0.66153
5417.84557,0.66159
5415.91682,0.66216
5413.98808,0.66320
5412.05933,0.66470
5410.13059,0.66587
5408.20184,0.66609
5406.27310,0.66571
5404.34435,0.66562
5402.41561,0.66632
5400.48686,0.66729
5398.55811,0.66811
5396.62937,0.66848
5394.70062,0.66828
5392.77188,0.66848
5390.84313,0.66922
5388.91439,0.66954
5386.98564,0.66954
5385.05690,0.66972
5383.12815,0.66990
5381.19941,0.66998
5379.27066,0.67006
5377.34192,0.66983
5375.41317,0.66940
5373.48443,0.66902
5371.55568,0.66854
5369.62694,0.66849
5367.69819,0.66936
5365.76944,0.67016
5363.84070,0.67004
5361.91195,0.66968
5359.98321,0.66961
5358.05446,0.66931
5356.12572,0.66886
5354.19697,0.66858
5352.26823,0.66818
5350.33948,0.66760
5348.41074,0.66720
5346.48199,0.66709
5344.55325,0.66675
5342.62450,0.66596
5340.69576,0.66539
5338.76701,0.66472
5336.83827,0.66322
5334.90952,0.66168
5332.98077,0.66087
5331.05203,0.66032
5329.12328,0.65982
5327.19454,0.65926
5325.26579,0.65768
5323.33705,0.65526
5321.40830,0.65345
5319.47956,0.65226
5317.55081,0.65085
5315.62207,0.64962
5313.69332,0.64890
5311.76458,0.64798
5309.83583,0.64653
5307.90709,0.64453
5305.97834,0.64173
5304.04959,0.63913
5302.12085,0.63792
5300.19210,0.63718
5298.26336,0.63516
5296.33461,0.63192
5294.40587,0.62875
5292.47712,0.62616
5290.54838,0.62388
5288.61963,0.62121
5286.69089,0.61751
5284.76214,0.61331
5282.83340,0.60975
5280.90465,0.60663
5278.97591,0.60286
5277.04716,0.59885
5275.11842,0.59582
5273.18967,0.59339
5271.26092,0.59044
5269.33218,0.58642
5267.40343,0.58174
5265.47469,0.57748
5263.54594,0.57379
5261.61720,0.56978
5259.68845,0.56528
5257.75971,0.56107
5255.83096,0.55740
5253.90222,0.55370
5251.97347,0.54962
5250.04473,0.54528
5248.11598,0.54101
5246.18724,0.53739
5244.25849,0.53413
5242.32975,0.53068
5240.40100,0.52735
5238.47225,0.52419
5236.54351,0.52113
5234.61476,0.51852
5232.68602,0.51575
5230.75727,0.51228
5228.82853,0.50922
5226.89978,0.50716
5224.97104,0.50528
5223.04229,0.50318
5221.11355,0.50113
5219.18480,0.49931
5217.25606,0.49723
5215.32731,0.49450
5213.39857,0.49239
5211.46982,0.49166
5209.54107,0.49061
5207.61233,0.48818
5205.68358,0.48578
5203.75484,0.48454
5201.82609,0.48394
5199.89735,0.48332
5197.96860,0.48279
5196.03986,0.48242
5194.11111,0.48143
5192.18237,0.47965
5190.25362,0.47784
5188.32488,0.47667
5186.39613,0.47643
5184.46739,0.47668
5182.53864,0.47700
5180.60990,0.47738
5178.68115,0.47755
5176.75240,0.47740
5174.82366,0.47724
5172.89491,0.47725
5170.96617,0.47744
5169.03742,0.47788
5167.10868,0.47838
5165.17993,0.47869
5163.25119,0.47893
5161.32244,0.47914
5159.39370,0.47925
5157.46495,0.47951
5155.53621,0.48015
5153.60746,0.48104
5151.67872,0.48216
5149.74997,0.48345
5147.82123,0.48434
5145.89248,0.48476
5143.96373,0.48557
5142.03499,0.48700
5140.10624,0.48817
5138.17750,0.48865
5136.24875,0.48926
5134.32001,0.49055
5132.39126,0.49218
5130.46252,0.49382
5128.53377,0.49528
5126.60503,0.49641
5124.67628,0.49717
5122.74754,0.49747
5120.81879,0.49775
5118.89005,0.49870
5116.96130,0.50028
5115.03255,0.50183
5113.10381,0.50305
5111.17506,0.50393
5109.24632,0.50460
5107.31757,0.50517
5105.38883,0.50583
5103.46008,0.50708
5101.53134,0.50869
5099.60259,0.50999
5097.67385,0.51115
5095.74510,0.51227
5093.81636,0.51302
5091.88761,0.51343
5089.95887,0.51396
5088.03012,0.51520
5086.10138,0.51712
5084.17263,0.51885
5082.24388,0.51981
5080.31514,0.52075
5078.38639,0.52212
5076.45765,0.52311
5074.52890,0.52357
5072.60016,0.52417
5070.67141,0.52534
5068.74267,0.52677
5066.81392,0.52796
5064.88518,0.52925
5062.95643,0.53050
5061.02769,0.53106
5059.09894,0.53165
5057.17020,0.53307
5055.24145,0.53470
5053.31270,0.53585
5051.38396,0.53667
5049.45521,0.53749
5047.52647,0.53850
5045.59772,0.53992
5043.66898,0.54144
5041.74023,0.54248
5039.81149,0.54305
5037.88274,0.54370
5035.95400,0.54451
5034.02525,0.54513
5032.09651,0.54573
5030.16776,0.54684
5028.23902,0.54829
5026.31027,0.54929
5024.38153,0.54937
5022.45278,0.54943
5020.52403,0.55050
5018.59529,0.55154
5016.66654,0.55171
5014.73780,0.55196
5012.80905,0.55260
5010.88031,0.55329
5008.95156,0.55411
5007.02282,0.55495
5005.09407,0.55570
5003.16533,0.55600
5001.23658,0.55557
4999.30784,0.55521
4997.37909,0.55564
4995.45035,0.55635
4993.52160,0.55644
4991.59286,0.55600
4989.66411,0.55613
4987.73536,0.55700
4985.80662,0.55745
4983.87787,0.55707
4981.94913,0.55667
4980.02038,0.55655
4978.09164,0.55643
4976.16289,0.55660
4974.23415,0.55732
4972.30540,0.55786
4970.37666,0.55743
4968.44791,0.55634
4966.51917,0.55518
4964.59042,0.55407
4962.66168,0.55287
4960.73293,0.55161
4958.80418,0.55044
4956.87544,0.54937
4954.94669,0.54855
4953.01795,0.54791
4951.08920,0.54715
4949.16046,0.54637
4947.23171,0.54553
4945.30297,0.54424
4943.37422,0.54273
4941.44548,0.54180
4939.51673,0.54102
4937.58799,0.53896
4935.65924,0.53601
4933.73050,0.53375
4931.80175,0.53220
4929.87301,0.53061
4927.94426,0.52918
4926.01551,0.52777
4924.08677,0.52553
4922.15802,0.52284
4920.22928,0.52082
4918.30053,0.51951
4916.37179,0.51814
4914.44304,0.51618
4912.51430,0.51401
4910.58555,0.51199
4908.65681,0.51006
4906.72806,0.50815
4904.79932,0.50596
4902.87057,0.50361
4900.94183,0.50153
4899.01308,0.49933
4897.08434,0.49682
4895.15559,0.49462
4893.22684,0.49273
4891.29810,0.49051
4889.36935,0.48802
4887.44061,0.48576
4885.51186,0.48406
4883.58312,0.48257
4881.65437,0.48063
4879.72563,0.47837
4877.79688,0.47646
4875.86814,0.47535
4873.93939,0.47462
4872.01065,0.47351
4870.08190,0.47218
4868.15316,0.47128
4866.22441,0.47059
4864.29566,0.46929
4862.36692,0.46717
4860.43817,0.46490
4858.50943,0.46314
4856.58068,0.46208
4854.65194,0.46107
4852.72319,0.45951
4850.79445,0.45801
4848.86570,0.45696
4846.93696,0.45590
4845.00821,0.45473
4843.07947,0.45360
4841.15072,0.45261
4839.22198,0.45175
4837.29323,0.45064
4835.36449,0.44911
4833.43574,0.44763
4831.50699,0.44685
4829.57825,0.44657
4827.64950,0.44606
4825.72076,0.44509
4823.79201,0.44394
4821.86327,0.44277
4819.93452,0.44158
4818.00578,0.44070
4816.07703,0.44055
4814.14829,0.44076
4812.21954,0.44028
4810.29080,0.43901
4808.36205,0.43774
4806.43331,0.43701
4804.50456,0.43668
4802.57582,0.43624
4800.64707,0.43570
4798.71832,0.43528
4796.78958,0.43472
4794.86083,0.43400
4792.93209,0.43360
4791.00334,0.43373
4789.07460,0.43383
4787.14585,0.43346
4785.21711,0.43291
4783.28836,0.43253
4781.35962,0.43222
4779.43087,0.43192
4777.50213,0.43200
4775.57338,0.43259
4773.64464,0.43311
4771.71589,0.43292
4769.78714,0.43248
4767.85840,0.43262
4765.92965,0.43313
4764.00091,0.43351
4762.07216,0.43376
4760.14342,0.43372
4758.21467,0.43346
4756.28593,0.43373
4754.35718,0.43454
4752.42844,0.43506
4750.49969,0.43525
4748.57095,0.43559
4746.64220,0.43634
4744.71346,0.43731
4742.78471,0.43818
4740.85597,0.43882
4738.92722,0.43934
4736.99847,0.44005
4735.06973,0.44089
4733.14098,0.44154
4731.21224,0.44199
4729.28349,0.44261
4727.35475,0.44359
4725.42600,0.44437
4723.49726,0.44475
4721.56851,0.44509
4719.63977,0.44541
4717.71102,0.44577
4715.78228,0.44637
4713.85353,0.44741
4711.92479,0.44876
4709.99604,0.44971
4708.06729,0.44997
4706.13855,0.45032
4704.20980,0.45125
4702.28106,0.45221
4700.35231,0.45283
4698.42357,0.45329
4696.49482,0.45416
4694.56608,0.45579
4692.63733,0.45736
4690.70859,0.45809
4688.77984,0.45849
4686.85110,0.45939
4684.92235,0.46040
4682.99361,0.46101
4681.06486,0.46163
4679.13612,0.46244
4677.20737,0.46329
4675.27862,0.46424
4673.34988,0.46512
4671.42113,0.46567
4669.49239,0.46597
4667.56364,0.46662
4665.63490,0.46800
4663.70615,0.46956
4661.77741,0.47068
4659.84866,0.47137
4657.91992,0.47185
4655.99117,0.47244
4654.06243,0.47337
4652.13368,0.47440
4650.20494,0.47509
4648.27619,0.47555
4646.34745,0.47617
4644.41870,0.47689
4642.48995,0.47780
4640.56121,0.47889
4638.63246,0.47987
4636.70372,0.48087
4634.77497,0.48186
4632.84623,0.48241
4630.91748,0.48286
4628.98874,0.48372
4627.05999,0.48461
4625.13125,0.48512
4623.20250,0.48540
4621.27376,0.48582
4619.34501,0.48638
4617.41627,0.48676
4615.48752,0.48688
4613.55877,0.48698
4611.63003,0.48757
4609.70128,0.48872
4607.77254,0.48968
4605.84379,0.49035
4603.91505,0.49114
4601.98630,0.49196
4600.05756,0.49262
4598.12881,0.49321
4596.20007,0.49393
4594.27132,0.49476
4592.34258,0.49540
4590.41383,0.49571
4588.48509,0.49595
4586.55634,0.49649
4584.62760,0.49725
4582.69885,0.49779
4580.77010,0.49802
4578.84136,0.49864
4576.91261,0.49977
4574.98387,0.50052
4573.05512,0.50089
4571.12638,0.50169
4569.19763,0.50268
4567.26889,0.50336
4565.34014,0.50381
4563.41140,0.50397
4561.48265,0.50384
4559.55391,0.50388
4557.62516,0.50443
4555.69642,0.50515
4553.76767,0.50565
4551.83893,0.50609
4549.91018,0.50686
4547.98143,0.50782
4546.05269,0.50849
4544.12394,0.50891
4542.19520,0.50921
4540.26645,0.50929
4538.33771,0.50948
4536.40896,0.50999
4534.48022,0.51042
4532.55147,0.51063
4530.62273,0.51088
4528.69398,0.51145
4526.76524,0.51234
4524.83649,0.51321
4522.90775,0.51364
4520.97900,0.51350
4519.05025,0.51318
4517.12151,0.51326
4515.19276,0.51394
4513.26402,0.51481
4511.33527,0.51530
4509.40653,0.51531
4507.47778,0.51535
4505.54904,0.51565
4503.62029,0.51599
4501.69155,0.51607
4499.76280,0.51582
4497.83406,0.51569
4495.90531,0.51596
4493.97657,0.51618
4492.04782,0.51616
4490.11908,0.51599
4488.19033,0.51572
4486.26158,0.51548
4484.33284,0.51538
4482.40409,0.51531
4480.47535,0.51494
4478.54660,0.51415
4476.61786,0.51313
4474.68911,0.51220
4472.76037,0.51168
4470.83162,0.51131
4468.90288,0.51074
4466.97413,0.50996
4465.04539,0.50892
4463.11664,0.50753
4461.18790,0.50570
4459.25915,0.50342
4457.33041,0.50126
4455.40166,0.49964
4453.47291,0.49803
4451.54417,0.49603
4449.61542,0.49402
4447.68668,0.49203
4445.75793,0.48965
4443.82919,0.48696
4441.90044,0.48438
4439.97170,0.48202
4438.04295,0.47963
4436.11421,0.47711
4434.18546,0.47464
4432.25672,0.47228
4430.32797,0.46977
4428.39923,0.46675
4426.47048,0.46340
4424.54173,0.46039
4422.61299,0.45809
4420.68424,0.45663
4418.75550,0.45590
4416.82675,0.45507
4414.89801,0.45388
4412.96926,0.45263
4411.04052,0.45122
4409.11177,0.44971
4407.18303,0.44864
4405.25428,0.44818
4403.32554,0.44785
4401.39679,0.44735
4399.46805,0.44667
4397.53930,0.44571
4395.61056,0.44468
4393.68181,0.44394
4391.75306,0.44328
4389.82432,0.44241
4387.89557,0.44162
4385.96683,0.44130
4384.03808,0.44145
4382.10934,0.44194
4380.18059,0.44259
4378.25185,0.44322
4376.32310,0.44372
4374.39436,0.44402
4372.46561,0.44445
4370.53687,0.44504
4368.60812,0.44520
4366.67938,0.44491
4364.75063,0.44471
4362.82189,0.44456
4360.89314,0.44418
4358.96439,0.44368
4357.03565,0.44326
4355.10690,0.44282
4353.17816,0.44214
4351.24941,0.44150
4349.32067,0.44125
4347.39192,0.44102
4345.46318,0.44025
4343.53443,0.43907
4341.60569,0.43778
4339.67694,0.43642
4337.74820,0.43510
4335.81945,0.43381
4333.89071,0.43256
4331.96196,0.43141
4330.03321,0.43017
4328.10447,0.42881
4326.17572,0.42741
4324.24698,0.42606
4322.31823,0.42504
4320.38949,0.42446
4318.46074,0.42392
4316.53200,0.42316
4314.60325,0.42221
4312.67451,0.42121
4310.74576,0.42033
4308.81702,0.41951
4306.88827,0.41854
4304.95953,0.41765
4303.03078,0.41719
4301.10204,0.41688
4299.17329,0.41629
4297.24454,0.41548
4295.31580,0.41477
4293.38705,0.41437
4291.45831,0.41426
4289.52956,0.41425
4287.60082,0.41413
4285.67207,0.41370
4283.74333,0.41307
4281.81458,0.41248
4279.88584,0.41193
4277.95709,0.41147
4276.02835,0.41117
4274.09960,0.41094
4272.17086,0.41073
4270.24211,0.41063
4268.31336,0.41059
4266.38462,0.41052
4264.45587,0.41034
4262.52713,0.41000
4260.59838,0.40946
4258.66964,0.40887
4256.74089,0.40851
4254.81215,0.40832
4252.88340,0.40795
4250.95466,0.40757
4249.02591,0.40730
4247.09717,0.40692
4245.16842,0.40661
4243.23968,0.40662
4241.31093,0.40690
4239.38219,0.40746
4237.45344,0.40804
4235.52469,0.40841
4233.59595,0.40885
4231.66720,0.40955
4229.73846,0.41027
4227.80971,0.41062
4225.88097,0.41049
4223.95222,0.41032
4222.02348,0.41062
4220.09473,0.41118
4218.16599,0.41146
4216.23724,0.41148
4214.30850,0.41159
4212.37975,0.41182
4210.45101,0.41204
4208.52226,0.41230
4206.59352,0.41276
4204.66477,0.41318
4202.73602,0.41332
4200.80728,0.41338
4198.87853,0.41358
4196.94979,0.41378
4195.02104,0.41366
4193.09230,0.41351
4191.16355,0.41386
4189.23481,0.41455
4187.30606,0.41515
4185.37732,0.41542
4183.44857,0.41513
4181.51983,0.41440
4179.59108,0.41365
4177.66234,0.41328
4175.73359,0.41331
4173.80484,0.41329
4171.87610,0.41318
4169.94735,0.41317
4168.01861,0.41274
4166.08986,0.41168
4164.16112,0.41070
4162.23237,0.41001
4160.30363,0.40925
4158.37488,0.40829
4156.44614,0.40725
4154.51739,0.40614
4152.58865,0.40491
4150.65990,0.40364
4148.73116,0.40247
4146.80241,0.40149
4144.87367,0.40056
4142.94492,0.39945
4141.01617,0.39816
4139.08743,0.39691
4137.15868,0.39572
4135.22994,0.39427
4133.30119,0.39255
4131.37245,0.39099
4129.44370,0.38974
4127.51496,0.38852
4125.58621,0.38725
4123.65747,0.38587
4121.72872,0.38421
4119.79998,0.38252
4117.87123,0.38105
4115.94249,0.37945
4114.01374,0.37751
4112.08500,0.37557
4110.15625,0.37392
4108.22750,0.37243
4106.29876,0.37075
4104.37001,0.36882
4102.44127,0.36694
4100.51252,0.36517
4098.58378,0.36313
4096.65503,0.36087
4094.72629,0.35897
4092.79754,0.35738
4090.86880,0.35535
4088.94005,0.35285
4087.01131,0.35065
4085.08256,0.34876
4083.15382,0.34669
4081.22507,0.34456
4079.29632,0.34266
4077.36758,0.34088
4075.43883,0.33894
4073.51009,0.33680
4071.58134,0.33483
4069.65260,0.33309
4067.72385,0.33115
4065.79511,0.32901
4063.86636,0.32713
4061.93762,0.32579
4060.00887,0.32457
4058.08013,0.32291
4056.15138,0.32091
4054.22264,0.31899
4052.29389,0.31738
4050.36515,0.31579
4048.43640,0.31401
4046.50765,0.31237
4044.57891,0.31102
4042.65016,0.30988
4040.72142,0.30882
4038.79267,0.30769
4036.86393,0.30629
4034.93518,0.30466
4033.00644,0.30321
4031.07769,0.30211
4029.14895,0.30118
4027.22020,0.30043
4025.29146,0.29982
4023.36271,0.29917
4021.43397,0.29836
4019.50522,0.29743
4017.57648,0.29663
4015.64773,0.29610
4013.71898,0.29572
4011.79024,0.29526
4009.86149,0.29463
4007.93275,0.29407
4006.00400,0.29366
4004.07526,0.29331
4002.14651,0.29309
4000.21777,0.29315
3998.28902,0.29365
3996.36028,0.29446
3994.43153,0.29494
3992.50279,0.29498
3990.57404,0.29510
3988.64530,0.29536
3986.71655,0.29556
3984.78780,0.29584
3982.85906,0.29631
3980.93031,0.29678
3979.00157,0.29714
3977.07282,0.29741
3975.14408,0.29758
3973.21533,0.29781
3971.28659,0.29806
3969.35784,0.29817
3967.42910,0.29837
3965.50035,0.29881
3963.57161,0.29914
3961.64286,0.29919
3959.71412,0.29920
3957.78537,0.29940
3955.85663,0.29972
3953.92788,0.30020
3951.99913,0.30092
3950.07039,0.30170
3948.14164,0.30230
3946.21290,0.30286
3944.28415,0.30369
3942.35541,0.30486
3940.42666,0.30586
3938.49792,0.30634
3936.56917,0.30682
3934.64043,0.30791
3932.71168,0.30943
3930.78294,0.31073
3928.85419,0.31181
3926.92545,0.31293
3924.99670,0.31392
3923.06795,0.31466
3921.13921,0.31558
3919.21046,0.31698
3917.28172,0.31846
3915.35297,0.31934
3913.42423,0.31982
3911.49548,0.32060
3909.56674,0.32190
3907.63799,0.32353
3905.70925,0.32522
3903.78050,0.32662
3901.85176,0.32768
3899.92301,0.32849
3897.99427,0.32898
3896.06552,0.32939
3894.13678,0.33015
3892.20803,0.33119
3890.27928,0.33212
3888.35054,0.33306
3886.42179,0.33452
3884.49305,0.33624
3882.56430,0.33748
3880.63556,0.33820
3878.70681,0.33883
3876.77807,0.33983
3874.84932,0.34105
3872.92058,0.34214
3870.99183,0.34334
3869.06309,0.34440
3867.13434,0.34502
3865.20560,0.34601
3863.27685,0.34732
3861.34811,0.34807
3859.41936,0.34860
3857.49061,0.34978
3855.56187,0.35176
3853.63312,0.35360
3851.70438,0.35362
3849.77563,0.35303
3847.84689,0.35337
3845.91814,0.35464
3843.98940,0.35617
3842.06065,0.35739
3840.13191,0.35830
3838.20316,0.35885
3836.27442,0.35874
3834.34567,0.35852
3832.41693,0.35863
3830.48818,0.35873
3828.55943,0.35875
3826.63069,0.35882
3824.70194,0.35894
3822.77320,0.35925
3820.84445,0.35953
3818.91571,0.35929
3816.98696,0.35870
3815.05822,0.35801
3813.12947,0.35744
3811.20073,0.35729
3809.27198,0.35757
3807.34324,0.35775
3805.41449,0.35755
3803.48575,0.35738
3801.55700,0.35693
3799.62826,0.35617
3797.69951,0.35575
3795.77076,0.35523
3793.84202,0.35442
3791.91327,0.35379
3789.98453,0.35327
3788.05578,0.35269
3786.12704,0.35237
3784.19829,0.35232
3782.26955,0.35206
3780.34080,0.35151
3778.41206,0.35076
3776.48331,0.34975
3774.55457,0.34883
3772.62582,0.34835
3770.69708,0.34802
3768.76833,0.34749
3766.83959,0.34686
3764.91084,0.34609
3762.98209,0.34526
3761.05335,0.34484
3759.12460,0.34439
3757.19586,0.34339
3755.26711,0.34265
3753.33837,0.34261
3751.40962,0.34229
3749.48088,0.34086
3747.55213,0.33945
3745.62339,0.33835
3743.69464,0.33668
3741.76590,0.33476
3739.83715,0.33350
3737.90841,0.33281
3735.97966,0.33200
3734.05091,0.33014
3732.12217,0.32728
3730.19342,0.32464
3728.26468,0.32268
3726.33593,0.32090
3724.40719,0.31888
3722.47844,0.31626
3720.54970,0.31304
3718.62095,0.30997
3716.69221,0.30756
3714.76346,0.30562
3712.83472,0.30358
3710.90597,0.30081
3708.97723,0.29730
3707.04848,0.29377
3705.11974,0.29055
3703.19099,0.28730
3701.26224,0.28354
3699.33350,0.27950
3697.40475,0.27557
3695.47601,0.27173
3693.54726,0.26810
3691.61852,0.26437
3689.68977,0.25937
3687.76103,0.25281
3685.83228,0.24660
3683.90354,0.24125
3681.97479,0.23595
3680.04605,0.23078
3678.11730,0.22611
3676.18856,0.22043
3674.25981,0.21306
3672.33107,0.20642
3670.40232,0.19978
3668.47357,0.19232
3666.54483,0.18567
3664.61608,0.17951
3662.68734,0.17323
3660.75859,0.16727
3658.82985,0.16169
3656.90110,0.15558
3654.97236,0.14955
3653.04361,0.14508
3651.11487,0.14082
3649.18612,0.13457
3647.25738,0.12753
3645.32863,0.12210
3643.39989,0.11791
3641.47114,0.11401
3639.54239,0.11012
3637.61365,0.10617
3635.68490,0.10227
3633.75616,0.09868
3631.82741,0.09555
3629.89867,0.09220
3627.96992,0.08817
3626.04118,0.08471
3624.11243,0.08202
3622.18369,0.07961
3620.25494,0.07709
3618.32620,0.07424
3616.39745,0.07150
3614.46871,0.06887
3612.53996,0.06647
3610.61122,0.06460
3608.68247,0.06275
3606.75372,0.06048
3604.82498,0.05820
3602.89623,0.05623
3600.96749,0.05452
3599.03874,0.05321
3597.11000,0.05214
3595.18125,0.05079
3593.25251,0.04904
3591.32376,0.04741
3589.39502,0.04609
3587.46627,0.04482
3585.53753,0.04347
3583.60878,0.04209
3581.68004,0.04082
3579.75129,0.04003
3577.82254,0.03978
3575.89380,0.03942
3573.96505,0.03844
3572.03631,0.03719
3570.10756,0.03611
3568.17882,0.03520
3566.25007,0.03429
3564.32133,0.03353
3562.39258,0.03314
3560.46384,0.03293
3558.53509,0.03268
3556.60635,0.03227
3554.67760,0.03153
3552.74886,0.03063
3550.82011,0.03004
3548.89137,0.02979
3546.96262,0.02963
3545.03387,0.02944
3543.10513,0.02919
3541.17638,0.02881
3539.24764,0.02837
3537.31889,0.02810
3535.39015,0.02814
3533.46140,0.02819
3531.53266,0.02788
3529.60391,0.02733
3527.67517,0.02673
3525.74642,0.02619
3523.81768,0.02593
3521.88893,0.02592
3519.96019,0.02598
3518.03144,0.02597
3516.10270,0.02585
3514.17395,0.02566
3512.24520,0.02538
3510.31646,0.02514
3508.38771,0.02507
3506.45897,0.02505
3504.53022,0.02495
3502.60148,0.02467
3500.67273,0.02432
3498.74399,0.02423
3496.81524,0.02452
3494.88650,0.02478
3492.95775,0.02483
3491.02901,0.02497
3489.10026,0.02515
3487.17152,0.02522
3485.24277,0.02534
3483.31402,0.02527
3481.38528,0.02485
3479.45653,0.02468
3477.52779,0.02496
3475.59904,0.02522
3473.67030,0.02523
3471.74155,0.02506
3469.81281,0.02469
3467.88406,0.02440
3465.95532,0.02456
3464.02657,0.02492
3462.09783,0.02512
3460.16908,0.02533
3458.24034,0.02564
3456.31159,0.02579
3454.38285,0.02566
3452.45410,0.02562
3450.52535,0.02595
3448.59661,0.02630
3446.66786,0.02629
3444.73912,0.02617
3442.81037,0.02628
3440.88163,0.02660
3438.95288,0.02683
3437.02414,0.02685
3435.09539,0.02679
3433.16665,0.02693
3431.23790,0.02725
3429.30916,0.02731
3427.38041,0.02705
3425.45167,0.02692
3423.52292,0.02693
3421.59418,0.02698
3419.66543,0.02714
3417.73668,0.02734
3415.80794,0.02729
3413.87919,0.02711
3411.95045,0.02713
3410.02170,0.02740
3408.09296,0.02776
3406.16421,0.02791
3404.23547,0.02778
3402.30672,0.02762
3400.37798,0.02765
3398.44923,0.02756
3396.52049,0.02696
3394.59174,0.02646
3392.66300,0.02672
3390.73425,0.02722
3388.80550,0.02737
3386.87676,0.02735
3384.94801,0.02754
3383.01927,0.02798
3381.09052,0.02835
3379.16178,0.02839
3377.23303,0.02826
3375.30429,0.02799
3373.37554,0.02775
3371.44680,0.02787
3369.51805,0.02812
3367.58931,0.02798
3365.66056,0.02752
3363.73182,0.02734
3361.80307,0.02761
3359.87433,0.02785
3357.94558,0.02799
3356.01683,0.02820
3354.08809,0.02836
3352.15934,0.02827
3350.23060,0.02811
3348.30185,0.02822
3346.37311,0.02859
3344.44436,0.02889
3342.51562,0.02881
3340.58687,0.02847
3338.65813,0.02821
3336.72938,0.02807
3334.80064,0.02791
3332.87189,0.02791
3330.94315,0.02830
3329.01440,0.02881
3327.08566,0.02902
3325.15691,0.02887
3323.22816,0.02871
3321.29942,0.02867
3319.37067,0.02884
3317.44193,0.02914
3315.51318,0.02908
3313.58444,0.02869
3311.65569,0.02866
3309.72695,0.02907
3307.79820,0.02917
3305.86946,0.02877
3303.94071,0.02832
3302.01197,0.02806
3300.08322,0.02815
3298.15448,0.02875
3296.22573,0.02953
3294.29698,0.02987
3292.36824,0.02985
3290.43949,0.02984
3288.51075,0.02976
3286.58200,0.02967
3284.65326,0.02985
3282.72451,0.02991
3280.79577,0.02949
3278.86702,0.02904
3276.93828,0.02909
3275.00953,0.02950
3273.08079,0.02991
3271.15204,0.03004
3269.22330,0.02975
3267.29455,0.02937
3265.36581,0.02930
3263.43706,0.02951
3261.50831,0.02982
3259.57957,0.03010
3257.65082,0.03015
3255.72208,0.03001
3253.79333,0.02993
3251.86459,0.03001
3249.93584,0.03018
3248.00710,0.03040
3246.07835,0.03080
3244.14961,0.03129
3242.22086,0.03156
3240.29212,0.03153
3238.36337,0.03149
3236.43463,0.03152
3234.50588,0.03142
3232.57713,0.03115
3230.64839,0.03088
3228.71964,0.03087
3226.79090,0.03119
3224.86215,0.03151
3222.93341,0.03165
3221.00466,0.03169
3219.07592,0.03166
3217.14717,0.03153
3215.21843,0.03147
3213.28968,0.03168
3211.36094,0.03206
3209.43219,0.03225
3207.50345,0.03207
3205.57470,0.03171
3203.64596,0.03151
3201.71721,0.03151
3199.78846,0.03166
3197.85972,0.03195
3195.93097,0.03247
3194.00223,0.03297
3192.07348,0.03313
3190.14474,0.03311
3188.21599,0.03308
3186.28725,0.03310
3184.35850,0.03330
3182.42976,0.03349
3180.50101,0.03366
3178.57227,0.03409
3176.64352,0.03464
3174.71478,0.03495
3172.78603,0.03486
3170.85729,0.03472
3168.92854,0.03501
3166.99979,0.03547
3165.07105,0.03570
3163.14230,0.03581
3161.21356,0.03598
3159.28481,0.03629
3157.35607,0.03674
3155.42732,0.03709
3153.49858,0.03699
3151.56983,0.03674
3149.64109,0.03687
3147.71234,0.03732
3145.78360,0.03788
3143.85485,0.03846
3141.92611,0.03894
3139.99736,0.03939
3138.06861,0.03990
3136.13987,0.04016
3134.21112,0.04004
3132.28238,0.04004
3130.35363,0.04048
3128.42489,0.04117
3126.49614,0.04189
3124.56740,0.04238
3122.63865,0.04262
3120.70991,0.04300
3118.78116,0.04369
3116.85242,0.04443
3114.92367,0.04506
3112.99493,0.04548
3111.06618,0.04558
3109.13744,0.04573
3107.20869,0.04635
3105.27994,0.04715
3103.35120,0.04783
3101.42245,0.04840
3099.49371,0.04886
3097.56496,0.04955
3095.63622,0.05058
3093.70747,0.05154
3091.77873,0.05212
3089.84998,0.05250
3087.92124,0.05298
3085.99249,0.05365
3084.06375,0.05439
3082.13500,0.05520
3080.20626,0.05607
3078.27751,0.05691
3076.34877,0.05777
3074.42002,0.05862
3072.49127,0.05931
3070.56253,0.05983
3068.63378,0.06028
3066.70504,0.06081
3064.77629,0.06163
3062.84755,0.06276
3060.91880,0.06394
3058.99006,0.06497
3057.06131,0.06581
3055.13257,0.06652
3053.20382,0.06717
3051.27508,0.06783
3049.34633,0.06860
3047.41759,0.06946
3045.48884,0.07035
3043.56009,0.07126
3041.63135,0.07202
3039.70260,0.07249
3037.77386,0.07294
3035.84511,0.07377
3033.91637,0.07492
3031.98762,0.07593
3030.05888,0.07666
3028.13013,0.07718
3026.20139,0.07764
3024.27264,0.07821
3022.34390,0.07882
3020.41515,0.07945
3018.48641,0.08015
3016.55766,0.08079
3014.62892,0.08125
3012.70017,0.08156
3010.77142,0.08174
3008.84268,0.08187
3006.91393,0.08212
3004.98519,0.08245
3003.05644,0.08255
3001.12770,0.08232
2999.19895,0.08196
2997.27021,0.08165
2995.34146,0.08124
2993.41272,0.08040
2991.48397,0.07916
2989.55523,0.07779
2987.62648,0.07620
2985.69774,0.07437
2983.76899,0.07265
2981.84025,0.07139
2979.91150,0.07059
2977.98275,0.06983
2976.05401,0.06859
2974.12526,0.06683
2972.19652,0.06503
2970.26777,0.06360
2968.33903,0.06241
2966.41028,0.06137
2964.48154,0.06030
2962.55279,0.05890
2960.62405,0.05723
2958.69530,0.05555
2956.76656,0.05410
2954.83781,0.05295
2952.90907,0.05207
2950.98032,0.05142
2949.05157,0.05074
2947.12283,0.04965
2945.19408,0.04827
2943.26534,0.04714
2941.33659,0.04641
2939.40785,0.04581
2937.47910,0.04514
2935.55036,0.04443
2933.62161,0.04375
2931.69287,0.04313
2929.76412,0.04254
2927.83538,0.04200
2925.90663,0.04164
2923.97789,0.04131
2922.04914,0.04084
2920.12040,0.04043
2918.19165,0.04021
2916.26290,0.04001
2914.33416,0.03989
2912.40541,0.04001
2910.47667,0.04014
2908.54792,0.04003
2906.61918,0.03986
2904.69043,0.03987
2902.76169,0.03994
2900.83294,0.04001
2898.90420,0.04024
2896.97545,0.04047
2895.04671,0.04042
2893.11796,0.04021
2891.18922,0.04033
2889.26047,0.04099
2887.33172,0.04177
2885.40298,0.04236
2883.47423,0.04277
2881.54549,0.04303
2879.61674,0.04328
2877.68800,0.04370
2875.75925,0.04430
2873.83051,0.04509
2871.90176,0.04607
2869.97302,0.04716
2868.04427,0.04810
2866.11553,0.04894
2864.18678,0.05005
2862.25804,0.05133
2860.32929,0.05239
2858.40055,0.05335
2856.47180,0.05433
2854.54305,0.05517
2852.61431,0.05582
2850.68556,0.05669
2848.75682,0.05828
2846.82807,0.06053
2844.89933,0.06306
2842.97058,0.06540
2841.04184,0.06723
2839.11309,0.06872
2837.18435,0.07020
2835.25560,0.07163
2833.32686,0.07288
2831.39811,0.07397
2829.46937,0.07504
2827.54062,0.07617
2825.61188,0.07738
2823.68313,0.07862
2821.75438,0.07981
2819.82564,0.08090
2817.89689,0.08189
2815.96815,0.08272
2814.03940,0.08353
2812.11066,0.08455
2810.18191,0.08581
2808.25317,0.08703
2806.32442,0.08793
2804.39568,0.08879
2802.46693,0.08996
2800.53819,0.09117
2798.60944,0.09217
2796.68070,0.09298
2794.75195,0.09367
2792.82320,0.09447
2790.89446,0.09551
2788.96571,0.09660
2787.03697,0.09763
2785.10822,0.09865
2783.17948,0.09956
2781.25073,0.10020
2779.32199,0.10087
2777.39324,0.10179
2775.46450,0.10285
2773.53575,0.10387
2771.60701,0.10465
2769.67826,0.10525
2767.74952,0.10588
2765.82077,0.10662
2763.89203,0.10743
2761.96328,0.10820
2760.03453,0.10876
2758.10579,0.10901
2756.17704,0.10918
2754.24830,0.10951
2752.31955,0.11000
2750.39081,0.11047
2748.46206,0.11075
2746.53332,0.11093
2744.60457,0.11120
2742.67583,0.11153
2740.74708,0.11175
2738.81834,0.11190
2736.88959,0.11221
2734.96085,0.11271
2733.03210,0.11317
2731.10336,0.11350
2729.17461,0.11375
2727.24586,0.11402
2725.31712,0.11444
2723.38837,0.11510
2721.45963,0.11587
2719.53088,0.11651
2717.60214,0.11705
2715.67339,0.11763
2713.74465,0.11819
2711.81590,0.11888
2709.88716,0.11977
2707.95841,0.12053
2706.02967,0.12111
2704.10092,0.12191
2702.17218,0.12300
2700.24343,0.12405
2698.31468,0.12490
2696.38594,0.12561
2694.45719,0.12633
2692.52845,0.12726
2690.59970,0.12834
2688.67096,0.12941
2686.74221,0.13044
2684.81347,0.13136
2682.88472,0.13218
2680.95598,0.13294
2679.02723,0.13381
2677.09849,0.13489
2675.16974,0.13597
2673.24100,0.13692
2671.31225,0.13777
2669.38351,0.13861
2667.45476,0.13952
2665.52601,0.14048
2663.59727,0.14139
2661.66852,0.14229
2659.73978,0.14324
2657.81103,0.14423
2655.88229,0.14522
2653.95354,0.14617
2652.02480,0.14710
2650.09605,0.14810
2648.16731,0.14918
2646.23856,0.15030
2644.30982,0.15140
2642.38107,0.15243
2640.45233,0.15322
2638.52358,0.15386
2636.59484,0.15480
2634.66609,0.15604
2632.73734,0.15715
2630.80860,0.15799
2628.87985,0.15881
2626.95111,0.15975
2625.02236,0.16071
2623.09362,0.16163
2621.16487,0.16251
2619.23613,0.16337
2617.30738,0.16431
2615.37864,0.16527
2613.44989,0.16614
2611.52115,0.16701
2609.59240,0.16799
2607.66366,0.16893
2605.73491,0.16968
2603.80616,0.17030
2601.87742,0.17092
2599.94867,0.17164
2598.01993,0.17241
2596.09118,0.17313
2594.16244,0.17382
2592.23369,0.17448
2590.30495,0.17509
2588.37620,0.17561
2586.44746,0.17600
2584.51871,0.17632
2582.58997,0.17675
2580.66122,0.17728
2578.73248,0.17787
2576.80373,0.17847
2574.87499,0.17897
2572.94624,0.17934
2571.01749,0.17967
2569.08875,0.18003
2567.16000,0.18054
2565.23126,0.18111
2563.30251,0.18145
2561.37377,0.18164
2559.44502,0.18184
2557.51628,0.18203
2555.58753,0.18222
2553.65879,0.18243
2551.73004,0.18265
2549.80130,0.18292
2547.87255,0.18320
2545.94381,0.18341
2544.01506,0.18347
2542.08631,0.18340
2540.15757,0.18340
2538.22882,0.18351
2536.30008,0.18363
2534.37133,0.18376
2532.44259,0.18402
2530.51384,0.18450
2528.58510,0.18508
2526.65635,0.18562
2524.72761,0.18613
2522.79886,0.18658
2520.87012,0.18685
2518.94137,0.18702
2517.01263,0.18736
2515.08388,0.18791
2513.15514,0.18846
2511.22639,0.18894
2509.29764,0.18946
2507.36890,0.18998
2505.44015,0.19040
2503.51141,0.19079
2501.58266,0.19124
2499.65392,0.19174
2497.72517,0.19229
2495.79643,0.19287
2493.86768,0.19342
2491.93894,0.19393
2490.01019,0.19455
2488.08145,0.19538
2486.15270,0.19633
2484.22396,0.19726
2482.29521,0.19815
2480.36647,0.19906
2478.43772,0.20002
2476.50897,0.20097
2474.58023,0.20184
2472.65148,0.20246
2470.72274,0.20295
2468.79399,0.20360
2466.86525,0.20444
2464.93650,0.20531
2463.00776,0.20624
2461.07901,0.20717
2459.15027,0.20802
2457.22152,0.20895
2455.29278,0.21005
2453.36403,0.21114
2451.43529,0.21210
2449.50654,0.21316
2447.57779,0.21441
2445.64905,0.21553
2443.72030,0.21646
2441.79156,0.21750
2439.86281,0.21873
2437.93407,0.21997
2436.00532,0.22107
2434.07658,0.22210
2432.14783,0.22318
2430.21909,0.22422
2428.29034,0.22510
2426.36160,0.22593
2424.43285,0.22695
2422.50411,0.22814
2420.57536,0.22929
2418.64662,0.23028
2416.71787,0.23114
2414.78912,0.23191
2412.86038,0.23269
2410.93163,0.23350
2409.00289,0.23423
2407.07414,0.23478
2405.14540,0.23524
2403.21665,0.23593
2401.28791,0.23683
2399.35916,0.23758
2397.43042,0.23804
2395.50167,0.23854
2393.57293,0.23921
2391.64418,0.23982
2389.71544,0.24026
2387.78669,0.24064
2385.85795,0.24115
2383.92920,0.24181
2382.00045,0.24245
2380.07171,0.24309
2378.14296,0.24392
2376.21422,0.24485
2374.28547,0.24567
2372.35673,0.24646
2370.42798,0.24718
2368.49924,0.24777
2366.57049,0.24841
2364.64175,0.24910
2362.71300,0.24960
2360.78426,0.25000
2358.85551,0.25044
2356.92677,0.25092
2354.99802,0.25133
2353.06927,0.25150
2351.14053,0.25170
2349.21178,0.25233
2347.28304,0.25333
2345.35429,0.25436
2343.42555,0.25527
2341.49680,0.25611
2339.56806,0.25675
2337.63931,0.25701
2335.71057,0.25715
2333.78182,0.25744
2331.85308,0.25782
2329.92433,0.25806
2327.99559,0.25809
2326.06684,0.25819
2324.13810,0.25851
2322.20935,0.25875
2320.28060,0.25872
2318.35186,0.25867
2316.42311,0.25879
2314.49437,0.25912
2312.56562,0.25942
2310.63688,0.25944
2308.70813,0.25935
2306.77939,0.25940
2304.85064,0.25946
2302.92190,0.25930
2300.99315,0.25913
2299.06441,0.25911
2297.13566,0.25903
2295.20692,0.25868
2293.27817,0.25821
2291.34943,0.25775
2289.42068,0.25723
2287.49193,0.25662
2285.56319,0.25599
2283.63444,0.25542
2281.70570,0.25491
2279.77695,0.25431
2277.84821,0.25359
2275.91946,0.25276
2273.99072,0.25179
2272.06197,0.25083
2270.13323,0.25014
2268.20448,0.24950
2266.27574,0.24856
2264.34699,0.24759
2262.41825,0.24688
2260.48950,0.24620
2258.56075,0.24545
2256.63201,0.24477
2254.70326,0.24415
2252.77452,0.24348
2250.84577,0.24265
2248.91703,0.24162
2246.98828,0.24065
2245.05954,0.23992
2243.13079,0.23918
2241.20205,0.23837
2239.27330,0.23773
2237.34456,0.23727
2235.41581,0.23690
2233.48707,0.23662
2231.55832,0.23631
2229.62958,0.23578
2227.70083,0.23516
2225.77208,0.23461
2223.84334,0.23414
2221.91459,0.23371
2219.98585,0.23325
2218.05710,0.23255
2216.12836,0.23166
2214.19961,0.23091
2212.27087,0.23040
2210.34212,0.22999
2208.41338,0.22955
2206.48463,0.22906
2204.55589,0.22866
2202.62714,0.22844
2200.69840,0.22836
2198.76965,0.22818
2196.84090,0.22769
2194.91216,0.22698
2192.98341,0.22616
2191.05467,0.22525
2189.12592,0.22438
2187.19718,0.22361
2185.26843,0.22286
2183.33969,0.22189
2181.41094,0.22069
2179.48220,0.21961
2177.55345,0.21879
2175.62471,0.21802
2173.69596,0.21713
2171.76722,0.21625
2169.83847,0.21548
2167.90973,0.21473
2165.98098,0.21398
2164.05223,0.21334
2162.12349,0.21268
2160.19474,0.21184
2158.26600,0.21105
2156.33725,0.21057
2154.40851,0.21029
2152.47976,0.21009
2150.55102,0.20994
2148.62227,0.20963
2146.69353,0.20912
2144.76478,0.20869
2142.83604,0.20840
2140.90729,0.20811
2138.97855,0.20791
2137.04980,0.20787
2135.12106,0.20788
2133.19231,0.20790
2131.26356,0.20792
2129.33482,0.20796
2127.40607,0.20808
2125.47733,0.20831
2123.54858,0.20863
2121.61984,0.20899
2119.69109,0.20945
2117.76235,0.21010
2115.83360,0.21078
2113.90486,0.21141
2111.97611,0.21214
2110.04737,0.21299
2108.11862,0.21377
2106.18988,0.21448
2104.26113,0.21535
2102.33238,0.21640
2100.40364,0.21741
2098.47489,0.21825
2096.54615,0.21894
2094.61740,0.21960
2092.68866,0.22029
2090.75991,0.22094
2088.83117,0.22156
2086.90242,0.22224
2084.97368,0.22279
2083.04493,0.22316
2081.11619,0.22356
2079.18744,0.22394
2077.25870,0.22406
2075.32995,0.22408
2073.40121,0.22417
2071.47246,0.22414
2069.54371,0.22385
2067.61497,0.22361
2065.68622,0.22365
2063.75748,0.22376
2061.82873,0.22378
2059.89999,0.22375
2057.97124,0.22364
2056.04250,0.22352
2054.11375,0.22353
2052.18501,0.22363
2050.25626,0.22374
2048.32752,0.22390
2046.39877,0.22414
2044.47003,0.22443
2042.54128,0.22474
2040.61254,0.22515
2038.68379,0.22574
2036.75504,0.22646
2034.82630,0.22730
2032.89755,0.22834
2030.96881,0.22953
2029.04006,0.23064
2027.11132,0.23166
2025.18257,0.23288
2023.25383,0.23428
2021.32508,0.23566
2019.39634,0.23714
2017.46759,0.23877
2015.53885,0.24030
2013.61010,0.24154
2011.68136,0.24258
2009.75261,0.24367
2007.82386,0.24494
2005.89512,0.24618
2003.96637,0.24718
2002.03763,0.24794
2000.10888,0.24852
1998.18014,0.24891
1996.25139,0.24918
1994.32265,0.24940
1992.39390,0.24959
1990.46516,0.24982
1988.53641,0.25021
1986.60767,0.25077
1984.67892,0.25139
1982.75018,0.25208
1980.82143,0.25302
1978.89269,0.25424
1976.96394,0.25552
1975.03519,0.25671
1973.10645,0.25793
1971.17770,0.25917
1969.24896,0.26027
1967.32021,0.26127
1965.39147,0.26231
1963.46272,0.26354
1961.53398,0.26495
1959.60523,0.26630
1957.67649,0.26761
1955.74774,0.26889
1953.81900,0.27003
1951.89025,0.27116
1949.96151,0.27244
1948.03276,0.27380
1946.10402,0.27514
1944.17527,0.27644
1942.24652,0.27765
1940.31778,0.27876
1938.38903,0.27992
1936.46029,0.28108
1934.53154,0.28202
1932.60280,0.28285
1930.67405,0.28378
1928.74531,0.28476
1926.81656,0.28567
1924.88782,0.28655
1922.95907,0.28742
1921.03033,0.28830
1919.10158,0.28934
1917.17284,0.29033
1915.24409,0.29100
1913.31534,0.29155
1911.38660,0.29231
1909.45785,0.29326
1907.52911,0.29413
1905.60036,0.29482
1903.67162,0.29540
1901.74287,0.29589
1899.81413,0.29630
1897.88538,0.29667
1895.95664,0.29716
1894.02789,0.29776
1892.09915,0.29825
1890.17040,0.29844
1888.24166,0.29831
1886.31291,0.29809
1884.38417,0.29786
1882.45542,0.29751
1880.52667,0.29719
1878.59793,0.29704
1876.66918,0.29685
1874.74044,0.29639
1872.81169,0.29596
1870.88295,0.29590
1868.95420,0.29571
1867.02546,0.29476
1865.09671,0.29356
1863.16797,0.29273
1861.23922,0.29215
1859.31048,0.29150
1857.38173,0.29074
1855.45299,0.28996
1853.52424,0.28910
1851.59549,0.28815
1849.66675,0.28723
1847.73800,0.28641
1845.80926,0.28553
1843.88051,0.28423
1841.95177,0.28252
1840.02302,0.28100
1838.09428,0.27979
1836.16553,0.27871
1834.23679,0.27777
1832.30804,0.27703
1830.37930,0.27617
1828.45055,0.27486
1826.52181,0.27353
1824.59306,0.27239
1822.66432,0.27115
1820.73557,0.26981
1818.80682,0.26847
1816.87808,0.26714
1814.94933,0.26585
1813.02059,0.26467
1811.09184,0.26342
1809.16310,0.26191
1807.23435,0.26023
1805.30561,0.25859
1803.37686,0.25715
1801.44812,0.25576
1799.51937,0.25418
1797.59063,0.25244
1795.66188,0.25084
1793.73314,0.24934
1791.80439,0.24756
1789.87565,0.24553
1787.94690,0.24374
1786.01815,0.24216
1784.08941,0.24065
1782.16066,0.23916
1780.23192,0.23740
1778.30317,0.23541
1776.37443,0.23366
1774.44568,0.23211
1772.51694,0.23008
1770.58819,0.22732
1768.65945,0.22431
1766.73070,0.22119
1764.80196,0.21835
1762.87321,0.21568
1760.94447,0.21298
1759.01572,0.21075
1757.08697,0.20886
1755.15823,0.20708
1753.22948,0.20563
1751.30074,0.20423
1749.37199,0.20223
1747.44325,0.19963
1745.51450,0.19684
1743.58576,0.19396
1741.65701,0.19091
1739.72827,0.18762
1737.79952,0.18457
1735.87078,0.18150
1733.94203,0.17668
1732.01329,0.17057
1730.08454,0.16485
1728.15580,0.15891
1726.22705,0.15258
1724.29830,0.14582
1722.36956,0.13913
1720.44081,0.13302
1718.51207,0.12587
1716.58332,0.11671
1714.65458,0.10817
1712.72583,0.10116
1710.79709,0.09495
1708.86834,0.08928
1706.93960,0.08385
1705.01085,0.07873
1703.08211,0.07469
1701.15336,0.07123
1699.22462,0.06787
1697.29587,0.06533
1695.36713,0.06297
1693.43838,0.06103
1691.50963,0.05999
1689.58089,0.05931
1687.65214,0.05890
1685.72340,0.05866
1683.79465,0.05809
1681.86591,0.05719
1679.93716,0.05645
1678.00842,0.05595
1676.07967,0.05570
1674.15093,0.05578
1672.22218,0.05597
1670.29344,0.05614
1668.36469,0.05625
1666.43595,0.05638
1664.50720,0.05678
1662.57845,0.05745
1660.64971,0.05811
1658.72096,0.05866
1656.79222,0.05926
1654.86347,0.05993
1652.93473,0.06051
1651.00598,0.06094
1649.07724,0.06149
1647.14849,0.06211
1645.21975,0.06234
1643.29100,0.06236
1641.36226,0.06264
1639.43351,0.06328
1637.50477,0.06423
1635.57602,0.06532
1633.64728,0.06615
1631.71853,0.06683
1629.78978,0.06777
1627.86104,0.06896
1625.93229,0.07025
1624.00355,0.07171
1622.07480,0.07314
1620.14606,0.07443
1618.21731,0.07601
1616.28857,0.07802
1614.35982,0.07986
1612.43108,0.08159
1610.50233,0.08344
1608.57359,0.08520
1606.64484,0.08686
1604.71610,0.08856
1602.78735,0.09034
1600.85861,0.09199
1598.92986,0.09351
1597.00111,0.09495
1595.07237,0.09632
1593.14362,0.09774
1591.21488,0.09928
1589.28613,0.10070
1587.35739,0.10196
1585.42864,0.10329
1583.49990,0.10459
1581.57115,0.10573
1579.64241,0.10691
1577.71366,0.10835
1575.78492,0.10971
1573.85617,0.11054
1571.92743,0.11154
1569.99868,0.11284
1568.06993,0.11387
1566.14119,0.11460
1564.21244,0.11524
1562.28370,0.11588
1560.35495,0.11669
1558.42621,0.11705
1556.49746,0.11654
1554.56872,0.11618
1552.63997,0.11588
1550.71123,0.11547
1548.78248,0.11499
1546.85374,0.11453
1544.92499,0.11423
1542.99625,0.11385
1541.06750,0.11271
1539.13876,0.11022
1537.21001,0.10792
1535.28126,0.10624
1533.35252,0.10401
1531.42377,0.10110
1529.49503,0.09840
1527.56628,0.09575
1525.63754,0.09279
1523.70879,0.08971
1521.78005,0.08610
1519.85130,0.08238
1517.92256,0.07940
1515.99381,0.07668
1514.06507,0.07427
1512.13632,0.07243
1510.20758,0.07125
1508.27883,0.07048
1506.35008,0.06920
1504.42134,0.06790
1502.49259,0.06738
1500.56385,0.06717
1498.63510,0.06685
1496.70636,0.06633
1494.77761,0.06585
1492.84887,0.06550
1490.92012,0.06488
1488.99138,0.06352
1487.06263,0.06161
1485.13389,0.05952
1483.20514,0.05740
1481.27640,0.05515
1479.34765,0.05288
1477.41891,0.05070
1475.49016,0.04869
1473.56141,0.04670
1471.63267,0.04452
1469.70392,0.04275
1467.77518,0.04165
1465.84643,0.04076
1463.91769,0.03982
1461.98894,0.03916
1460.06020,0.03878
1458.13145,0.03816
1456.20271,0.03719
1454.27396,0.03637
1452.34522,0.03571
1450.41647,0.03511
1448.48773,0.03466
1446.55898,0.03432
1444.63024,0.03403
1442.70149,0.03373
1440.77274,0.03339
1438.84400,0.03327
1436.91525,0.03327
1434.98651,0.03309
1433.05776,0.03293
1431.12902,0.03287
1429.20027,0.03258
1427.27153,0.03208
1425.34278,0.03170
1423.41404,0.03152
1421.48529,0.03150
1419.55655,0.03169
1417.62780,0.03188
1415.69906,0.03192
1413.77031,0.03192
1411.84156,0.03195
1409.91282,0.03197
1407.98407,0.03206
1406.05533,0.03220
1404.12658,0.03223
1402.19784,0.03221
1400.26909,0.03231
1398.34035,0.03239
1396.41160,0.03216
1394.48286,0.03164
1392.55411,0.03122
1390.62537,0.03102
1388.69662,0.03078
1386.76788,0.03030
1384.83913,0.02963
1382.91039,0.02892
1380.98164,0.02820
1379.05289,0.02764
1377.12415,0.02751
1375.19540,0.02777
1373.26666,0.02807
1371.33791,0.02821
1369.40917,0.02832
1367.48042,0.02854
1365.55168,0.02883
1363.62293,0.02922
1361.69419,0.02974
1359.76544,0.03029
1357.83670,0.03081
1355.90795,0.03127
1353.97921,0.03156
1352.05046,0.03173
1350.12172,0.03187
1348.19297,0.03187
1346.26422,0.03177
1344.33548,0.03170
1342.40673,0.03156
1340.47799,0.03121
1338.54924,0.03083
1336.62050,0.03071
1334.69175,0.03088
1332.76301,0.03112
1330.83426,0.03126
1328.90552,0.03143
1326.97677,0.03169
1325.04803,0.03183
1323.11928,0.03172
1321.19054,0.03142
1319.26179,0.03119
1317.33304,0.03110
1315.40430,0.03098
1313.47555,0.03101
1311.54681,0.03140
1309.61806,0.03203
1307.68932,0.03276
1305.76057,0.03346
1303.83183,0.03401
1301.90308,0.03445
1299.97434,0.03485
1298.04559,0.03535
1296.11685,0.03598
1294.18810,0.03652
1292.25936,0.03680
1290.33061,0.03689
1288.40187,0.03686
1286.47312,0.03663
1284.54437,0.03611
1282.61563,0.03533
1280.68688,0.03448
1278.75814,0.03388
1276.82939,0.03387
1274.90065,0.03426
1272.97190,0.03449
1271.04316,0.03429
1269.11441,0.03385
1267.18567,0.03360
1265.25692,0.03365
1263.32818,0.03370
1261.39943,0.03378
1259.47069,0.03416
1257.54194,0.03477
1255.61320,0.03532
1253.68445,0.03562
1251.75570,0.03569
1249.82696,0.03566
1247.89821,0.03551
1245.96947,0.03520
1244.04072,0.03489
1242.11198,0.03459
1240.18323,0.03435
1238.25449,0.03410
1236.32574,0.03368
1234.39700,0.03329
1232.46825,0.03327
1230.53951,0.03342
1228.61076,0.03340
1226.68202,0.03341
1224.75327,0.03375
1222.82452,0.03423
1220.89578,0.03457
1218.96703,0.03478
1217.03829,0.03474
1215.10954,0.03427
1213.18080,0.03348
1211.25205,0.03255
1209.32331,0.03144
1207.39456,0.03009
1205.46582,0.02886
1203.53707,0.02809
1201.60833,0.02764
1199.67958,0.02727
1197.75084,0.02706
1195.82209,0.02719
1193.89335,0.02753
1191.96460,0.02777
1190.03585,0.02782
1188.10711,0.02764
1186.17836,0.02696
1184.24962,0.02566
1182.32087,0.02417
1180.39213,0.02291
1178.46338,0.02204
1176.53464,0.02158
1174.60589,0.02127
1172.67715,0.02103
1170.74840,0.02121
1168.81966,0.02190
1166.89091,0.02287
1164.96217,0.02395
1163.03342,0.02502
1161.10467,0.02582
1159.17593,0.02610
1157.24718,0.02598
1155.31844,0.02578
1153.38969,0.02550
1151.46095,0.02502
1149.53220,0.02451
1147.60346,0.02393
1145.67471,0.02318
1143.74597,0.02239
1141.81722,0.02164
1139.88848,0.02095
1137.95973,0.02058
1136.03099,0.02050
1134.10224,0.02040
1132.17350,0.02021
1130.24475,0.02023
1128.31600,0.02076
1126.38726,0.02164
1124.45851,0.02264
1122.52977,0.02359
1120.60102,0.02446
1118.67228,0.02529
1116.74353,0.02596
1114.81479,0.02650
1112.88604,0.02713
1110.95730,0.02765
1109.02855,0.02767
1107.09981,0.02734
1105.17106,0.02708
1103.24232,0.02712
1101.31357,0.02733
1099.38483,0.02752
1097.45608,0.02781
1095.52733,0.02810
1093.59859,0.02813
1091.66984,0.02847
1089.74110,0.02950
1087.81235,0.03084
1085.88361,0.03238
1083.95486,0.03417
1082.02612,0.03622
1080.09737,0.03821
1078.16863,0.03951
1076.23988,0.04018
1074.31114,0.04098
1072.38239,0.04202
1070.45365,0.04302
1068.52490,0.04399
1066.59615,0.04456
1064.66741,0.04438
1062.73866,0.04391
1060.80992,0.04361
1058.88117,0.04348
1056.95243,0.04333
1055.02368,0.04284
1053.09494,0.04214
1051.16619,0.04182
1049.23745,0.04182
1047.30870,0.04178
1045.37996,0.04164
1043.45121,0.04144
1041.52247,0.04133
1039.59372,0.04139
1037.66498,0.04149
1035.73623,0.04175
1033.80748,0.04237
1031.87874,0.04334
1029.94999,0.04437
1028.02125,0.04518
1026.09250,0.04583
1024.16376,0.04644
1022.23501,0.04698
1020.30627,0.04751
1018.37752,0.04797
1016.44878,0.04801
1014.52003,0.04768
1012.59129,0.04721
1010.66254,0.04652
1008.73380,0.04572
1006.80505,0.04511
1004.87631,0.04475
1002.94756,0.04465
1001.01881,0.04492
999.09007,0.04549
997.16132,0.04631
995.23258,0.04730
993.30383,0.04844
991.37509,0.04965
989.44634,0.05087
987.51760,0.05226
985.58885,0.05405
983.66011,0.05610
981.73136,0.05815
979.80262,0.06002
977.87387,0.06152
975.94513,0.06238
974.01638,0.06258
972.08763,0.06254
970.15889,0.06278
968.23014,0.06339
966.30140,0.06421
964.37265,0.06542
962.44391,0.06712
960.51516,0.06944
958.58642,0.07264
956.65767,0.07636
954.72893,0.07976
952.80018,0.08258
950.87144,0.08507
948.94269,0.08722
947.01395,0.08879
945.08520,0.08985
943.15646,0.09059
941.22771,0.09099
939.29896,0.09097
937.37022,0.09067
935.44147,0.09018
933.51273,0.08955
931.58398,0.08911
929.65524,0.08907
927.72649,0.08914
925.79775,0.08903
923.86900,0.08876
921.94026,0.08825
920.01151,0.08729
918.08277,0.08561
916.15402,0.08310
914.22528,0.07984
912.29653,0.07612
910.36779,0.07220
908.43904,0.06838
906.51029,0.06497
904.58155,0.06192
902.65280,0.05900
900.72406,0.05639
898.79531,0.05467
896.86657,0.05424
894.93782,0.05521
893.00908,0.05762
891.08033,0.06149
889.15159,0.06617
887.22284,0.07088
885.29410,0.07559
883.36535,0.08006
881.43661,0.08383
879.50786,0.08708
877.57911,0.08981
875.65037,0.09187
873.72162,0.09341
871.79288,0.09445
869.86413,0.09496
867.93539,0.09515
866.00664,0.09526
864.07790,0.09529
862.14915,0.09487
860.22041,0.09385
858.29166,0.09267
856.36292,0.09173
854.43417,0.09111
852.50543,0.09056
850.57668,0.08942
848.64794,0.08776
846.71919,0.08635
844.79044,0.08532
842.86170,0.08423
840.93295,0.08280
839.00421,0.08109
837.07546,0.07947
835.14672,0.07816
833.21797,0.07689
831.28923,0.07556
829.36048,0.07446
827.43174,0.07332
825.50299,0.07183
823.57425,0.07046
821.64550,0.06958
819.71676,0.06886
817.78801,0.06793
815.85926,0.06709
813.93052,0.06675
812.00177,0.06639
810.07303,0.06557
808.14428,0.06484
806.21554,0.06449
804.28679,0.06408
802.35805,0.06353
800.42930,0.06317
798.50056,0.06274
796.57181,0.06194
794.64307,0.06122
792.71432,0.06077
790.78558,0.06011
788.85683,0.05922
786.92809,0.05861
784.99934,0.05841
783.07059,0.05830
781.14185,0.05808
779.21310,0.05752
777.28436,0.05650
775.35561,0.05547
773.42687,0.05490
771.49812,0.05446
769.56938,0.05379
767.64063,0.05313
765.71189,0.05256
763.78314,0.05178
761.85440,0.05112
759.92565,0.05096
757.99691,0.05078
756.06816,0.05029
754.13942,0.04972
752.21067,0.04899
750.28192,0.04833
748.35318,0.04817
746.42443,0.04810
744.49569,0.04750
742.56694,0.04659
740.63820,0.04605
738.70945,0.04588
736.78071,0.04556
734.85196,0.04505
732.92322,0.04445
730.99447,0.04361
729.06573,0.04267
727.13698,0.04200
725.20824,0.04184
723.27949,0.04204
721.35074,0.04177
719.42200,0.04077
717.49325,0.04013
715.56451,0.04048
713.63576,0.04088
711.70702,0.04074
709.77827,0.04049
707.84953,0.04023
705.92078,0.03983
703.99204,0.03956
702.06329,0.03919
700.13455,0.03855
698.20580,0.03839
696.27706,0.03873
694.34831,0.03868
692.41957,0.03819
690.49082,0.03781
688.56207,0.03758
686.63333,0.03730
684.70458,0.03667
682.77584,0.03546
680.84709,0.03406
678.91835,0.03312
676.98960,0.03292
675.06086,0.03331
673.13211,0.03386
671.20337,0.03411
669.27462,0.03404
667.34588,0.03399
665.41713,0.03469
663.48839,0.03579
661.55964,0.03584
659.63090,0.03489
657.70215,0.03424
655.77340,0.03388
653.84466,0.03348
651.91591,0.03343
649.98717,0.03402
648.05842,0.03497
646.12968,0.03560
644.20093,0.03550
642.27219,0.03511
640.34344,0.03487
638.41470,0.03482
636.48595,0.03455
634.55721,0.03384
632.62846,0.03306
630.69972,0.03225
628.77097,0.03118
626.84222,0.02999
624.91348,0.02936
622.98473,0.02964
621.05599,0.03026
619.12724,0.03125
617.19850,0.03257
615.26975,0.03290
613.34101,0.03191
611.41226,0.03141
609.48352,0.03259
607.55477,0.03409
605.62603,0.03442
603.69728,0.03410
601.76854,0.03393
599.83979,0.03386
