7497.03301,0.82960
7495.10426,0.82303
7493.17552,0.82429
7491.24677,0.82808
7489.31803,0.82597
7487.38928,0.81942
7485.46054,0.81725
7483.53179,0.82022
7481.60305,0.82244
7479.67430,0.82254
7477.74556,0.82026
7475.81681,0.81560
7473.88807,0.81399
7471.95932,0.81915
7470.03057,0.82317
7468.10183,0.81910
7466.17308,0.81354
7464.24434,0.81179
7462.31559,0.81132
7460.38685,0.81110
7458.45810,0.81236
7456.52936,0.81572
7454.60061,0.81813
7452.67187,0.81628
7450.74312,0.81193
7448.81438,0.80766
7446.88563,0.80556
7444.95689,0.80649
7443.02814,0.80687
7441.09940,0.80549
7439.17065,0.80507
7437.24190,0.80588
7435.31316,0.80625
7433.38441,0.80516
7431.45567,0.80314
7429.52692,0.80258
7427.59818,0.80493
7425.66943,0.80652
7423.74069,0.80397
7421.81194,0.80103
7419.88320,0.79863
7417.95445,0.79539
7416.02571,0.79723
7414.09696,0.80393
7412.16822,0.80560
7410.23947,0.80112
7408.31073,0.79757
7406.38198,0.79713
7404.45323,0.79668
7402.52449,0.79276
7400.59574,0.78660
7398.66700,0.78371
7396.73825,0.78487
7394.80951,0.78669
7392.88076,0.78851
7390.95202,0.79037
7389.02327,0.79183
7387.09453,0.79395
7385.16578,0.79807
7383.23704,0.80185
7381.30829,0.80098
7379.37955,0.79676
7377.45080,0.79282
7375.52205,0.78960
7373.59331,0.78762
7371.66456,0.78661
7369.73582,0.78448
7367.80707,0.78254
7365.87833,0.78281
7363.94958,0.78189
7362.02084,0.77741
7360.09209,0.77317
7358.16335,0.77296
7356.23460,0.77531
7354.30586,0.77560
7352.37711,0.77412
7350.44837,0.77527
7348.51962,0.77946
7346.59088,0.78242
7344.66213,0.78147
7342.73338,0.77914
7340.80464,0.77800
7338.87589,0.77836
7336.94715,0.77878
7335.01840,0.77479
7333.08966,0.76854
7331.16091,0.76886
7329.23217,0.77425
7327.30342,0.77477
7325.37468,0.76939
7323.44593,0.76547
7321.51719,0.76753
7319.58844,0.77304
7317.65970,0.77610
7315.73095,0.77560
7313.80221,0.77470
7311.87346,0.77345
7309.94471,0.76869
7308.01597,0.76086
7306.08722,0.75871
7304.15848,0.76510
7302.22973,0.76899
7300.30099,0.76762
7298.37224,0.76871
7296.44350,0.77126
7294.51475,0.76959
7292.58601,0.76609
7290.65726,0.76590
7288.72852,0.76563
7286.79977,0.76273
7284.87103,0.76328
7282.94228,0.76678
7281.01353,0.76665
7279.08479,0.76525
7277.15604,0.76600
7275.22730,0.76541
7273.29855,0.76340
7271.36981,0.76400
7269.44106,0.76593
7267.51232,0.76557
7265.58357,0.76421
7263.65483,0.76543
7261.72608,0.76980
7259.79734,0.77417
7257.86859,0.77440
7255.93985,0.77210
7254.01110,0.77281
7252.08236,0.77598
7250.15361,0.77705
7248.22486,0.77356
7246.29612,0.76633
7244.36737,0.76145
7242.43863,0.76487
7240.50988,0.77186
7238.58114,0.77290
7236.65239,0.76942
7234.72365,0.76770
7232.79490,0.76831
7230.86616,0.77113
7228.93741,0.77504
7227.00867,0.77508
7225.07992,0.77099
7223.15118,0.76838
7221.22243,0.76921
7219.29369,0.76970
7217.36494,0.76655
7215.43619,0.76135
7213.50745,0.75768
7211.57870,0.75656
7209.64996,0.75729
7207.72121,0.75798
7205.79247,0.75807
7203.86372,0.76045
7201.93498,0.76400
7200.00623,0.76304
7198.07749,0.75766
7196.14874,0.75464
7194.22000,0.75745
7192.29125,0.76150
7190.36251,0.76169
7188.43376,0.75897
7186.50501,0.75683
7184.57627,0.75554
7182.64752,0.75383
7180.71878,0.75243
7178.79003,0.75160
7176.86129,0.75033
7174.93254,0.74985
7173.00380,0.75101
7171.07505,0.75196
7169.14631,0.75105
7167.21756,0.74793
7165.28882,0.74527
7163.36007,0.74605
7161.43133,0.74774
7159.50258,0.74704
7157.57384,0.74506
7155.64509,0.74270
7153.71634,0.73933
7151.78760,0.73756
7149.85885,0.73975
7147.93011,0.74172
7146.00136,0.73962
7144.07262,0.73614
7142.14387,0.73504
7140.21513,0.73603
7138.28638,0.73692
7136.35764,0.73641
7134.42889,0.73346
7132.50015,0.72956
7130.57140,0.72886
7128.64266,0.73070
7126.71391,0.72942
7124.78516,0.72470
7122.85642,0.72131
7120.92767,0.71930
7118.99893,0.71727
7117.07018,0.71695
7115.14144,0.71659
7113.21269,0.71345
7111.28395,0.71096
7109.35520,0.71128
7107.42646,0.71118
7105.49771,0.70986
7103.56897,0.70860
7101.64022,0.70607
7099.71148,0.70231
7097.78273,0.70023
7095.85399,0.70000
7093.92524,0.69875
7091.99649,0.69608
7090.06775,0.69244
7088.13900,0.68811
7086.21026,0.68631
7084.28151,0.68751
7082.35277,0.68755
7080.42402,0.68568
7078.49528,0.68365
7076.56653,0.67982
7074.63779,0.67491
7072.70904,0.67402
7070.78030,0.67444
7068.85155,0.66951
7066.92281,0.66367
7064.99406,0.66317
7063.06532,0.66469
7061.13657,0.66327
7059.20782,0.65962
7057.27908,0.65703
7055.35033,0.65583
7053.42159,0.65421
7051.49284,0.65253
7049.56410,0.65225
7047.63535,0.65256
7045.70661,0.65098
7043.77786,0.64674
7041.84912,0.64264
7039.92037,0.64202
7037.99163,0.64257
7036.06288,0.64014
7034.13414,0.63676
7032.20539,0.63538
7030.27664,0.63467
7028.34790,0.63407
7026.41915,0.63412
7024.49041,0.63366
7022.56166,0.63054
7020.63292,0.62533
7018.70417,0.62277
7016.77543,0.62343
7014.84668,0.62224
7012.91794,0.61941
7010.98919,0.61738
7009.06045,0.61528
7007.13170,0.61513
7005.20296,0.61757
7003.27421,0.61802
7001.34547,0.61604
6999.41672,0.61426
6997.48797,0.61185
6995.55923,0.60861
6993.63048,0.60733
6991.70174,0.60782
6989.77299,0.60754
6987.84425,0.60672
6985.91550,0.60413
6983.98676,0.59800
6982.05801,0.59254
6980.12927,0.59188
6978.20052,0.59435
6976.27178,0.59550
6974.34303,0.59333
6972.41429,0.59082
6970.48554,0.59034
6968.55680,0.59030
6966.62805,0.58999
6964.69930,0.59135
6962.77056,0.59461
6960.84181,0.59619
6958.91307,0.59434
6956.98432,0.59217
6955.05558,0.59237
6953.12683,0.59468
6951.19809,0.59724
6949.26934,0.59649
6947.34060,0.59075
6945.41185,0.58494
6943.48311,0.58350
6941.55436,0.58300
6939.62562,0.58087
6937.69687,0.58020
6935.76812,0.58129
6933.83938,0.58069
6931.91063,0.57812
6929.98189,0.57660
6928.05314,0.57637
6926.12440,0.57602
6924.19565,0.57634
6922.26691,0.57686
6920.33816,0.57761
6918.40942,0.58000
6916.48067,0.58195
6914.55193,0.58133
6912.62318,0.57911
6910.69444,0.57673
6908.76569,0.57472
6906.83695,0.57328
6904.90820,0.57358
6902.97945,0.57592
6901.05071,0.57761
6899.12196,0.57578
6897.19322,0.57240
6895.26447,0.57111
6893.33573,0.57131
6891.40698,0.57131
6889.47824,0.57127
6887.54949,0.57159
6885.62075,0.57276
6883.69200,0.57340
6881.76326,0.57083
6879.83451,0.56790
6877.90577,0.56886
6875.97702,0.57088
6874.04828,0.57078
6872.11953,0.57100
6870.19078,0.57326
6868.26204,0.57544
6866.33329,0.57534
6864.40455,0.57279
6862.47580,0.56843
6860.54706,0.56458
6858.61831,0.56430
6856.68957,0.56631
6854.76082,0.56660
6852.83208,0.56454
6850.90333,0.56252
6848.97459,0.56192
6847.04584,0.56199
6845.11710,0.56144
6843.18835,0.56106
6841.25960,0.56235
6839.33086,0.56433
6837.40211,0.56528
6835.47337,0.56485
6833.54462,0.56352
6831.61588,0.56242
6829.68713,0.56231
6827.75839,0.56222
6825.82964,0.56157
6823.90090,0.56078
6821.97215,0.55909
6820.04341,0.55670
6818.11466,0.55562
6816.18592,0.55658
6814.25717,0.55866
6812.32843,0.55995
6810.39968,0.55964
6808.47093,0.55915
6806.54219,0.55952
6804.61344,0.56026
6802.68470,0.56042
6800.75595,0.55958
6798.82721,0.55828
6796.89846,0.55717
6794.96972,0.55650
6793.04097,0.55724
6791.11223,0.55968
6789.18348,0.56152
6787.25474,0.56155
6785.32599,0.55993
6783.39725,0.55697
6781.46850,0.55500
6779.53975,0.55543
6777.61101,0.55665
6775.68226,0.55711
6773.75352,0.55833
6771.82477,0.56089
6769.89603,0.56114
6767.96728,0.55979
6766.03854,0.56073
6764.10979,0.56173
6762.18105,0.56013
6760.25230,0.55730
6758.32356,0.55531
6756.39481,0.55454
6754.46607,0.55407
6752.53732,0.55504
6750.60858,0.55824
6748.67983,0.56116
6746.75108,0.56279
6744.82234,0.56395
6742.89359,0.56465
6740.96485,0.56565
6739.03610,0.56571
6737.10736,0.56271
6735.17861,0.55996
6733.24987,0.56056
6731.32112,0.56204
6729.39238,0.56220
6727.46363,0.56088
6725.53489,0.55864
6723.60614,0.55828
6721.67740,0.56140
6719.74865,0.56522
6717.81991,0.56702
6715.89116,0.56725
6713.96241,0.56671
6712.03367,0.56501
6710.10492,0.56231
6708.17618,0.56078
6706.24743,0.56211
6704.31869,0.56487
6702.38994,0.56641
6700.46120,0.56553
6698.53245,0.56328
6696.60371,0.56191
6694.67496,0.56243
6692.74622,0.56441
6690.81747,0.56645
6688.88873,0.56765
6686.95998,0.56841
6685.03123,0.56885
6683.10249,0.56990
6681.17374,0.57130
6679.24500,0.57094
6677.31625,0.56980
6675.38751,0.56986
6673.45876,0.56976
6671.53002,0.56819
6669.60127,0.56746
6667.67253,0.56906
6665.74378,0.57030
6663.81504,0.57040
6661.88629,0.57136
6659.95755,0.57256
6658.02880,0.57345
6656.10006,0.57626
6654.17131,0.58051
6652.24256,0.58217
6650.31382,0.57919
6648.38507,0.57379
6646.45633,0.57122
6644.52758,0.57370
6642.59884,0.57753
6640.67009,0.57911
6638.74135,0.57858
6636.81260,0.57790
6634.88386,0.57835
6632.95511,0.57971
6631.02637,0.58047
6629.09762,0.57996
6627.16888,0.58008
6625.24013,0.58247
6623.31139,0.58586
6621.38264,0.58760
6619.45389,0.58717
6617.52515,0.58635
6615.59640,0.58596
6613.66766,0.58637
6611.73891,0.58793
6609.81017,0.58890
6607.88142,0.58836
6605.95268,0.58795
6604.02393,0.58844
6602.09519,0.58914
6600.16644,0.58922
6598.23770,0.58881
6596.30895,0.58867
6594.38021,0.58838
6592.45146,0.58718
6590.52271,0.58571
6588.59397,0.58508
6586.66522,0.58623
6584.73648,0.58885
6582.80773,0.59132
6580.87899,0.59364
6578.95024,0.59544
6577.02150,0.59462
6575.09275,0.59243
6573.16401,0.59160
6571.23526,0.59246
6569.30652,0.59510
6567.37777,0.59890
6565.44903,0.60117
6563.52028,0.60063
6561.59154,0.59988
6559.66279,0.60044
6557.73404,0.60087
6555.80530,0.60077
6553.87655,0.59969
6551.94781,0.59775
6550.01906,0.59676
6548.09032,0.59704
6546.16157,0.59857
6544.23283,0.60171
6542.30408,0.60484
6540.37534,0.60488
6538.44659,0.60206
6536.51785,0.60045
6534.58910,0.60106
6532.66036,0.60151
6530.73161,0.60111
6528.80287,0.60004
6526.87412,0.59938
6524.94537,0.60099
6523.01663,0.60320
6521.08788,0.60244
6519.15914,0.59992
6517.23039,0.59932
6515.30165,0.60019
6513.37290,0.60059
6511.44416,0.60077
6509.51541,0.60106
6507.58667,0.60230
6505.65792,0.60467
6503.72918,0.60570
6501.80043,0.60469
6499.87169,0.60357
6497.94294,0.60365
6496.01419,0.60467
6494.08545,0.60548
6492.15670,0.60555
6490.22796,0.60519
6488.29921,0.60473
6486.37047,0.60462
6484.44172,0.60555
6482.51298,0.60744
6480.58423,0.60866
6478.65549,0.60755
6476.72674,0.60475
6474.79800,0.60253
6472.86925,0.60347
6470.94051,0.60752
6469.01176,0.61033
6467.08302,0.60987
6465.15427,0.60882
6463.22552,0.60841
6461.29678,0.60745
6459.36803,0.60660
6457.43929,0.60677
6455.51054,0.60638
6453.58180,0.60573
6451.65305,0.60683
6449.72431,0.60899
6447.79556,0.60991
6445.86682,0.60869
6443.93807,0.60761
6442.00933,0.60778
6440.08058,0.60749
6438.15184,0.60738
6436.22309,0.60774
6434.29434,0.60644
6432.36560,0.60439
6430.43685,0.60418
6428.50811,0.60513
6426.57936,0.60650
6424.65062,0.60849
6422.72187,0.60872
6420.79313,0.60663
6418.86438,0.60500
6416.93564,0.60505
6415.00689,0.60645
6413.07815,0.60884
6411.14940,0.61086
6409.22066,0.61055
6407.29191,0.60871
6405.36317,0.60852
6403.43442,0.60973
6401.50567,0.60913
6399.57693,0.60640
6397.64818,0.60421
6395.71944,0.60432
6393.79069,0.60591
6391.86195,0.60734
6389.93320,0.60873
6388.00446,0.60980
6386.07571,0.60906
6384.14697,0.60696
6382.21822,0.60514
6380.28948,0.60504
6378.36073,0.60649
6376.43199,0.60742
6374.50324,0.60776
6372.57450,0.60770
6370.64575,0.60641
6368.71700,0.60595
6366.78826,0.60727
6364.85951,0.60814
6362.93077,0.60870
6361.00202,0.60935
6359.07328,0.60915
6357.14453,0.60883
6355.21579,0.60833
6353.28704,0.60742
6351.35830,0.60663
6349.42955,0.60548
6347.50081,0.60478
6345.57206,0.60565
6343.64332,0.60728
6341.71457,0.60945
6339.78582,0.61260
6337.85708,0.61479
6335.92833,0.61354
6333.99959,0.61089
6332.07084,0.61058
6330.14210,0.61185
6328.21335,0.61151
6326.28461,0.60964
6324.35586,0.60923
6322.42712,0.61106
6320.49837,0.61288
6318.56963,0.61361
6316.64088,0.61425
6314.71214,0.61509
6312.78339,0.61504
6310.85465,0.61364
6308.92590,0.61230
6306.99715,0.61209
6305.06841,0.61233
6303.13966,0.61294
6301.21092,0.61372
6299.28217,0.61385
6297.35343,0.61424
6295.42468,0.61529
6293.49594,0.61604
6291.56719,0.61670
6289.63845,0.61778
6287.70970,0.61874
6285.78096,0.61850
6283.85221,0.61797
6281.92347,0.61860
6279.99472,0.61962
6278.06598,0.62101
6276.13723,0.62257
6274.20848,0.62256
6272.27974,0.62120
6270.35099,0.61977
6268.42225,0.61910
6266.49350,0.61964
6264.56476,0.62015
6262.63601,0.62050
6260.70727,0.62261
6258.77852,0.62447
6256.84978,0.62305
6254.92103,0.62139
6252.99229,0.62254
6251.06354,0.62436
6249.13480,0.62449
6247.20605,0.62314
6245.27730,0.62250
6243.34856,0.62406
6241.41981,0.62628
6239.49107,0.62763
6237.56232,0.62857
6235.63358,0.62938
6233.70483,0.62986
6231.77609,0.62993
6229.84734,0.63037
6227.91860,0.63178
6225.98985,0.63292
6224.06111,0.63255
6222.13236,0.63180
6220.20362,0.63256
6218.27487,0.63419
6216.34613,0.63503
6214.41738,0.63486
6212.48863,0.63403
6210.55989,0.63396
6208.63114,0.63515
6206.70240,0.63595
6204.77365,0.63596
6202.84491,0.63580
6200.91616,0.63520
6198.98742,0.63411
6197.05867,0.63368
6195.12993,0.63478
6193.20118,0.63613
6191.27244,0.63658
6189.34369,0.63710
6187.41495,0.63842
6185.48620,0.64006
6183.55746,0.64192
6181.62871,0.64321
6179.69996,0.64286
6177.77122,0.64209
6175.84247,0.64280
6173.91373,0.64450
6171.98498,0.64521
6170.05624,0.64479
6168.12749,0.64466
6166.19875,0.64453
6164.27000,0.64407
6162.34126,0.64418
6160.41251,0.64417
6158.48377,0.64388
6156.55502,0.64545
6154.62628,0.64852
6152.69753,0.65002
6150.76878,0.64948
6148.84004,0.64927
6146.91129,0.65030
6144.98255,0.65152
6143.05380,0.65187
6141.12506,0.65115
6139.19631,0.65044
6137.26757,0.65127
6135.33882,0.65326
6133.41008,0.65420
6131.48133,0.65337
6129.55259,0.65265
6127.62384,0.65301
6125.69510,0.65398
6123.76635,0.65525
6121.83761,0.65620
6119.90886,0.65626
6117.98011,0.65566
6116.05137,0.65503
6114.12262,0.65534
6112.19388,0.65674
6110.26513,0.65759
6108.33639,0.65719
6106.40764,0.65671
6104.47890,0.65708
6102.55015,0.65850
6100.62141,0.65965
6098.69266,0.65986
6096.76392,0.66079
6094.83517,0.66243
6092.90643,0.66369
6090.97768,0.66402
6089.04893,0.66289
6087.12019,0.66160
6085.19144,0.66210
6083.26270,0.66441
6081.33395,0.66701
6079.40521,0.66814
6077.47646,0.66761
6075.54772,0.66669
6073.61897,0.66607
6071.69023,0.66610
6069.76148,0.66696
6067.83274,0.66784
6065.90399,0.66914
6063.97525,0.67138
6062.04650,0.67240
6060.11776,0.67196
6058.18901,0.67266
6056.26026,0.67403
6054.33152,0.67345
6052.40277,0.67159
6050.47403,0.67137
6048.54528,0.67288
6046.61654,0.67422
6044.68779,0.67510
6042.75905,0.67643
6040.83030,0.67743
6038.90156,0.67647
6036.97281,0.67463
6035.04407,0.67403
6033.11532,0.67455
6031.18658,0.67553
6029.25783,0.67648
6027.32909,0.67662
6025.40034,0.67645
6023.47159,0.67668
6021.54285,0.67739
6019.61410,0.67857
6017.68536,0.67947
6015.75661,0.67981
6013.82787,0.68031
6011.89912,0.68104
6009.97038,0.68159
6008.04163,0.68140
6006.11289,0.68037
6004.18414,0.67934
6002.25540,0.67885
6000.32665,0.67903
5998.39791,0.68022
5996.46916,0.68174
5994.54041,0.68226
5992.61167,0.68209
5990.68292,0.68223
5988.75418,0.68240
5986.82543,0.68222
5984.89669,0.68262
5982.96794,0.68372
5981.03920,0.68378
5979.11045,0.68307
5977.18171,0.68336
5975.25296,0.68432
5973.32422,0.68496
5971.39547,0.68488
5969.46673,0.68398
5967.53798,0.68279
5965.60924,0.68217
5963.68049,0.68264
5961.75174,0.68291
5959.82300,0.68169
5957.89425,0.68027
5955.96551,0.68020
5954.03676,0.68099
5952.10802,0.68088
5950.17927,0.67926
5948.25053,0.67742
5946.32178,0.67620
5944.39304,0.67548
5942.46429,0.67495
5940.53555,0.67437
5938.60680,0.67426
5936.67806,0.67494
5934.74931,0.67558
5932.82057,0.67516
5930.89182,0.67409
5928.96307,0.67366
5927.03433,0.67314
5925.10558,0.67188
5923.17684,0.67146
5921.24809,0.67235
5919.31935,0.67320
5917.39060,0.67258
5915.46186,0.67052
5913.53311,0.66879
5911.60437,0.66869
5909.67562,0.66959
5907.74688,0.67027
5905.81813,0.67023
5903.88939,0.66946
5901.96064,0.66852
5900.03189,0.66802
5898.10315,0.66804
5896.17440,0.66848
5894.24566,0.66876
5892.31691,0.66885
5890.38817,0.66903
5888.45942,0.66832
5886.53068,0.66691
5884.60193,0.66587
5882.67319,0.66523
5880.74444,0.66515
5878.81570,0.66512
5876.88695,0.66453
5874.95821,0.66414
5873.02946,0.66445
5871.10072,0.66551
5869.17197,0.66659
5867.24322,0.66595
5865.31448,0.66407
5863.38573,0.66320
5861.45699,0.66353
5859.52824,0.66402
5857.59950,0.66421
5855.67075,0.66393
5853.74201,0.66337
5851.81326,0.66324
5849.88452,0.66355
5847.95577,0.66355
5846.02703,0.66329
5844.09828,0.66288
5842.16954,0.66198
5840.24079,0.66055
5838.31205,0.65925
5836.38330,0.65888
5834.45455,0.65929
5832.52581,0.65988
5830.59706,0.65970
5828.66832,0.65809
5826.73957,0.65634
5824.81083,0.65565
5822.88208,0.65504
5820.95334,0.65385
5819.02459,0.65319
5817.09585,0.65344
5815.16710,0.65322
5813.23836,0.65252
5811.30961,0.65262
5809.38087,0.65331
5807.45212,0.65357
5805.52337,0.65327
5803.59463,0.65272
5801.66588,0.65204
5799.73714,0.65157
5797.80839,0.65133
5795.87965,0.65100
5793.95090,0.65111
5792.02216,0.65190
5790.09341,0.65264
5788.16467,0.65295
5786.23592,0.65304
5784.30718,0.65366
5782.37843,0.65540
5780.44969,0.65660
5778.52094,0.65523
5776.59220,0.65251
5774.66345,0.65061
5772.73470,0.64972
5770.80596,0.64994
5768.87721,0.65115
5766.94847,0.65170
5765.01972,0.65111
5763.09098,0.65069
5761.16223,0.65081
5759.23349,0.65082
5757.30474,0.65060
5755.37600,0.65083
5753.44725,0.65183
5751.51851,0.65252
5749.58976,0.65201
5747.66102,0.65066
5745.73227,0.64978
5743.80352,0.65052
5741.87478,0.65183
5739.94603,0.65221
5738.01729,0.65224
5736.08854,0.65210
5734.15980,0.65114
5732.23105,0.65051
5730.30231,0.65078
5728.37356,0.65092
5726.44482,0.65089
5724.51607,0.65055
5722.58733,0.64965
5720.65858,0.64927
5718.72984,0.64960
5716.80109,0.64968
5714.87235,0.64924
5712.94360,0.64895
5711.01485,0.64966
5709.08611,0.65081
5707.15736,0.65086
5705.22862,0.64967
5703.29987,0.64826
5701.37113,0.64702
5699.44238,0.64643
5697.51364,0.64691
5695.58489,0.64767
5693.65615,0.64789
5691.72740,0.64752
5689.79866,0.64682
5687.86991,0.64615
5685.94117,0.64564
5684.01242,0.64525
5682.08368,0.64503
5680.15493,0.64519
5678.22618,0.64555
5676.29744,0.64558
5674.36869,0.64557
5672.43995,0.64554
5670.51120,0.64513
5668.58246,0.64463
5666.65371,0.64380
5664.72497,0.64251
5662.79622,0.64176
5660.86748,0.64211
5658.93873,0.64344
5657.00999,0.64510
5655.08124,0.64585
5653.15250,0.64515
5651.22375,0.64447
5649.29500,0.64502
5647.36626,0.64566
5645.43751,0.64569
5643.50877,0.64580
5641.58002,0.64585
5639.65128,0.64550
5637.72253,0.64515
5635.79379,0.64514
5633.86504,0.64546
5631.93630,0.64567
5630.00755,0.64510
5628.07881,0.64396
5626.15006,0.64386
5624.22132,0.64499
5622.29257,0.64542
5620.36383,0.64484
5618.43508,0.64464
5616.50633,0.64456
5614.57759,0.64376
5612.64884,0.64291
5610.72010,0.64304
5608.79135,0.64381
5606.86261,0.64419
5604.93386,0.64442
5603.00512,0.64535
5601.07637,0.64652
5599.14763,0.64714
5597.21888,0.64755
5595.29014,0.64751
5593.36139,0.64651
5591.43265,0.64560
5589.50390,0.64546
5587.57516,0.64527
5585.64641,0.64497
5583.71766,0.64571
5581.78892,0.64735
5579.86017,0.64838
5577.93143,0.64815
5576.00268,0.64739
5574.07394,0.64764
5572.14519,0.64890
5570.21645,0.64908
5568.28770,0.64794
5566.35896,0.64718
5564.43021,0.64741
5562.50147,0.64838
5560.57272,0.64947
5558.64398,0.64998
5556.71523,0.64991
5554.78648,0.64956
5552.85774,0.64958
5550.92899,0.65064
5549.00025,0.65155
5547.07150,0.65101
5545.14276,0.65001
5543.21401,0.64996
5541.28527,0.65057
5539.35652,0.65063
5537.42778,0.65019
5535.49903,0.65060
5533.57029,0.65226
5531.64154,0.65348
5529.71280,0.65305
5527.78405,0.65209
5525.85531,0.65205
5523.92656,0.65284
5521.99781,0.65299
5520.06907,0.65236
5518.14032,0.65255
5516.21158,0.65353
5514.28283,0.65409
5512.35409,0.65430
5510.42534,0.65483
5508.49660,0.65510
5506.56785,0.65461
5504.63911,0.65441
5502.71036,0.65487
5500.78162,0.65555
5498.85287,0.65605
5496.92413,0.65584
5494.99538,0.65533
5493.06664,0.65542
5491.13789,0.65579
5489.20914,0.65539
5487.28040,0.65427
5485.35165,0.65375
5483.42291,0.65475
5481.49416,0.65635
5479.56542,0.65694
5477.63667,0.65651
5475.70793,0.65624
5473.77918,0.65659
5471.85044,0.65760
5469.92169,0.65888
5467.99295,0.65919
5466.06420,0.65871
5464.13546,0.65888
5462.20671,0.65932
5460.27796,0.65920
5458.34922,0.65904
5456.42047,0.65918
5454.49173,0.65928
5452.56298,0.65940
5450.63424,0.65977
5448.70549,0.65994
5446.77675,0.65991
5444.84800,0.66024
5442.91926,0.66080
5440.99051,0.66147
5439.06177,0.66204
5437.13302,0.66197
5435.20428,0.66152
5433.27553,0.66112
5431.34679,0.66101
5429.41804,0.66161
5427.48929,0.66256
5425.56055,0.66344
5423.63180,0.66411
5421.70306,0.66410
5419.77431,0.66437
5417.84557,0.66555
5415.91682,0.66645
5413.98808,0.66690
5412.05933,0.66759
5410.13059,0.66833
5408.20184,0.66872
5406.27310,0.66881
5404.34435,0.66877
5402.41561,0.66878
5400.48686,0.66888
5398.55811,0.66907
5396.62937,0.66954
5394.70062,0.67031
5392.77188,0.67094
5390.84313,0.67129
5388.91439,0.67167
5386.98564,0.67216
5385.05690,0.67235
5383.12815,0.67184
5381.19941,0.67143
5379.27066,0.67206
5377.34192,0.67297
5375.41317,0.67281
5373.48443,0.67187
5371.55568,0.67124
5369.62694,0.67113
5367.69819,0.67131
5365.76944,0.67142
5363.84070,0.67139
5361.91195,0.67165
5359.98321,0.67164
5358.05446,0.67059
5356.12572,0.66944
5354.19697,0.66954
5352.26823,0.67034
5350.33948,0.67016
5348.41074,0.66917
5346.48199,0.66868
5344.55325,0.66880
5342.62450,0.66896
5340.69576,0.66897
5338.76701,0.66854
5336.83827,0.66764
5334.90952,0.66642
5332.98077,0.66484
5331.05203,0.66353
5329.12328,0.66327
5327.19454,0.66342
5325.26579,0.66274
5323.33705,0.66124
5321.40830,0.65940
5319.47956,0.65757
5317.55081,0.65635
5315.62207,0.65564
5313.69332,0.65455
5311.76458,0.65302
5309.83583,0.65136
5307.90709,0.64985
5305.97834,0.64871
5304.04959,0.64736
5302.12085,0.64495
5300.19210,0.64215
5298.26336,0.64020
5296.33461,0.63825
5294.40587,0.63526
5292.47712,0.63224
5290.54838,0.62994
5288.61963,0.62775
5286.69089,0.62519
5284.76214,0.62229
5282.83340,0.61877
5280.90465,0.61491
5278.97591,0.61210
5277.04716,0.60979
5275.11842,0.60601
5273.18967,0.60122
5271.26092,0.59721
5269.33218,0.59423
5267.40343,0.59119
5265.47469,0.58718
5263.54594,0.58256
5261.61720,0.57826
5259.68845,0.57448
5257.75971,0.57101
5255.83096,0.56768
5253.90222,0.56418
5251.97347,0.56056
5250.04473,0.55705
5248.11598,0.55320
5246.18724,0.54899
5244.25849,0.54504
5242.32975,0.54144
5240.40100,0.53835
5238.47225,0.53578
5236.54351,0.53319
5234.61476,0.53054
5232.68602,0.52771
5230.75727,0.52490
5228.82853,0.52300
5226.89978,0.52164
5224.97104,0.51940
5223.04229,0.51635
5221.11355,0.51360
5219.18480,0.51116
5217.25606,0.50908
5215.32731,0.50761
5213.39857,0.50601
5211.46982,0.50419
5209.54107,0.50302
5207.61233,0.50209
5205.68358,0.50033
5203.75484,0.49817
5201.82609,0.49665
5199.89735,0.49594
5197.96860,0.49559
5196.03986,0.49492
5194.11111,0.49372
5192.18237,0.49252
5190.25362,0.49185
5188.32488,0.49175
5186.39613,0.49175
5184.46739,0.49145
5182.53864,0.49101
5180.60990,0.49080
5178.68115,0.49083
5176.75240,0.49066
5174.82366,0.49047
5172.89491,0.49086
5170.96617,0.49159
5169.03742,0.49190
5167.10868,0.49164
5165.17993,0.49120
5163.25119,0.49124
5161.32244,0.49198
5159.39370,0.49262
5157.46495,0.49305
5155.53621,0.49410
5153.60746,0.49558
5151.67872,0.49666
5149.74997,0.49759
5147.82123,0.49867
5145.89248,0.49939
5143.96373,0.50013
5142.03499,0.50135
5140.10624,0.50233
5138.17750,0.50279
5136.24875,0.50324
5134.32001,0.50405
5132.39126,0.50526
5130.46252,0.50635
5128.53377,0.50689
5126.60503,0.50759
5124.67628,0.50909
5122.74754,0.51070
5120.81879,0.51182
5118.89005,0.51284
5116.96130,0.51392
5115.03255,0.51473
5113.10381,0.51514
5111.17506,0.51566
5109.24632,0.51668
5107.31757,0.51797
5105.38883,0.51923
5103.46008,0.52028
5101.53134,0.52106
5099.60259,0.52198
5097.67385,0.52346
5095.74510,0.52532
5093.81636,0.52703
5091.88761,0.52833
5089.95887,0.52919
5088.03012,0.52977
5086.10138,0.53064
5084.17263,0.53185
5082.24388,0.53260
5080.31514,0.53286
5078.38639,0.53349
5076.45765,0.53461
5074.52890,0.53608
5072.60016,0.53794
5070.67141,0.53934
5068.74267,0.53969
5066.81392,0.53980
5064.88518,0.54032
5062.95643,0.54131
5061.02769,0.54251
5059.09894,0.54361
5057.17020,0.54489
5055.24145,0.54658
5053.31270,0.54824
5051.38396,0.54940
5049.45521,0.55002
5047.52647,0.55020
5045.59772,0.55060
5043.66898,0.55162
5041.74023,0.55241
5039.81149,0.55275
5037.88274,0.55378
5035.95400,0.55533
5034.02525,0.55629
5032.09651,0.55682
5030.16776,0.55743
5028.23902,0.55802
5026.31027,0.55855
5024.38153,0.55910
5022.45278,0.55960
5020.52403,0.56008
5018.59529,0.56101
5016.66654,0.56236
5014.73780,0.56314
5012.80905,0.56337
5010.88031,0.56395
5008.95156,0.56452
5007.02282,0.56445
5005.09407,0.56431
5003.16533,0.56489
5001.23658,0.56598
4999.30784,0.56675
4997.37909,0.56679
4995.45035,0.56619
4993.52160,0.56546
4991.59286,0.56528
4989.66411,0.56534
4987.73536,0.56507
4985.80662,0.56470
4983.87787,0.56441
4981.94913,0.56446
4980.02038,0.56485
4978.09164,0.56471
4976.16289,0.56365
4974.23415,0.56278
4972.30540,0.56251
4970.37666,0.56211
4968.44791,0.56163
4966.51917,0.56131
4964.59042,0.56061
4962.66168,0.55934
4960.73293,0.55789
4958.80418,0.55654
4956.87544,0.55499
4954.94669,0.55310
4953.01795,0.55149
4951.08920,0.55052
4949.16046,0.54977
4947.23171,0.54881
4945.30297,0.54759
4943.37422,0.54617
4941.44548,0.54462
4939.51673,0.54311
4937.58799,0.54155
4935.65924,0.53979
4933.73050,0.53810
4931.80175,0.53651
4929.87301,0.53489
4927.94426,0.53322
4926.01551,0.53108
4924.08677,0.52847
4922.15802,0.52608
4920.22928,0.52439
4918.30053,0.52304
4916.37179,0.52106
4914.44304,0.51840
4912.51430,0.51594
4910.58555,0.51404
4908.65681,0.51223
4906.72806,0.51016
4904.79932,0.50800
4902.87057,0.50572
4900.94183,0.50326
4899.01308,0.50113
4897.08434,0.49934
4895.15559,0.49722
4893.22684,0.49476
4891.29810,0.49246
4889.36935,0.49041
4887.44061,0.48839
4885.51186,0.48618
4883.58312,0.48403
4881.65437,0.48215
4879.72563,0.48029
4877.79688,0.47877
4875.86814,0.47761
4873.93939,0.47616
4872.01065,0.47450
4870.08190,0.47307
4868.15316,0.47180
4866.22441,0.47054
4864.29566,0.46917
4862.36692,0.46775
4860.43817,0.46639
4858.50943,0.46473
4856.58068,0.46279
4854.65194,0.46155
4852.72319,0.46103
4850.79445,0.45998
4848.86570,0.45834
4846.93696,0.45672
4845.00821,0.45496
4843.07947,0.45325
4841.15072,0.45219
4839.22198,0.45154
4837.29323,0.45079
4835.36449,0.44992
4833.43574,0.44891
4831.50699,0.44755
4829.57825,0.44594
4827.64950,0.44460
4825.72076,0.44389
4823.79201,0.44342
4821.86327,0.44268
4819.93452,0.44171
4818.00578,0.44086
4816.07703,0.44032
4814.14829,0.43974
4812.21954,0.43892
4810.29080,0.43809
4808.36205,0.43754
4806.43331,0.43728
4804.50456,0.43679
4802.57582,0.43593
4800.64707,0.43506
4798.71832,0.43455
4796.78958,0.43450
4794.86083,0.43454
4792.93209,0.43432
4791.00334,0.43375
4789.07460,0.43321
4787.14585,0.43299
4785.21711,0.43253
4783.28836,0.43197
4781.35962,0.43182
4779.43087,0.43179
4777.50213,0.43171
4775.57338,0.43171
4773.64464,0.43200
4771.71589,0.43276
4769.78714,0.43359
4767.85840,0.43401
4765.92965,0.43398
4764.00091,0.43386
4762.07216,0.43400
4760.14342,0.43416
4758.21467,0.43399
4756.28593,0.43389
4754.35718,0.43439
4752.42844,0.43535
4750.49969,0.43626
4748.57095,0.43691
4746.64220,0.43719
4744.71346,0.43744
4742.78471,0.43819
4740.85597,0.43915
4738.92722,0.44000
4736.99847,0.44110
4735.06973,0.44224
4733.14098,0.44280
4731.21224,0.44300
4729.28349,0.44367
4727.35475,0.44471
4725.42600,0.44523
4723.49726,0.44538
4721.56851,0.44591
4719.63977,0.44665
4717.71102,0.44714
4715.78228,0.44760
4713.85353,0.44850
4711.92479,0.44959
4709.99604,0.45058
4708.06729,0.45144
4706.13855,0.45178
4704.20980,0.45180
4702.28106,0.45246
4700.35231,0.45369
4698.42357,0.45480
4696.49482,0.45585
4694.56608,0.45696
4692.63733,0.45767
4690.70859,0.45806
4688.77984,0.45863
4686.85110,0.45946
4684.92235,0.46027
4682.99361,0.46074
4681.06486,0.46125
4679.13612,0.46248
4677.20737,0.46405
4675.27862,0.46524
4673.34988,0.46620
4671.42113,0.46700
4669.49239,0.46743
4667.56364,0.46775
4665.63490,0.46833
4663.70615,0.46921
4661.77741,0.47043
4659.84866,0.47190
4657.91992,0.47309
4655.99117,0.47375
4654.06243,0.47421
4652.13368,0.47495
4650.20494,0.47611
4648.27619,0.47730
4646.34745,0.47799
4644.41870,0.47822
4642.48995,0.47845
4640.56121,0.47904
4638.63246,0.48011
4636.70372,0.48136
4634.77497,0.48213
4632.84623,0.48223
4630.91748,0.48237
4628.98874,0.48313
4627.05999,0.48422
4625.13125,0.48505
4623.20250,0.48555
4621.27376,0.48616
4619.34501,0.48702
4617.41627,0.48777
4615.48752,0.48837
4613.55877,0.48922
4611.63003,0.49012
4609.70128,0.49053
4607.77254,0.49065
4605.84379,0.49107
4603.91505,0.49190
4601.98630,0.49282
4600.05756,0.49371
4598.12881,0.49452
4596.20007,0.49492
4594.27132,0.49529
4592.34258,0.49616
4590.41383,0.49699
4588.48509,0.49746
4586.55634,0.49808
4584.62760,0.49913
4582.69885,0.50025
4580.77010,0.50099
4578.84136,0.50141
4576.91261,0.50162
4574.98387,0.50178
4573.05512,0.50226
4571.12638,0.50295
4569.19763,0.50340
4567.26889,0.50366
4565.34014,0.50390
4563.41140,0.50400
4561.48265,0.50421
4559.55391,0.50482
4557.62516,0.50569
4555.69642,0.50656
4553.76767,0.50724
4551.83893,0.50778
4549.91018,0.50828
4547.98143,0.50856
4546.05269,0.50877
4544.12394,0.50936
4542.19520,0.51018
4540.26645,0.51083
4538.33771,0.51137
4536.40896,0.51167
4534.48022,0.51165
4532.55147,0.51164
4530.62273,0.51199
4528.69398,0.51293
4526.76524,0.51403
4524.83649,0.51446
4522.90775,0.51430
4520.97900,0.51427
4519.05025,0.51450
4517.12151,0.51481
4515.19276,0.51532
4513.26402,0.51600
4511.33527,0.51662
4509.40653,0.51709
4507.47778,0.51720
4505.54904,0.51702
4503.62029,0.51699
4501.69155,0.51735
4499.76280,0.51787
4497.83406,0.51812
4495.90531,0.51774
4493.97657,0.51714
4492.04782,0.51707
4490.11908,0.51737
4488.19033,0.51743
4486.26158,0.51731
4484.33284,0.51708
4482.40409,0.51664
4480.47535,0.51605
4478.54660,0.51532
4476.61786,0.51444
4474.68911,0.51357
4472.76037,0.51276
4470.83162,0.51183
4468.90288,0.51077
4466.97413,0.50980
4465.04539,0.50896
4463.11664,0.50805
4461.18790,0.50678
4459.25915,0.50508
4457.33041,0.50314
4455.40166,0.50105
4453.47291,0.49909
4451.54417,0.49740
4449.61542,0.49548
4447.68668,0.49304
4445.75793,0.49049
4443.82919,0.48808
4441.90044,0.48549
4439.97170,0.48269
4438.04295,0.48000
4436.11421,0.47746
4434.18546,0.47494
4432.25672,0.47236
4430.32797,0.46960
4428.39923,0.46684
4426.47048,0.46441
4424.54173,0.46235
4422.61299,0.46031
4420.68424,0.45803
4418.75550,0.45596
4416.82675,0.45448
4414.89801,0.45326
4412.96926,0.45199
4411.04052,0.45058
4409.11177,0.44912
4407.18303,0.44800
4405.25428,0.44735
4403.32554,0.44697
4401.39679,0.44659
4399.46805,0.44601
4397.53930,0.44529
4395.61056,0.44446
4393.68181,0.44370
4391.75306,0.44320
4389.82432,0.44281
4387.89557,0.44243
4385.96683,0.44212
4384.03808,0.44198
4382.10934,0.44220
4380.18059,0.44275
4378.25185,0.44332
4376.32310,0.44369
4374.39436,0.44398
4372.46561,0.44429
4370.53687,0.44447
4368.60812,0.44448
4366.67938,0.44446
4364.75063,0.44461
4362.82189,0.44482
4360.89314,0.44460
4358.96439,0.44387
4357.03565,0.44314
4355.10690,0.44272
4353.17816,0.44223
4351.24941,0.44150
4349.32067,0.44090
4347.39192,0.44024
4345.46318,0.43925
4343.53443,0.43836
4341.60569,0.43782
4339.67694,0.43722
4337.74820,0.43635
4335.81945,0.43532
4333.89071,0.43400
4331.96196,0.43247
4330.03321,0.43106
4328.10447,0.42964
4326.17572,0.42791
4324.24698,0.42601
4322.31823,0.42445
4320.38949,0.42351
4318.46074,0.42303
4316.53200,0.42284
4314.60325,0.42266
4312.67451,0.42200
4310.74576,0.42091
4308.81702,0.41996
4306.88827,0.41942
4304.95953,0.41909
4303.03078,0.41858
4301.10204,0.41764
4299.17329,0.41649
4297.24454,0.41551
4295.31580,0.41485
4293.38705,0.41458
4291.45831,0.41453
4289.52956,0.41426
4287.60082,0.41388
4285.67207,0.41390
4283.74333,0.41391
4281.81458,0.41324
4279.88584,0.41236
4277.95709,0.41195
4276.02835,0.41199
4274.09960,0.41219
4272.17086,0.41230
4270.24211,0.41222
4268.31336,0.41192
4266.38462,0.41142
4264.45587,0.41080
4262.52713,0.41016
4260.59838,0.40967
4258.66964,0.40932
4256.74089,0.40889
4254.81215,0.40843
4252.88340,0.40820
4250.95466,0.40823
4249.02591,0.40828
4247.09717,0.40810
4245.16842,0.40782
4243.23968,0.40782
4241.31093,0.40810
4239.38219,0.40834
4237.45344,0.40862
4235.52469,0.40918
4233.59595,0.40979
4231.66720,0.41049
4229.73846,0.41133
4227.80971,0.41195
4225.88097,0.41239
4223.95222,0.41287
4222.02348,0.41305
4220.09473,0.41279
4218.16599,0.41271
4216.23724,0.41319
4214.30850,0.41348
4212.37975,0.41318
4210.45101,0.41315
4208.52226,0.41377
4206.59352,0.41441
4204.66477,0.41446
4202.73602,0.41411
4200.80728,0.41390
4198.87853,0.41407
4196.94979,0.41438
4195.02104,0.41464
4193.09230,0.41501
4191.16355,0.41551
4189.23481,0.41572
4187.30606,0.41542
4185.37732,0.41512
4183.44857,0.41544
4181.51983,0.41583
4179.59108,0.41568
4177.66234,0.41526
4175.73359,0.41492
4173.80484,0.41481
4171.87610,0.41479
4169.94735,0.41458
4168.01861,0.41415
4166.08986,0.41360
4164.16112,0.41299
4162.23237,0.41223
4160.30363,0.41130
4158.37488,0.41035
4156.44614,0.40921
4154.51739,0.40781
4152.58865,0.40656
4150.65990,0.40551
4148.73116,0.40438
4146.80241,0.40326
4144.87367,0.40218
4142.94492,0.40090
4141.01617,0.39934
4139.08743,0.39798
4137.15868,0.39707
4135.22994,0.39599
4133.30119,0.39454
4131.37245,0.39322
4129.44370,0.39192
4127.51496,0.39027
4125.58621,0.38846
4123.65747,0.38683
4121.72872,0.38546
4119.79998,0.38409
4117.87123,0.38247
4115.94249,0.38076
4114.01374,0.37915
4112.08500,0.37748
4110.15625,0.37594
4108.22750,0.37470
4106.29876,0.37306
4104.37001,0.37056
4102.44127,0.36802
4100.51252,0.36610
4098.58378,0.36450
4096.65503,0.36268
4094.72629,0.36060
4092.79754,0.35856
4090.86880,0.35661
4088.94005,0.35452
4087.01131,0.35217
4085.08256,0.34978
4083.15382,0.34775
4081.22507,0.34600
4079.29632,0.34422
4077.36758,0.34248
4075.43883,0.34073
4073.51009,0.33868
4071.58134,0.33649
4069.65260,0.33457
4067.72385,0.33295
4065.79511,0.33119
4063.86636,0.32911
4061.93762,0.32701
4060.00887,0.32504
4058.08013,0.32334
4056.15138,0.32207
4054.22264,0.32081
4052.29389,0.31921
4050.36515,0.31745
4048.43640,0.31578
4046.50765,0.31422
4044.57891,0.31267
4042.65016,0.31119
4040.72142,0.30988
4038.79267,0.30864
4036.86393,0.30735
4034.93518,0.30614
4033.00644,0.30498
4031.07769,0.30363
4029.14895,0.30234
4027.22020,0.30146
4025.29146,0.30081
4023.36271,0.30000
4021.43397,0.29889
4019.50522,0.29780
4017.57648,0.29712
4015.64773,0.29667
4013.71898,0.29621
4011.79024,0.29581
4009.86149,0.29547
4007.93275,0.29514
4006.00400,0.29504
4004.07526,0.29514
4002.14651,0.29519
4000.21777,0.29518
3998.28902,0.29543
3996.36028,0.29590
3994.43153,0.29615
3992.50279,0.29624
3990.57404,0.29645
3988.64530,0.29665
3986.71655,0.29685
3984.78780,0.29728
3982.85906,0.29799
3980.93031,0.29862
3979.00157,0.29894
3977.07282,0.29920
3975.14408,0.29938
3973.21533,0.29926
3971.28659,0.29916
3969.35784,0.29940
3967.42910,0.29979
3965.50035,0.30005
3963.57161,0.30037
3961.64286,0.30092
3959.71412,0.30159
3957.78537,0.30214
3955.85663,0.30240
3953.92788,0.30261
3951.99913,0.30309
3950.07039,0.30379
3948.14164,0.30450
3946.21290,0.30503
3944.28415,0.30554
3942.35541,0.30635
3940.42666,0.30728
3938.49792,0.30809
3936.56917,0.30892
3934.64043,0.30995
3932.71168,0.31114
3930.78294,0.31227
3928.85419,0.31326
3926.92545,0.31430
3924.99670,0.31533
3923.06795,0.31619
3921.13921,0.31725
3919.21046,0.31855
3917.28172,0.31951
3915.35297,0.32014
3913.42423,0.32090
3911.49548,0.32202
3909.56674,0.32348
3907.63799,0.32489
3905.70925,0.32602
3903.78050,0.32709
3901.85176,0.32837
3899.92301,0.32977
3897.99427,0.33092
3896.06552,0.33171
3894.13678,0.33256
3892.20803,0.33365
3890.27928,0.33449
3888.35054,0.33508
3886.42179,0.33614
3884.49305,0.33780
3882.56430,0.33933
3880.63556,0.34034
3878.70681,0.34090
3876.77807,0.34150
3874.84932,0.34245
3872.92058,0.34347
3870.99183,0.34453
3869.06309,0.34587
3867.13434,0.34718
3865.20560,0.34829
3863.27685,0.34915
3861.34811,0.34996
3859.41936,0.35106
3857.49061,0.35239
3855.56187,0.35411
3853.63312,0.35616
3851.70438,0.35701
3849.77563,0.35711
3847.84689,0.35758
3845.91814,0.35811
3843.98940,0.35850
3842.06065,0.35927
3840.13191,0.36055
3838.20316,0.36175
3836.27442,0.36213
3834.34567,0.36182
3832.41693,0.36147
3830.48818,0.36137
3828.55943,0.36136
3826.63069,0.36133
3824.70194,0.36145
3822.77320,0.36183
3820.84445,0.36223
3818.91571,0.36246
3816.98696,0.36264
3815.05822,0.36253
3813.12947,0.36195
3811.20073,0.36132
3809.27198,0.36103
3807.34324,0.36102
3805.41449,0.36096
3803.48575,0.36076
3801.55700,0.36022
3799.62826,0.35940
3797.69951,0.35892
3795.77076,0.35871
3793.84202,0.35846
3791.91327,0.35814
3789.98453,0.35770
3788.05578,0.35713
3786.12704,0.35646
3784.19829,0.35599
3782.26955,0.35600
3780.34080,0.35616
3778.41206,0.35589
3776.48331,0.35516
3774.55457,0.35431
3772.62582,0.35358
3770.69708,0.35304
3768.76833,0.35237
3766.83959,0.35152
3764.91084,0.35079
3762.98209,0.35027
3761.05335,0.34973
3759.12460,0.34892
3757.19586,0.34824
3755.26711,0.34808
3753.33837,0.34791
3751.40962,0.34717
3749.48088,0.34587
3747.55213,0.34451
3745.62339,0.34280
3743.69464,0.34060
3741.76590,0.33898
3739.83715,0.33808
3737.90841,0.33736
3735.97966,0.33630
3734.05091,0.33458
3732.12217,0.33248
3730.19342,0.33045
3728.26468,0.32851
3726.33593,0.32630
3724.40719,0.32394
3722.47844,0.32183
3720.54970,0.31985
3718.62095,0.31771
3716.69221,0.31537
3714.76346,0.31285
3712.83472,0.31006
3710.90597,0.30679
3708.97723,0.30309
3707.04848,0.29961
3705.11974,0.29682
3703.19099,0.29422
3701.26224,0.29084
3699.33350,0.28694
3697.40475,0.28318
3695.47601,0.27930
3693.54726,0.27519
3691.61852,0.27082
3689.68977,0.26563
3687.76103,0.25995
3685.83228,0.25504
3683.90354,0.25052
3681.97479,0.24574
3680.04605,0.24083
3678.11730,0.23551
3676.18856,0.22875
3674.25981,0.22140
3672.33107,0.21551
3670.40232,0.20929
3668.47357,0.20167
3666.54483,0.19454
3664.61608,0.18810
3662.68734,0.18192
3660.75859,0.17610
3658.82985,0.17046
3656.90110,0.16435
3654.97236,0.15824
3653.04361,0.15333
3651.11487,0.14862
3649.18612,0.14261
3647.25738,0.13631
3645.32863,0.13106
3643.39989,0.12648
3641.47114,0.12200
3639.54239,0.11758
3637.61365,0.11331
3635.68490,0.10914
3633.75616,0.10514
3631.82741,0.10157
3629.89867,0.09774
3627.96992,0.09335
3626.04118,0.08984
3624.11243,0.08712
3622.18369,0.08454
3620.25494,0.08188
3618.32620,0.07910
3616.39745,0.07632
3614.46871,0.07329
3612.53996,0.07041
3610.61122,0.06840
3608.68247,0.06678
3606.75372,0.06468
3604.82498,0.06229
3602.89623,0.06037
3600.96749,0.05888
3599.03874,0.05723
3597.11000,0.05523
3595.18125,0.05326
3593.25251,0.05157
3591.32376,0.05017
3589.39502,0.04895
3587.46627,0.04739
3585.53753,0.04547
3583.60878,0.04400
3581.68004,0.04315
3579.75129,0.04236
3577.82254,0.04148
3575.89380,0.04071
3573.96505,0.04002
3572.03631,0.03925
3570.10756,0.03842
3568.17882,0.03752
3566.25007,0.03649
3564.32133,0.03551
3562.39258,0.03462
3560.46384,0.03387
3558.53509,0.03331
3556.60635,0.03285
3554.67760,0.03241
3552.74886,0.03190
3550.82011,0.03136
3548.89137,0.03101
3546.96262,0.03072
3545.03387,0.03015
3543.10513,0.02952
3541.17638,0.02913
3539.24764,0.02875
3537.31889,0.02823
3535.39015,0.02780
3533.46140,0.02748
3531.53266,0.02722
3529.60391,0.02709
3527.67517,0.02704
3525.74642,0.02706
3523.81768,0.02691
3521.88893,0.02641
3519.96019,0.02607
3518.03144,0.02617
3516.10270,0.02633
3514.17395,0.02610
3512.24520,0.02539
3510.31646,0.02467
3508.38771,0.02429
3506.45897,0.02434
3504.53022,0.02469
3502.60148,0.02520
3500.67273,0.02548
3498.74399,0.02524
3496.81524,0.02501
3494.88650,0.02519
3492.95775,0.02533
3491.02901,0.02521
3489.10026,0.02517
3487.17152,0.02508
3485.24277,0.02473
3483.31402,0.02450
3481.38528,0.02473
3479.45653,0.02509
3477.52779,0.02518
3475.59904,0.02525
3473.67030,0.02536
3471.74155,0.02520
3469.81281,0.02500
3467.88406,0.02505
3465.95532,0.02513
3464.02657,0.02510
3462.09783,0.02506
3460.16908,0.02495
3458.24034,0.02479
3456.31159,0.02475
3454.38285,0.02496
3452.45410,0.02535
3450.52535,0.02570
3448.59661,0.02591
3446.66786,0.02599
3444.73912,0.02604
3442.81037,0.02620
3440.88163,0.02635
3438.95288,0.02635
3437.02414,0.02633
3435.09539,0.02639
3433.16665,0.02652
3431.23790,0.02674
3429.30916,0.02704
3427.38041,0.02715
3425.45167,0.02692
3423.52292,0.02669
3421.59418,0.02677
3419.66543,0.02694
3417.73668,0.02692
3415.80794,0.02680
3413.87919,0.02678
3411.95045,0.02682
3410.02170,0.02692
3408.09296,0.02710
3406.16421,0.02723
3404.23547,0.02736
3402.30672,0.02759
3400.37798,0.02773
3398.44923,0.02773
3396.52049,0.02760
3394.59174,0.02738
3392.66300,0.02734
3390.73425,0.02755
3388.80550,0.02775
3386.87676,0.02777
3384.94801,0.02768
3383.01927,0.02771
3381.09052,0.02777
3379.16178,0.02760
3377.23303,0.02736
3375.30429,0.02751
3373.37554,0.02796
3371.44680,0.02820
3369.51805,0.02815
3367.58931,0.02800
3365.66056,0.02772
3363.73182,0.02730
3361.80307,0.02700
3359.87433,0.02704
3357.94558,0.02727
3356.01683,0.02739
3354.08809,0.02750
3352.15934,0.02768
3350.23060,0.02781
3348.30185,0.02791
3346.37311,0.02796
3344.44436,0.02798
3342.51562,0.02822
3340.58687,0.02849
3338.65813,0.02841
3336.72938,0.02828
3334.80064,0.02829
3332.87189,0.02811
3330.94315,0.02784
3329.01440,0.02785
3327.08566,0.02800
3325.15691,0.02827
3323.22816,0.02882
3321.29942,0.02922
3319.37067,0.02905
3317.44193,0.02869
3315.51318,0.02855
3313.58444,0.02845
3311.65569,0.02835
3309.72695,0.02849
3307.79820,0.02870
3305.86946,0.02877
3303.94071,0.02884
3302.01197,0.02897
3300.08322,0.02894
3298.15448,0.02871
3296.22573,0.02856
3294.29698,0.02880
3292.36824,0.02935
3290.43949,0.02964
3288.51075,0.02927
3286.58200,0.02886
3284.65326,0.02911
3282.72451,0.02959
3280.79577,0.02966
3278.86702,0.02928
3276.93828,0.02877
3275.00953,0.02877
3273.08079,0.02942
3271.15204,0.03005
3269.22330,0.03027
3267.29455,0.03023
3265.36581,0.03004
3263.43706,0.02993
3261.50831,0.03006
3259.57957,0.03017
3257.65082,0.02993
3255.72208,0.02969
3253.79333,0.03002
3251.86459,0.03068
3249.93584,0.03097
3248.00710,0.03082
3246.07835,0.03060
3244.14961,0.03051
3242.22086,0.03052
3240.29212,0.03068
3238.36337,0.03093
3236.43463,0.03098
3234.50588,0.03086
3232.57713,0.03068
3230.64839,0.03048
3228.71964,0.03050
3226.79090,0.03079
3224.86215,0.03112
3222.93341,0.03138
3221.00466,0.03158
3219.07592,0.03172
3217.14717,0.03192
3215.21843,0.03214
3213.28968,0.03232
3211.36094,0.03246
3209.43219,0.03252
3207.50345,0.03255
3205.57470,0.03251
3203.64596,0.03254
3201.71721,0.03278
3199.78846,0.03289
3197.85972,0.03285
3195.93097,0.03316
3194.00223,0.03386
3192.07348,0.03439
3190.14474,0.03438
3188.21599,0.03407
3186.28725,0.03377
3184.35850,0.03365
3182.42976,0.03383
3180.50101,0.03417
3178.57227,0.03452
3176.64352,0.03485
3174.71478,0.03486
3172.78603,0.03484
3170.85729,0.03538
3168.92854,0.03614
3166.99979,0.03646
3165.07105,0.03647
3163.14230,0.03654
3161.21356,0.03666
3159.28481,0.03684
3157.35607,0.03710
3155.42732,0.03723
3153.49858,0.03732
3151.56983,0.03769
3149.64109,0.03833
3147.71234,0.03893
3145.78360,0.03937
3143.85485,0.03983
3141.92611,0.04039
3139.99736,0.04065
3138.06861,0.04057
3136.13987,0.04082
3134.21112,0.04149
3132.28238,0.04203
3130.35363,0.04219
3128.42489,0.04223
3126.49614,0.04258
3124.56740,0.04325
3122.63865,0.04396
3120.70991,0.04449
3118.78116,0.04499
3116.85242,0.04579
3114.92367,0.04660
3112.99493,0.04697
3111.06618,0.04724
3109.13744,0.04767
3107.20869,0.04818
3105.27994,0.04887
3103.35120,0.04967
3101.42245,0.05033
3099.49371,0.05088
3097.56496,0.05144
3095.63622,0.05203
3093.70747,0.05267
3091.77873,0.05332
3089.84998,0.05381
3087.92124,0.05414
3085.99249,0.05468
3084.06375,0.05572
3082.13500,0.05698
3080.20626,0.05798
3078.27751,0.05876
3076.34877,0.05945
3074.42002,0.06010
3072.49127,0.06084
3070.56253,0.06154
3068.63378,0.06208
3066.70504,0.06261
3064.77629,0.06338
3062.84755,0.06450
3060.91880,0.06571
3058.99006,0.06669
3057.06131,0.06748
3055.13257,0.06825
3053.20382,0.06903
3051.27508,0.06983
3049.34633,0.07070
3047.41759,0.07149
3045.48884,0.07218
3043.56009,0.07302
3041.63135,0.07408
3039.70260,0.07512
3037.77386,0.07599
3035.84511,0.07666
3033.91637,0.07734
3031.98762,0.07815
3030.05888,0.07888
3028.13013,0.07958
3026.20139,0.08042
3024.27264,0.08127
3022.34390,0.08200
3020.41515,0.08260
3018.48641,0.08299
3016.55766,0.08331
3014.62892,0.08376
3012.70017,0.08415
3010.77142,0.08433
3008.84268,0.08457
3006.91393,0.08490
3004.98519,0.08506
3003.05644,0.08506
3001.12770,0.08490
2999.19895,0.08441
2997.27021,0.08370
2995.34146,0.08307
2993.41272,0.08251
2991.48397,0.08165
2989.55523,0.08023
2987.62648,0.07828
2985.69774,0.07611
2983.76899,0.07414
2981.84025,0.07281
2979.91150,0.07207
2977.98275,0.07130
2976.05401,0.06994
2974.12526,0.06814
2972.19652,0.06618
2970.26777,0.06426
2968.33903,0.06273
2966.41028,0.06157
2964.48154,0.06040
2962.55279,0.05891
2960.62405,0.05702
2958.69530,0.05521
2956.76656,0.05391
2954.83781,0.05287
2952.90907,0.05188
2950.98032,0.05113
2949.05157,0.05043
2947.12283,0.04948
2945.19408,0.04846
2943.26534,0.04760
2941.33659,0.04678
2939.40785,0.04598
2937.47910,0.04525
2935.55036,0.04442
2933.62161,0.04353
2931.69287,0.04285
2929.76412,0.04227
2927.83538,0.04164
2925.90663,0.04126
2923.97789,0.04119
2922.04914,0.04103
2920.12040,0.04065
2918.19165,0.04037
2916.26290,0.04041
2914.33416,0.04064
2912.40541,0.04075
2910.47667,0.04057
2908.54792,0.04031
2906.61918,0.04024
2904.69043,0.04023
2902.76169,0.04019
2900.83294,0.04025
2898.90420,0.04024
2896.97545,0.04012
2895.04671,0.04010
2893.11796,0.04022
2891.18922,0.04046
2889.26047,0.04080
2887.33172,0.04111
2885.40298,0.04154
2883.47423,0.04225
2881.54549,0.04294
2879.61674,0.04338
2877.68800,0.04374
2875.75925,0.04420
2873.83051,0.04498
2871.90176,0.04605
2869.97302,0.04712
2868.04427,0.04812
2866.11553,0.04912
2864.18678,0.05007
2862.25804,0.05115
2860.32929,0.05246
2858.40055,0.05369
2856.47180,0.05469
2854.54305,0.05564
2852.61431,0.05652
2850.68556,0.05739
2848.75682,0.05875
2846.82807,0.06092
2844.89933,0.06345
2842.97058,0.06574
2841.04184,0.06755
2839.11309,0.06908
2837.18435,0.07064
2835.25560,0.07214
2833.32686,0.07337
2831.39811,0.07455
2829.46937,0.07580
2827.54062,0.07694
2825.61188,0.07803
2823.68313,0.07922
2821.75438,0.08039
2819.82564,0.08136
2817.89689,0.08233
2815.96815,0.08348
2814.03940,0.08465
2812.11066,0.08565
2810.18191,0.08663
2808.25317,0.08775
2806.32442,0.08894
2804.39568,0.09017
2802.46693,0.09144
2800.53819,0.09256
2798.60944,0.09348
2796.68070,0.09429
2794.75195,0.09501
2792.82320,0.09577
2790.89446,0.09678
2788.96571,0.09784
2787.03697,0.09868
2785.10822,0.09940
2783.17948,0.10023
2781.25073,0.10119
2779.32199,0.10220
2777.39324,0.10315
2775.46450,0.10405
2773.53575,0.10478
2771.60701,0.10537
2769.67826,0.10606
2767.74952,0.10698
2765.82077,0.10798
2763.89203,0.10870
2761.96328,0.10907
2760.03453,0.10946
2758.10579,0.11013
2756.17704,0.11076
2754.24830,0.11110
2752.31955,0.11132
2750.39081,0.11155
2748.46206,0.11174
2746.53332,0.11186
2744.60457,0.11204
2742.67583,0.11244
2740.74708,0.11291
2738.81834,0.11320
2736.88959,0.11339
2734.96085,0.11372
2733.03210,0.11424
2731.10336,0.11481
2729.17461,0.11537
2727.24586,0.11577
2725.31712,0.11599
2723.38837,0.11639
2721.45963,0.11705
2719.53088,0.11770
2717.60214,0.11834
2715.67339,0.11901
2713.74465,0.11967
2711.81590,0.12040
2709.88716,0.12125
2707.95841,0.12211
2706.02967,0.12287
2704.10092,0.12345
2702.17218,0.12405
2700.24343,0.12488
2698.31468,0.12582
2696.38594,0.12671
2694.45719,0.12757
2692.52845,0.12832
2690.59970,0.12897
2688.67096,0.12983
2686.74221,0.13097
2684.81347,0.13212
2682.88472,0.13318
2680.95598,0.13420
2679.02723,0.13514
2677.09849,0.13594
2675.16974,0.13670
2673.24100,0.13749
2671.31225,0.13842
2669.38351,0.13948
2667.45476,0.14038
2665.52601,0.14114
2663.59727,0.14206
2661.66852,0.14318
2659.73978,0.14431
2657.81103,0.14534
2655.88229,0.14634
2653.95354,0.14734
2652.02480,0.14831
2650.09605,0.14926
2648.16731,0.15014
2646.23856,0.15102
2644.30982,0.15205
2642.38107,0.15310
2640.45233,0.15400
2638.52358,0.15488
2636.59484,0.15597
2634.66609,0.15715
2632.73734,0.15814
2630.80860,0.15888
2628.87985,0.15960
2626.95111,0.16042
2625.02236,0.16127
2623.09362,0.16218
2621.16487,0.16318
2619.23613,0.16424
2617.30738,0.16532
2615.37864,0.16635
2613.44989,0.16734
2611.52115,0.16829
2609.59240,0.16907
2607.66366,0.16970
2605.73491,0.17031
2603.80616,0.17097
2601.87742,0.17161
2599.94867,0.17227
2598.01993,0.17298
2596.09118,0.17360
2594.16244,0.17404
2592.23369,0.17468
2590.30495,0.17563
2588.37620,0.17646
2586.44746,0.17697
2584.51871,0.17746
2582.58997,0.17808
2580.66122,0.17863
2578.73248,0.17893
2576.80373,0.17910
2574.87499,0.17947
2572.94624,0.18005
2571.01749,0.18066
2569.08875,0.18120
2567.16000,0.18165
2565.23126,0.18205
2563.30251,0.18239
2561.37377,0.18268
2559.44502,0.18304
2557.51628,0.18342
2555.58753,0.18372
2553.65879,0.18396
2551.73004,0.18409
2549.80130,0.18412
2547.87255,0.18427
2545.94381,0.18458
2544.01506,0.18484
2542.08631,0.18493
2540.15757,0.18502
2538.22882,0.18524
2536.30008,0.18536
2534.37133,0.18537
2532.44259,0.18551
2530.51384,0.18586
2528.58510,0.18630
2526.65635,0.18660
2524.72761,0.18676
2522.79886,0.18705
2520.87012,0.18743
2518.94137,0.18789
2517.01263,0.18851
2515.08388,0.18915
2513.15514,0.18959
2511.22639,0.18997
2509.29764,0.19054
2507.36890,0.19114
2505.44015,0.19166
2503.51141,0.19208
2501.58266,0.19234
2499.65392,0.19261
2497.72517,0.19304
2495.79643,0.19355
2493.86768,0.19423
2491.93894,0.19505
2490.01019,0.19589
2488.08145,0.19680
2486.15270,0.19779
2484.22396,0.19862
2482.29521,0.19916
2480.36647,0.19981
2478.43772,0.20084
2476.50897,0.20185
2474.58023,0.20260
2472.65148,0.20332
2470.72274,0.20409
2468.79399,0.20484
2466.86525,0.20564
2464.93650,0.20656
2463.00776,0.20758
2461.07901,0.20858
2459.15027,0.20950
2457.22152,0.21044
2455.29278,0.21153
2453.36403,0.21272
2451.43529,0.21383
2449.50654,0.21479
2447.57779,0.21583
2445.64905,0.21699
2443.72030,0.21807
2441.79156,0.21907
2439.86281,0.22006
2437.93407,0.22102
2436.00532,0.22209
2434.07658,0.22336
2432.14783,0.22455
2430.21909,0.22551
2428.29034,0.22641
2426.36160,0.22741
2424.43285,0.22847
2422.50411,0.22961
2420.57536,0.23077
2418.64662,0.23178
2416.71787,0.23263
2414.78912,0.23356
2412.86038,0.23456
2410.93163,0.23531
2409.00289,0.23581
2407.07414,0.23647
2405.14540,0.23741
2403.21665,0.23838
2401.28791,0.23911
2399.35916,0.23965
2397.43042,0.24015
2395.50167,0.24067
2393.57293,0.24112
2391.64418,0.24153
2389.71544,0.24200
2387.78669,0.24256
2385.85795,0.24319
2383.92920,0.24382
2382.00045,0.24444
2380.07171,0.24512
2378.14296,0.24584
2376.21422,0.24643
2374.28547,0.24692
2372.35673,0.24751
2370.42798,0.24809
2368.49924,0.24864
2366.57049,0.24933
2364.64175,0.24993
2362.71300,0.25023
2360.78426,0.25051
2358.85551,0.25105
2356.92677,0.25180
2354.99802,0.25252
2353.06927,0.25300
2351.14053,0.25337
2349.21178,0.25392
2347.28304,0.25473
2345.35429,0.25575
2343.42555,0.25682
2341.49680,0.25778
2339.56806,0.25857
2337.63931,0.25916
2335.71057,0.25952
2333.78182,0.25959
2331.85308,0.25956
2329.92433,0.25974
2327.99559,0.26012
2326.06684,0.26048
2324.13810,0.26071
2322.20935,0.26078
2320.28060,0.26085
2318.35186,0.26108
2316.42311,0.26144
2314.49437,0.26179
2312.56562,0.26194
2310.63688,0.26206
2308.70813,0.26238
2306.77939,0.26270
2304.85064,0.26277
2302.92190,0.26271
2300.99315,0.26262
2299.06441,0.26248
2297.13566,0.26227
2295.20692,0.26200
2293.27817,0.26163
2291.34943,0.26120
2289.42068,0.26084
2287.49193,0.26047
2285.56319,0.26000
2283.63444,0.25954
2281.70570,0.25903
2279.77695,0.25826
2277.84821,0.25739
2275.91946,0.25663
2273.99072,0.25592
2272.06197,0.25515
2270.13323,0.25429
2268.20448,0.25339
2266.27574,0.25250
2264.34699,0.25162
2262.41825,0.25081
2260.48950,0.25008
2258.56075,0.24938
2256.63201,0.24864
2254.70326,0.24778
2252.77452,0.24693
2250.84577,0.24614
2248.91703,0.24521
2246.98828,0.24426
2245.05954,0.24361
2243.13079,0.24317
2241.20205,0.24262
2239.27330,0.24201
2237.34456,0.24146
2235.41581,0.24090
2233.48707,0.24038
2231.55832,0.24003
2229.62958,0.23978
2227.70083,0.23944
2225.77208,0.23894
2223.84334,0.23836
2221.91459,0.23778
2219.98585,0.23727
2218.05710,0.23677
2216.12836,0.23616
2214.19961,0.23552
2212.27087,0.23499
2210.34212,0.23457
2208.41338,0.23417
2206.48463,0.23379
2204.55589,0.23346
2202.62714,0.23306
2200.69840,0.23263
2198.76965,0.23222
2196.84090,0.23178
2194.91216,0.23139
2192.98341,0.23097
2191.05467,0.23023
2189.12592,0.22913
2187.19718,0.22808
2185.26843,0.22727
2183.33969,0.22653
2181.41094,0.22562
2179.48220,0.22459
2177.55345,0.22369
2175.62471,0.22291
2173.69596,0.22213
2171.76722,0.22130
2169.83847,0.22040
2167.90973,0.21941
2165.98098,0.21845
2164.05223,0.21763
2162.12349,0.21696
2160.19474,0.21637
2158.26600,0.21584
2156.33725,0.21531
2154.40851,0.21477
2152.47976,0.21430
2150.55102,0.21403
2148.62227,0.21391
2146.69353,0.21375
2144.76478,0.21352
2142.83604,0.21325
2140.90729,0.21297
2138.97855,0.21277
2137.04980,0.21270
2135.12106,0.21261
2133.19231,0.21238
2131.26356,0.21208
2129.33482,0.21193
2127.40607,0.21211
2125.47733,0.21251
2123.54858,0.21295
2121.61984,0.21343
2119.69109,0.21400
2117.76235,0.21457
2115.83360,0.21518
2113.90486,0.21601
2111.97611,0.21701
2110.04737,0.21807
2108.11862,0.21909
2106.18988,0.21997
2104.26113,0.22073
2102.33238,0.22137
2100.40364,0.22200
2098.47489,0.22273
2096.54615,0.22355
2094.61740,0.22448
2092.68866,0.22543
2090.75991,0.22621
2088.83117,0.22688
2086.90242,0.22741
2084.97368,0.22783
2083.04493,0.22829
2081.11619,0.22862
2079.18744,0.22871
2077.25870,0.22873
2075.32995,0.22883
2073.40121,0.22897
2071.47246,0.22899
2069.54371,0.22894
2067.61497,0.22900
2065.68622,0.22909
2063.75748,0.22899
2061.82873,0.22871
2059.89999,0.22842
2057.97124,0.22825
2056.04250,0.22834
2054.11375,0.22856
2052.18501,0.22870
2050.25626,0.22878
2048.32752,0.22891
2046.39877,0.22908
2044.47003,0.22922
2042.54128,0.22937
2040.61254,0.22967
2038.68379,0.23026
2036.75504,0.23111
2034.82630,0.23209
2032.89755,0.23313
2030.96881,0.23410
2029.04006,0.23502
2027.11132,0.23619
2025.18257,0.23766
2023.25383,0.23912
2021.32508,0.24056
2019.39634,0.24207
2017.46759,0.24352
2015.53885,0.24488
2013.61010,0.24620
2011.68136,0.24747
2009.75261,0.24871
2007.82386,0.24981
2005.89512,0.25076
2003.96637,0.25170
2002.03763,0.25253
2000.10888,0.25322
1998.18014,0.25383
1996.25139,0.25431
1994.32265,0.25460
1992.39390,0.25471
1990.46516,0.25476
1988.53641,0.25505
1986.60767,0.25556
1984.67892,0.25616
1982.75018,0.25693
1980.82143,0.25792
1978.89269,0.25899
1976.96394,0.25994
1975.03519,0.26084
1973.10645,0.26193
1971.17770,0.26328
1969.24896,0.26468
1967.32021,0.26599
1965.39147,0.26723
1963.46272,0.26840
1961.53398,0.26955
1959.60523,0.27074
1957.67649,0.27198
1955.74774,0.27331
1953.81900,0.27476
1951.89025,0.27630
1949.96151,0.27781
1948.03276,0.27919
1946.10402,0.28046
1944.17527,0.28167
1942.24652,0.28271
1940.31778,0.28367
1938.38903,0.28483
1936.46029,0.28608
1934.53154,0.28720
1932.60280,0.28821
1930.67405,0.28921
1928.74531,0.29014
1926.81656,0.29094
1924.88782,0.29176
1922.95907,0.29271
1921.03033,0.29369
1919.10158,0.29463
1917.17284,0.29546
1915.24409,0.29615
1913.31534,0.29692
1911.38660,0.29786
1909.45785,0.29878
1907.52911,0.29961
1905.60036,0.30042
1903.67162,0.30117
1901.74287,0.30175
1899.81413,0.30221
1897.88538,0.30265
1895.95664,0.30311
1894.02789,0.30351
1892.09915,0.30389
1890.17040,0.30419
1888.24166,0.30411
1886.31291,0.30373
1884.38417,0.30342
1882.45542,0.30328
1880.52667,0.30321
1878.59793,0.30301
1876.66918,0.30258
1874.74044,0.30210
1872.81169,0.30174
1870.88295,0.30149
1868.95420,0.30112
1867.02546,0.30043
1865.09671,0.29958
1863.16797,0.29880
1861.23922,0.29805
1859.31048,0.29729
1857.38173,0.29652
1855.45299,0.29568
1853.52424,0.29464
1851.59549,0.29344
1849.66675,0.29231
1847.73800,0.29139
1845.80926,0.29043
1843.88051,0.28917
1841.95177,0.28785
1840.02302,0.28676
1838.09428,0.28569
1836.16553,0.28452
1834.23679,0.28337
1832.30804,0.28234
1830.37930,0.28137
1828.45055,0.28028
1826.52181,0.27909
1824.59306,0.27776
1822.66432,0.27638
1820.73557,0.27514
1818.80682,0.27388
1816.87808,0.27250
1814.94933,0.27122
1813.02059,0.27008
1811.09184,0.26874
1809.16310,0.26714
1807.23435,0.26548
1805.30561,0.26381
1803.37686,0.26214
1801.44812,0.26050
1799.51937,0.25889
1797.59063,0.25735
1795.66188,0.25586
1793.73314,0.25425
1791.80439,0.25234
1789.87565,0.25036
1787.94690,0.24870
1786.01815,0.24728
1784.08941,0.24583
1782.16066,0.24419
1780.23192,0.24222
1778.30317,0.24021
1776.37443,0.23866
1774.44568,0.23728
1772.51694,0.23515
1770.58819,0.23215
1768.65945,0.22897
1766.73070,0.22585
1764.80196,0.22305
1762.87321,0.22038
1760.94447,0.21767
1759.01572,0.21539
1757.08697,0.21344
1755.15823,0.21176
1753.22948,0.21052
1751.30074,0.20925
1749.37199,0.20733
1747.44325,0.20499
1745.51450,0.20237
1743.58576,0.19949
1741.65701,0.19636
1739.72827,0.19283
1737.79952,0.18938
1735.87078,0.18581
1733.94203,0.18058
1732.01329,0.17430
1730.08454,0.16839
1728.15580,0.16226
1726.22705,0.15578
1724.29830,0.14879
1722.36956,0.14165
1720.44081,0.13494
1718.51207,0.12738
1716.58332,0.11809
1714.65458,0.10942
1712.72583,0.10228
1710.79709,0.09590
1708.86834,0.09006
1706.93960,0.08451
1705.01085,0.07942
1703.08211,0.07548
1701.15336,0.07196
1699.22462,0.06837
1697.29587,0.06584
1695.36713,0.06386
1693.43838,0.06231
1691.50963,0.06142
1689.58089,0.06072
1687.65214,0.06014
1685.72340,0.05956
1683.79465,0.05885
1681.86591,0.05850
1679.93716,0.05842
1678.00842,0.05826
1676.07967,0.05790
1674.15093,0.05771
1672.22218,0.05795
1670.29344,0.05845
1668.36469,0.05896
1666.43595,0.05946
1664.50720,0.06000
1662.57845,0.06054
1660.64971,0.06117
1658.72096,0.06188
1656.79222,0.06261
1654.86347,0.06340
1652.93473,0.06421
1651.00598,0.06460
1649.07724,0.06489
1647.14849,0.06531
1645.21975,0.06560
1643.29100,0.06594
1641.36226,0.06650
1639.43351,0.06707
1637.50477,0.06755
1635.57602,0.06808
1633.64728,0.06888
1631.71853,0.06988
1629.78978,0.07105
1627.86104,0.07228
1625.93229,0.07348
1624.00355,0.07499
1622.07480,0.07690
1620.14606,0.07878
1618.21731,0.08057
1616.28857,0.08236
1614.35982,0.08387
1612.43108,0.08531
1610.50233,0.08689
1608.57359,0.08865
1606.64484,0.09064
1604.71610,0.09267
1602.78735,0.09449
1600.85861,0.09598
1598.92986,0.09726
1597.00111,0.09851
1595.07237,0.09988
1593.14362,0.10138
1591.21488,0.10281
1589.28613,0.10402
1587.35739,0.10519
1585.42864,0.10657
1583.49990,0.10808
1581.57115,0.10951
1579.64241,0.11081
1577.71366,0.11214
1575.78492,0.11351
1573.85617,0.11459
1571.92743,0.11556
1569.99868,0.11657
1568.06993,0.11732
1566.14119,0.11785
1564.21244,0.11838
1562.28370,0.11900
1560.35495,0.11980
1558.42621,0.12037
1556.49746,0.12002
1554.56872,0.11943
1552.63997,0.11906
1550.71123,0.11884
1548.78248,0.11829
1546.85374,0.11736
1544.92499,0.11648
1542.99625,0.11566
1541.06750,0.11433
1539.13876,0.11214
1537.21001,0.11023
1535.28126,0.10866
1533.35252,0.10640
1531.42377,0.10346
1529.49503,0.10048
1527.56628,0.09733
1525.63754,0.09410
1523.70879,0.09103
1521.78005,0.08747
1519.85130,0.08370
1517.92256,0.08060
1515.99381,0.07788
1514.06507,0.07556
1512.13632,0.07374
1510.20758,0.07232
1508.27883,0.07108
1506.35008,0.06951
1504.42134,0.06828
1502.49259,0.06792
1500.56385,0.06800
1498.63510,0.06799
1496.70636,0.06749
1494.77761,0.06675
1492.84887,0.06611
1490.92012,0.06537
1488.99138,0.06413
1487.06263,0.06228
1485.13389,0.06021
1483.20514,0.05806
1481.27640,0.05576
1479.34765,0.05344
1477.41891,0.05110
1475.49016,0.04878
1473.56141,0.04670
1471.63267,0.04467
1469.70392,0.04282
1467.77518,0.04148
1465.84643,0.04045
1463.91769,0.03953
1461.98894,0.03901
1460.06020,0.03881
1458.13145,0.03831
1456.20271,0.03723
1454.27396,0.03634
1452.34522,0.03583
1450.41647,0.03541
1448.48773,0.03491
1446.55898,0.03442
1444.63024,0.03404
1442.70149,0.03376
1440.77274,0.03363
1438.84400,0.03367
1436.91525,0.03357
1434.98651,0.03330
1433.05776,0.03298
1431.12902,0.03252
1429.20027,0.03196
1427.27153,0.03159
1425.34278,0.03149
1423.41404,0.03157
1421.48529,0.03173
1419.55655,0.03175
1417.62780,0.03147
1415.69906,0.03132
1413.77031,0.03146
1411.84156,0.03164
1409.91282,0.03177
1407.98407,0.03194
1406.05533,0.03214
1404.12658,0.03221
1402.19784,0.03221
1400.26909,0.03225
1398.34035,0.03226
1396.41160,0.03209
1394.48286,0.03167
1392.55411,0.03119
1390.62537,0.03084
1388.69662,0.03048
1386.76788,0.02993
1384.83913,0.02936
1382.91039,0.02883
1380.98164,0.02819
1379.05289,0.02764
1377.12415,0.02751
1375.19540,0.02766
1373.26666,0.02774
1371.33791,0.02783
1369.40917,0.02809
1367.48042,0.02843
1365.55168,0.02872
1363.62293,0.02896
1361.69419,0.02937
1359.76544,0.03004
1357.83670,0.03067
1355.90795,0.03105
1353.97921,0.03123
1352.05046,0.03132
1350.12172,0.03137
1348.19297,0.03148
1346.26422,0.03164
1344.33548,0.03164
1342.40673,0.03142
1340.47799,0.03115
1338.54924,0.03102
1336.62050,0.03090
1334.69175,0.03071
1332.76301,0.03069
1330.83426,0.03098
1328.90552,0.03132
1326.97677,0.03148
1325.04803,0.03156
1323.11928,0.03164
1321.19054,0.03155
1319.26179,0.03116
1317.33304,0.03082
1315.40430,0.03085
1313.47555,0.03117
1311.54681,0.03156
1309.61806,0.03191
1307.68932,0.03228
1305.76057,0.03288
1303.83183,0.03361
1301.90308,0.03425
1299.97434,0.03482
1298.04559,0.03538
1296.11685,0.03586
1294.18810,0.03634
1292.25936,0.03678
1290.33061,0.03694
1288.40187,0.03668
1286.47312,0.03624
1284.54437,0.03585
1282.61563,0.03525
1280.68688,0.03444
1278.75814,0.03394
1276.82939,0.03396
1274.90065,0.03413
1272.97190,0.03415
1271.04316,0.03398
1269.11441,0.03375
1267.18567,0.03358
1265.25692,0.03354
1263.32818,0.03364
1261.39943,0.03383
1259.47069,0.03399
1257.54194,0.03419
1255.61320,0.03458
1253.68445,0.03512
1251.75570,0.03552
1249.82696,0.03557
1247.89821,0.03537
1245.96947,0.03507
1244.04072,0.03476
1242.11198,0.03452
1240.18323,0.03433
1238.25449,0.03403
1236.32574,0.03372
1234.39700,0.03351
1232.46825,0.03332
1230.53951,0.03317
1228.61076,0.03316
1226.68202,0.03343
1224.75327,0.03389
1222.82452,0.03431
1220.89578,0.03463
1218.96703,0.03488
1217.03829,0.03486
1215.10954,0.03445
1213.18080,0.03362
1211.25205,0.03240
1209.32331,0.03091
1207.39456,0.02947
1205.46582,0.02842
1203.53707,0.02783
1201.60833,0.02742
1199.67958,0.02706
1197.75084,0.02690
1195.82209,0.02704
1193.89335,0.02737
1191.96460,0.02755
1190.03585,0.02739
1188.10711,0.02699
1186.17836,0.02632
1184.24962,0.02529
1182.32087,0.02400
1180.39213,0.02277
1178.46338,0.02187
1176.53464,0.02121
1174.60589,0.02071
1172.67715,0.02058
1170.74840,0.02089
1168.81966,0.02152
1166.89091,0.02265
1164.96217,0.02410
1163.03342,0.02527
1161.10467,0.02594
1159.17593,0.02628
1157.24718,0.02631
1155.31844,0.02607
1153.38969,0.02558
1151.46095,0.02496
1149.53220,0.02435
1147.60346,0.02369
1145.67471,0.02288
1143.74597,0.02197
1141.81722,0.02124
1139.88848,0.02100
1137.95973,0.02109
1136.03099,0.02119
1134.10224,0.02111
1132.17350,0.02090
1130.24475,0.02074
1128.31600,0.02090
1126.38726,0.02138
1124.45851,0.02198
1122.52977,0.02287
1120.60102,0.02407
1118.67228,0.02519
1116.74353,0.02623
1114.81479,0.02728
1112.88604,0.02804
1110.95730,0.02824
1109.02855,0.02796
1107.09981,0.02753
1105.17106,0.02730
1103.24232,0.02742
1101.31357,0.02768
1099.38483,0.02783
1097.45608,0.02797
1095.52733,0.02830
1093.59859,0.02878
1091.66984,0.02935
1089.74110,0.02998
1087.81235,0.03093
1085.88361,0.03264
1083.95486,0.03471
1082.02612,0.03639
1080.09737,0.03758
1078.16863,0.03855
1076.23988,0.03942
1074.31114,0.04032
1072.38239,0.04142
1070.45365,0.04265
1068.52490,0.04359
1066.59615,0.04389
1064.66741,0.04388
1062.73866,0.04404
1060.80992,0.04414
1058.88117,0.04382
1056.95243,0.04327
1055.02368,0.04282
1053.09494,0.04252
1051.16619,0.04233
1049.23745,0.04222
1047.30870,0.04210
1045.37996,0.04186
1043.45121,0.04163
1041.52247,0.04161
1039.59372,0.04184
1037.66498,0.04209
1035.73623,0.04212
1033.80748,0.04227
1031.87874,0.04283
1029.94999,0.04354
1028.02125,0.04420
1026.09250,0.04493
1024.16376,0.04573
1022.23501,0.04656
1020.30627,0.04724
1018.37752,0.04753
1016.44878,0.04754
1014.52003,0.04751
1012.59129,0.04733
1010.66254,0.04686
1008.73380,0.04619
1006.80505,0.04552
1004.87631,0.04505
1002.94756,0.04514
1001.01881,0.04583
999.09007,0.04676
997.16132,0.04757
995.23258,0.04828
993.30383,0.04896
991.37509,0.04961
989.44634,0.05041
987.51760,0.05165
985.58885,0.05342
983.66011,0.05574
981.73136,0.05841
979.80262,0.06064
977.87387,0.06201
975.94513,0.06278
974.01638,0.06332
972.08763,0.06372
970.15889,0.06377
968.23014,0.06368
966.30140,0.06421
964.37265,0.06566
962.44391,0.06777
960.51516,0.07031
958.58642,0.07322
956.65767,0.07650
954.72893,0.08003
952.80018,0.08327
950.87144,0.08570
948.94269,0.08771
947.01395,0.08974
945.08520,0.09138
943.15646,0.09225
941.22771,0.09246
939.29896,0.09217
937.37022,0.09171
935.44147,0.09143
933.51273,0.09125
931.58398,0.09089
929.65524,0.09037
927.72649,0.08993
925.79775,0.08971
923.86900,0.08949
921.94026,0.08905
920.01151,0.08834
918.08277,0.08701
916.15402,0.08466
914.22528,0.08151
912.29653,0.07802
910.36779,0.07427
908.43904,0.07029
906.51029,0.06626
904.58155,0.06262
902.65280,0.05974
900.72406,0.05743
898.79531,0.05562
896.86657,0.05493
894.93782,0.05604
893.00908,0.05877
891.08033,0.06252
889.15159,0.06722
887.22284,0.07260
885.29410,0.07756
883.36535,0.08164
881.43661,0.08535
879.50786,0.08890
877.57911,0.09217
875.65037,0.09502
873.72162,0.09695
871.79288,0.09794
869.86413,0.09857
867.93539,0.09903
866.00664,0.09913
864.07790,0.09896
862.14915,0.09868
860.22041,0.09801
858.29166,0.09703
856.36292,0.09641
854.43417,0.09599
852.50543,0.09507
850.57668,0.09367
848.64794,0.09229
846.71919,0.09080
844.79044,0.08908
842.86170,0.08758
840.93295,0.08642
839.00421,0.08515
837.07546,0.08351
835.14672,0.08193
833.21797,0.08096
831.28923,0.08010
829.36048,0.07872
827.43174,0.07704
825.50299,0.07550
823.57425,0.07440
821.64550,0.07371
819.71676,0.07296
817.78801,0.07200
815.85926,0.07093
813.93052,0.06986
812.00177,0.06910
810.07303,0.06871
808.14428,0.06837
806.21554,0.06783
804.28679,0.06711
802.35805,0.06658
800.42930,0.06632
798.50056,0.06584
796.57181,0.06508
794.64307,0.06445
792.71432,0.06386
790.78558,0.06313
788.85683,0.06239
786.92809,0.06183
784.99934,0.06145
783.07059,0.06094
781.14185,0.06024
779.21310,0.05948
777.28436,0.05874
775.35561,0.05826
773.42687,0.05797
771.49812,0.05758
769.56938,0.05686
767.64063,0.05581
765.71189,0.05499
763.78314,0.05464
761.85440,0.05437
759.92565,0.05387
757.99691,0.05318
756.06816,0.05249
754.13942,0.05179
752.21067,0.05101
750.28192,0.05019
748.35318,0.04956
746.42443,0.04930
744.49569,0.04908
742.56694,0.04869
740.63820,0.04827
738.70945,0.04773
736.78071,0.04706
734.85196,0.04648
732.92322,0.04583
730.99447,0.04494
729.06573,0.04429
727.13698,0.04390
725.20824,0.04322
723.27949,0.04246
721.35074,0.04226
719.42200,0.04266
717.49325,0.04302
715.56451,0.04281
713.63576,0.04214
711.70702,0.04142
709.77827,0.04105
707.84953,0.04099
705.92078,0.04068
703.99204,0.04022
702.06329,0.04019
700.13455,0.04018
698.20580,0.03962
696.27706,0.03904
694.34831,0.03891
692.41957,0.03887
690.49082,0.03856
688.56207,0.03783
686.63333,0.03692
684.70458,0.03615
682.77584,0.03533
680.84709,0.03450
678.91835,0.03388
676.98960,0.03350
675.06086,0.03352
673.13211,0.03371
671.20337,0.03392
669.27462,0.03425
667.34588,0.03461
665.41713,0.03498
663.48839,0.03517
661.55964,0.03506
659.63090,0.03519
657.70215,0.03577
655.77340,0.03615
653.84466,0.03574
651.91591,0.03477
649.98717,0.03409
648.05842,0.03388
646.12968,0.03398
644.20093,0.03453
642.27219,0.03486
640.34344,0.03422
638.41470,0.03323
636.48595,0.03290
634.55721,0.03315
632.62846,0.03324
630.69972,0.03317
628.77097,0.03338
626.84222,0.03369
624.91348,0.03360
622.98473,0.03298
621.05599,0.03270
619.12724,0.03331
617.19850,0.03387
615.26975,0.03372
613.34101,0.03325
611.41226,0.03272
609.48352,0.03219
607.55477,0.03232
605.62603,0.03357
603.69728,0.03521
601.76854,0.03596
599.83979,0.03507
