7497.03301,0.82118
7495.10426,0.81995
7493.17552,0.82065
7491.24677,0.82555
7489.31803,0.82946
7487.38928,0.82639
7485.46054,0.82039
7483.53179,0.81657
7481.60305,0.81494
7479.67430,0.81383
7477.74556,0.81222
7475.81681,0.81113
7473.88807,0.81341
7471.95932,0.81962
7470.03057,0.82536
7468.10183,0.82567
7466.17308,0.81996
7464.24434,0.81360
7462.31559,0.81199
7460.38685,0.81075
7458.45810,0.80492
7456.52936,0.80236
7454.60061,0.80777
7452.67187,0.81144
7450.74312,0.80898
7448.81438,0.80707
7446.88563,0.80723
7444.95689,0.80499
7443.02814,0.80005
7441.09940,0.79685
7439.17065,0.79673
7437.24190,0.79838
7435.31316,0.80368
7433.38441,0.81142
7431.45567,0.81550
7429.52692,0.81483
7427.59818,0.81489
7425.66943,0.81732
7423.74069,0.81574
7421.81194,0.81095
7419.88320,0.81048
7417.95445,0.80990
7416.02571,0.80244
7414.09696,0.79382
7412.16822,0.79149
7410.23947,0.79439
7408.31073,0.79689
7406.38198,0.79631
7404.45323,0.79310
7402.52449,0.78965
7400.59574,0.78889
7398.66700,0.78969
7396.73825,0.79051
7394.80951,0.79195
7392.88076,0.79110
7390.95202,0.78644
7389.02327,0.78270
7387.09453,0.78465
7385.16578,0.79178
7383.23704,0.79647
7381.30829,0.79315
7379.37955,0.78657
7377.45080,0.78329
7375.52205,0.78479
7373.59331,0.78682
7371.66456,0.78467
7369.73582,0.78049
7367.80707,0.77813
7365.87833,0.77693
7363.94958,0.77575
7362.02084,0.77617
7360.09209,0.77809
7358.16335,0.77945
7356.23460,0.78131
7354.30586,0.78495
7352.37711,0.78878
7350.44837,0.79297
7348.51962,0.79485
7346.59088,0.78884
7344.66213,0.78157
7342.73338,0.78015
7340.80464,0.77845
7338.87589,0.77649
7336.94715,0.77773
7335.01840,0.77613
7333.08966,0.77226
7331.16091,0.77115
7329.23217,0.77033
7327.30342,0.76903
7325.37468,0.76856
7323.44593,0.76788
7321.51719,0.76867
7319.58844,0.77005
7317.65970,0.76920
7315.73095,0.77108
7313.80221,0.77771
7311.87346,0.77921
7309.94471,0.77164
7308.01597,0.76488
7306.08722,0.76522
7304.15848,0.76980
7302.22973,0.77458
7300.30099,0.77592
7298.37224,0.77371
7296.44350,0.77281
7294.51475,0.77424
7292.58601,0.77432
7290.65726,0.77130
7288.72852,0.76661
7286.79977,0.76326
7284.87103,0.76272
7282.94228,0.76331
7281.01353,0.76342
7279.08479,0.76260
7277.15604,0.76064
7275.22730,0.75820
7273.29855,0.75590
7271.36981,0.75503
7269.44106,0.75801
7267.51232,0.76237
7265.58357,0.76297
7263.65483,0.76221
7261.72608,0.76555
7259.79734,0.77251
7257.86859,0.77711
7255.93985,0.77330
7254.01110,0.76625
7252.08236,0.76668
7250.15361,0.77017
7248.22486,0.76835
7246.29612,0.76427
7244.36737,0.76088
7242.43863,0.75930
7240.50988,0.76255
7238.58114,0.76772
7236.65239,0.77044
7234.72365,0.77056
7232.79490,0.76818
7230.86616,0.76503
7228.93741,0.76271
7227.00867,0.76125
7225.07992,0.76157
7223.15118,0.76256
7221.22243,0.76496
7219.29369,0.76837
7217.36494,0.76690
7215.43619,0.76207
7213.50745,0.75979
7211.57870,0.75964
7209.64996,0.75935
7207.72121,0.75897
7205.79247,0.75854
7203.86372,0.75602
7201.93498,0.75070
7200.00623,0.74726
7198.07749,0.74938
7196.14874,0.75220
7194.22000,0.75074
7192.29125,0.74909
7190.36251,0.75102
7188.43376,0.75448
7186.50501,0.75669
7184.57627,0.75556
7182.64752,0.75126
7180.71878,0.74863
7178.79003,0.74992
7176.86129,0.75070
7174.93254,0.74865
7173.00380,0.74623
7171.07505,0.74513
7169.14631,0.74343
7167.21756,0.73858
7165.28882,0.73165
7163.36007,0.72816
7161.43133,0.73220
7159.50258,0.73930
7157.57384,0.74344
7155.64509,0.74450
7153.71634,0.74335
7151.78760,0.73998
7149.85885,0.73515
7147.93011,0.73205
7146.00136,0.73346
7144.07262,0.73623
7142.14387,0.73550
7140.21513,0.73160
7138.28638,0.72771
7136.35764,0.72699
7134.42889,0.72946
7132.50015,0.73022
7130.57140,0.72803
7128.64266,0.72684
7126.71391,0.72631
7124.78516,0.72340
7122.85642,0.71982
7120.92767,0.71863
7118.99893,0.71765
7117.07018,0.71358
7115.14144,0.70842
7113.21269,0.70613
7111.28395,0.70759
7109.35520,0.71007
7107.42646,0.71051
7105.49771,0.70815
7103.56897,0.70349
7101.64022,0.69872
7099.71148,0.69544
7097.78273,0.69236
7095.85399,0.69069
7093.92524,0.69128
7091.99649,0.68912
7090.06775,0.68308
7088.13900,0.67752
7086.21026,0.67417
7084.28151,0.67208
7082.35277,0.67183
7080.42402,0.67408
7078.49528,0.67491
7076.56653,0.67200
7074.63779,0.66985
7072.70904,0.67082
7070.78030,0.67159
7068.85155,0.66980
7066.92281,0.66603
7064.99406,0.66142
7063.06532,0.65807
7061.13657,0.65830
7059.20782,0.66079
7057.27908,0.66054
7055.35033,0.65636
7053.42159,0.65342
7051.49284,0.65395
7049.56410,0.65369
7047.63535,0.65088
7045.70661,0.64903
7043.77786,0.64883
7041.84912,0.64647
7039.92037,0.64092
7037.99163,0.63495
7036.06288,0.63189
7034.13414,0.63261
7032.20539,0.63316
7030.27664,0.63088
7028.34790,0.62924
7026.41915,0.62878
7024.49041,0.62488
7022.56166,0.61879
7020.63292,0.61649
7018.70417,0.61737
7016.77543,0.61587
7014.84668,0.61056
7012.91794,0.60551
7010.98919,0.60593
7009.06045,0.61224
7007.13170,0.61702
7005.20296,0.61512
7003.27421,0.61037
7001.34547,0.60722
6999.41672,0.60506
6997.48797,0.60183
6995.55923,0.59843
6993.63048,0.59691
6991.70174,0.59772
6989.77299,0.59869
6987.84425,0.59762
6985.91550,0.59672
6983.98676,0.59797
6982.05801,0.59822
6980.12927,0.59556
6978.20052,0.59270
6976.27178,0.59003
6974.34303,0.58719
6972.41429,0.58689
6970.48554,0.58837
6968.55680,0.58846
6966.62805,0.58678
6964.69930,0.58509
6962.77056,0.58440
6960.84181,0.58394
6958.91307,0.58406
6956.98432,0.58396
6955.05558,0.58167
6953.12683,0.57888
6951.19809,0.57772
6949.26934,0.57872
6947.34060,0.58045
6945.41185,0.57990
6943.48311,0.57802
6941.55436,0.57841
6939.62562,0.58076
6937.69687,0.58231
6935.76812,0.58270
6933.83938,0.58196
6931.91063,0.57883
6929.98189,0.57499
6928.05314,0.57355
6926.12440,0.57328
6924.19565,0.57255
6922.26691,0.57335
6920.33816,0.57617
6918.40942,0.57785
6916.48067,0.57647
6914.55193,0.57417
6912.62318,0.57294
6910.69444,0.57190
6908.76569,0.57056
6906.83695,0.56951
6904.90820,0.56858
6902.97945,0.56781
6901.05071,0.56816
6899.12196,0.56929
6897.19322,0.56925
6895.26447,0.56719
6893.33573,0.56492
6891.40698,0.56530
6889.47824,0.56718
6887.54949,0.56736
6885.62075,0.56700
6883.69200,0.56691
6881.76326,0.56519
6879.83451,0.56316
6877.90577,0.56320
6875.97702,0.56390
6874.04828,0.56217
6872.11953,0.55891
6870.19078,0.55942
6868.26204,0.56379
6866.33329,0.56604
6864.40455,0.56531
6862.47580,0.56503
6860.54706,0.56419
6858.61831,0.56043
6856.68957,0.55724
6854.76082,0.55873
6852.83208,0.56175
6850.90333,0.56228
6848.97459,0.56104
6847.04584,0.55899
6845.11710,0.55715
6843.18835,0.55744
6841.25960,0.55897
6839.33086,0.55929
6837.40211,0.55838
6835.47337,0.55763
6833.54462,0.55776
6831.61588,0.55771
6829.68713,0.55671
6827.75839,0.55652
6825.82964,0.55692
6823.90090,0.55604
6821.97215,0.55498
6820.04341,0.55477
6818.11466,0.55479
6816.18592,0.55498
6814.25717,0.55546
6812.32843,0.55632
6810.39968,0.55719
6808.47093,0.55665
6806.54219,0.55394
6804.61344,0.55111
6802.68470,0.55081
6800.75595,0.55231
6798.82721,0.55354
6796.89846,0.55450
6794.96972,0.55511
6793.04097,0.55433
6791.11223,0.55289
6789.18348,0.55244
6787.25474,0.55335
6785.32599,0.55525
6783.39725,0.55554
6781.46850,0.55242
6779.53975,0.55004
6777.61101,0.55145
6775.68226,0.55278
6773.75352,0.55133
6771.82477,0.55036
6769.89603,0.55101
6767.96728,0.55069
6766.03854,0.55032
6764.10979,0.55070
6762.18105,0.55051
6760.25230,0.55054
6758.32356,0.55054
6756.39481,0.54970
6754.46607,0.54939
6752.53732,0.55082
6750.60858,0.55297
6748.67983,0.55435
6746.75108,0.55540
6744.82234,0.55590
6742.89359,0.55572
6740.96485,0.55684
6739.03610,0.55940
6737.10736,0.56143
6735.17861,0.56174
6733.24987,0.56046
6731.32112,0.55894
6729.39238,0.55758
6727.46363,0.55594
6725.53489,0.55513
6723.60614,0.55591
6721.67740,0.55691
6719.74865,0.55770
6717.81991,0.55892
6715.89116,0.56013
6713.96241,0.56052
6712.03367,0.56064
6710.10492,0.56187
6708.17618,0.56376
6706.24743,0.56410
6704.31869,0.56249
6702.38994,0.56057
6700.46120,0.56034
6698.53245,0.56313
6696.60371,0.56578
6694.67496,0.56415
6692.74622,0.56006
6690.81747,0.55815
6688.88873,0.55900
6686.95998,0.56040
6685.03123,0.56282
6683.10249,0.56545
6681.17374,0.56482
6679.24500,0.56202
6677.31625,0.56051
6675.38751,0.56144
6673.45876,0.56357
6671.53002,0.56565
6669.60127,0.56821
6667.67253,0.57002
6665.74378,0.56947
6663.81504,0.56923
6661.88629,0.57164
6659.95755,0.57399
6658.02880,0.57414
6656.10006,0.57368
6654.17131,0.57330
6652.24256,0.57262
6650.31382,0.57184
6648.38507,0.57137
6646.45633,0.57129
6644.52758,0.57122
6642.59884,0.57238
6640.67009,0.57535
6638.74135,0.57753
6636.81260,0.57733
6634.88386,0.57704
6632.95511,0.57775
6631.02637,0.57789
6629.09762,0.57825
6627.16888,0.57990
6625.24013,0.58154
6623.31139,0.58232
6621.38264,0.58220
6619.45389,0.58054
6617.52515,0.57774
6615.59640,0.57702
6613.66766,0.57975
6611.73891,0.58277
6609.81017,0.58398
6607.88142,0.58475
6605.95268,0.58681
6604.02393,0.58876
6602.09519,0.58821
6600.16644,0.58581
6598.23770,0.58348
6596.30895,0.58299
6594.38021,0.58487
6592.45146,0.58675
6590.52271,0.58713
6588.59397,0.58738
6586.66522,0.58820
6584.73648,0.58772
6582.80773,0.58570
6580.87899,0.58544
6578.95024,0.58775
6577.02150,0.59014
6575.09275,0.59069
6573.16401,0.58906
6571.23526,0.58734
6569.30652,0.58712
6567.37777,0.58833
6565.44903,0.59045
6563.52028,0.59159
6561.59154,0.59217
6559.66279,0.59377
6557.73404,0.59556
6555.80530,0.59693
6553.87655,0.59670
6551.94781,0.59405
6550.01906,0.59195
6548.09032,0.59280
6546.16157,0.59518
6544.23283,0.59674
6542.30408,0.59698
6540.37534,0.59653
6538.44659,0.59583
6536.51785,0.59557
6534.58910,0.59743
6532.66036,0.60150
6530.73161,0.60391
6528.80287,0.60302
6526.87412,0.60104
6524.94537,0.59933
6523.01663,0.59989
6521.08788,0.60237
6519.15914,0.60359
6517.23039,0.60332
6515.30165,0.60290
6513.37290,0.60305
6511.44416,0.60358
6509.51541,0.60280
6507.58667,0.60016
6505.65792,0.59798
6503.72918,0.59876
6501.80043,0.60074
6499.87169,0.60045
6497.94294,0.59871
6496.01419,0.59769
6494.08545,0.59731
6492.15670,0.59871
6490.22796,0.60305
6488.29921,0.60666
6486.37047,0.60641
6484.44172,0.60510
6482.51298,0.60487
6480.58423,0.60458
6478.65549,0.60470
6476.72674,0.60557
6474.79800,0.60611
6472.86925,0.60759
6470.94051,0.60965
6469.01176,0.60833
6467.08302,0.60413
6465.15427,0.60173
6463.22552,0.60189
6461.29678,0.60217
6459.36803,0.60205
6457.43929,0.60205
6455.51054,0.60249
6453.58180,0.60433
6451.65305,0.60655
6449.72431,0.60691
6447.79556,0.60555
6445.86682,0.60349
6443.93807,0.60187
6442.00933,0.60276
6440.08058,0.60549
6438.15184,0.60667
6436.22309,0.60543
6434.29434,0.60427
6432.36560,0.60550
6430.43685,0.60799
6428.50811,0.60956
6426.57936,0.61012
6424.65062,0.60990
6422.72187,0.60887
6420.79313,0.60784
6418.86438,0.60741
6416.93564,0.60664
6415.00689,0.60505
6413.07815,0.60490
6411.14940,0.60731
6409.22066,0.60864
6407.29191,0.60650
6405.36317,0.60380
6403.43442,0.60264
6401.50567,0.60263
6399.57693,0.60403
6397.64818,0.60483
6395.71944,0.60228
6393.79069,0.59894
6391.86195,0.59824
6389.93320,0.59949
6388.00446,0.60207
6386.07571,0.60560
6384.14697,0.60717
6382.21822,0.60593
6380.28948,0.60374
6378.36073,0.60184
6376.43199,0.60193
6374.50324,0.60456
6372.57450,0.60665
6370.64575,0.60626
6368.71700,0.60571
6366.78826,0.60613
6364.85951,0.60590
6362.93077,0.60418
6361.00202,0.60193
6359.07328,0.60144
6357.14453,0.60407
6355.21579,0.60778
6353.28704,0.60899
6351.35830,0.60678
6349.42955,0.60397
6347.50081,0.60328
6345.57206,0.60416
6343.64332,0.60435
6341.71457,0.60410
6339.78582,0.60614
6337.85708,0.60921
6335.92833,0.60870
6333.99959,0.60562
6332.07084,0.60498
6330.14210,0.60717
6328.21335,0.60829
6326.28461,0.60643
6324.35586,0.60478
6322.42712,0.60639
6320.49837,0.60880
6318.56963,0.60907
6316.64088,0.60851
6314.71214,0.60889
6312.78339,0.60969
6310.85465,0.60984
6308.92590,0.61007
6306.99715,0.61074
6305.06841,0.61073
6303.13966,0.61089
6301.21092,0.61258
6299.28217,0.61422
6297.35343,0.61429
6295.42468,0.61392
6293.49594,0.61500
6291.56719,0.61747
6289.63845,0.61930
6287.70970,0.61940
6285.78096,0.61823
6283.85221,0.61573
6281.92347,0.61308
6279.99472,0.61246
6278.06598,0.61317
6276.13723,0.61376
6274.20848,0.61464
6272.27974,0.61552
6270.35099,0.61559
6268.42225,0.61530
6266.49350,0.61479
6264.56476,0.61411
6262.63601,0.61480
6260.70727,0.61650
6258.77852,0.61769
6256.84978,0.61900
6254.92103,0.61979
6252.99229,0.61870
6251.06354,0.61755
6249.13480,0.61839
6247.20605,0.62058
6245.27730,0.62215
6243.34856,0.62232
6241.41981,0.62141
6239.49107,0.61993
6237.56232,0.61927
6235.63358,0.62030
6233.70483,0.62187
6231.77609,0.62295
6229.84734,0.62420
6227.91860,0.62562
6225.98985,0.62663
6224.06111,0.62804
6222.13236,0.62918
6220.20362,0.62891
6218.27487,0.62936
6216.34613,0.63095
6214.41738,0.63150
6212.48863,0.63147
6210.55989,0.63182
6208.63114,0.63169
6206.70240,0.63160
6204.77365,0.63266
6202.84491,0.63390
6200.91616,0.63428
6198.98742,0.63409
6197.05867,0.63351
6195.12993,0.63337
6193.20118,0.63472
6191.27244,0.63671
6189.34369,0.63765
6187.41495,0.63787
6185.48620,0.63946
6183.55746,0.64174
6181.62871,0.64149
6179.69996,0.63913
6177.77122,0.63779
6175.84247,0.63863
6173.91373,0.64016
6171.98498,0.64055
6170.05624,0.64068
6168.12749,0.64169
6166.19875,0.64202
6164.27000,0.64102
6162.34126,0.64044
6160.41251,0.64042
6158.48377,0.64035
6156.55502,0.64105
6154.62628,0.64246
6152.69753,0.64332
6150.76878,0.64332
6148.84004,0.64370
6146.91129,0.64470
6144.98255,0.64510
6143.05380,0.64577
6141.12506,0.64790
6139.19631,0.64936
6137.26757,0.64893
6135.33882,0.64859
6133.41008,0.64877
6131.48133,0.64890
6129.55259,0.64989
6127.62384,0.65088
6125.69510,0.65052
6123.76635,0.64992
6121.83761,0.64970
6119.90886,0.64987
6117.98011,0.65070
6116.05137,0.65150
6114.12262,0.65190
6112.19388,0.65209
6110.26513,0.65157
6108.33639,0.65091
6106.40764,0.65201
6104.47890,0.65392
6102.55015,0.65411
6100.62141,0.65394
6098.69266,0.65536
6096.76392,0.65716
6094.83517,0.65887
6092.90643,0.66054
6090.97768,0.66058
6089.04893,0.65977
6087.12019,0.66071
6085.19144,0.66271
6083.26270,0.66319
6081.33395,0.66196
6079.40521,0.66056
6077.47646,0.66003
6075.54772,0.66055
6073.61897,0.66167
6071.69023,0.66294
6069.76148,0.66369
6067.83274,0.66377
6065.90399,0.66483
6063.97525,0.66717
6062.04650,0.66816
6060.11776,0.66740
6058.18901,0.66788
6056.26026,0.66989
6054.33152,0.67061
6052.40277,0.66990
6050.47403,0.66959
6048.54528,0.66954
6046.61654,0.66910
6044.68779,0.66883
6042.75905,0.66925
6040.83030,0.66998
6038.90156,0.67042
6036.97281,0.67071
6035.04407,0.67141
6033.11532,0.67217
6031.18658,0.67192
6029.25783,0.67118
6027.32909,0.67167
6025.40034,0.67312
6023.47159,0.67406
6021.54285,0.67450
6019.61410,0.67487
6017.68536,0.67519
6015.75661,0.67570
6013.82787,0.67674
6011.89912,0.67779
6009.97038,0.67780
6008.04163,0.67705
6006.11289,0.67631
6004.18414,0.67545
6002.25540,0.67509
6000.32665,0.67627
5998.39791,0.67814
5996.46916,0.67894
5994.54041,0.67893
5992.61167,0.67898
5990.68292,0.67857
5988.75418,0.67806
5986.82543,0.67890
5984.89669,0.68037
5982.96794,0.68051
5981.03920,0.68006
5979.11045,0.68013
5977.18171,0.67954
5975.25296,0.67844
5973.32422,0.67786
5971.39547,0.67783
5969.46673,0.67901
5967.53798,0.68065
5965.60924,0.68055
5963.68049,0.67936
5961.75174,0.67912
5959.82300,0.67951
5957.89425,0.67966
5955.96551,0.67936
5954.03676,0.67838
5952.10802,0.67732
5950.17927,0.67657
5948.25053,0.67591
5946.32178,0.67571
5944.39304,0.67576
5942.46429,0.67510
5940.53555,0.67408
5938.60680,0.67370
5936.67806,0.67351
5934.74931,0.67242
5932.82057,0.67057
5930.89182,0.66890
5928.96307,0.66808
5927.03433,0.66830
5925.10558,0.66972
5923.17684,0.67155
5921.24809,0.67170
5919.31935,0.66947
5917.39060,0.66668
5915.46186,0.66563
5913.53311,0.66606
5911.60437,0.66610
5909.67562,0.66620
5907.74688,0.66732
5905.81813,0.66739
5903.88939,0.66541
5901.96064,0.66373
5900.03189,0.66363
5898.10315,0.66411
5896.17440,0.66407
5894.24566,0.66335
5892.31691,0.66284
5890.38817,0.66314
5888.45942,0.66387
5886.53068,0.66444
5884.60193,0.66473
5882.67319,0.66475
5880.74444,0.66425
5878.81570,0.66348
5876.88695,0.66269
5874.95821,0.66221
5873.02946,0.66194
5871.10072,0.66106
5869.17197,0.66051
5867.24322,0.66119
5865.31448,0.66182
5863.38573,0.66200
5861.45699,0.66227
5859.52824,0.66216
5857.59950,0.66161
5855.67075,0.66168
5853.74201,0.66202
5851.81326,0.66118
5849.88452,0.65977
5847.95577,0.65915
5846.02703,0.65878
5844.09828,0.65782
5842.16954,0.65691
5840.24079,0.65688
5838.31205,0.65719
5836.38330,0.65680
5834.45455,0.65603
5832.52581,0.65570
5830.59706,0.65532
5828.66832,0.65447
5826.73957,0.65412
5824.81083,0.65482
5822.88208,0.65552
5820.95334,0.65543
5819.02459,0.65452
5817.09585,0.65345
5815.16710,0.65330
5813.23836,0.65325
5811.30961,0.65230
5809.38087,0.65154
5807.45212,0.65129
5805.52337,0.65105
5803.59463,0.65117
5801.66588,0.65195
5799.73714,0.65301
5797.80839,0.65351
5795.87965,0.65302
5793.95090,0.65203
5792.02216,0.65082
5790.09341,0.64936
5788.16467,0.64834
5786.23592,0.64814
5784.30718,0.64824
5782.37843,0.64838
5780.44969,0.64901
5778.52094,0.65003
5776.59220,0.65008
5774.66345,0.64893
5772.73470,0.64783
5770.80596,0.64738
5768.87721,0.64791
5766.94847,0.64897
5765.01972,0.64908
5763.09098,0.64809
5761.16223,0.64745
5759.23349,0.64779
5757.30474,0.64820
5755.37600,0.64751
5753.44725,0.64633
5751.51851,0.64673
5749.58976,0.64793
5747.66102,0.64792
5745.73227,0.64787
5743.80352,0.64848
5741.87478,0.64843
5739.94603,0.64768
5738.01729,0.64753
5736.08854,0.64862
5734.15980,0.64964
5732.23105,0.64954
5730.30231,0.64903
5728.37356,0.64847
5726.44482,0.64799
5724.51607,0.64796
5722.58733,0.64787
5720.65858,0.64698
5718.72984,0.64580
5716.80109,0.64548
5714.87235,0.64583
5712.94360,0.64543
5711.01485,0.64441
5709.08611,0.64419
5707.15736,0.64481
5705.22862,0.64554
5703.29987,0.64585
5701.37113,0.64507
5699.44238,0.64372
5697.51364,0.64306
5695.58489,0.64324
5693.65615,0.64334
5691.72740,0.64280
5689.79866,0.64254
5687.86991,0.64298
5685.94117,0.64337
5684.01242,0.64346
5682.08368,0.64343
5680.15493,0.64362
5678.22618,0.64411
5676.29744,0.64395
5674.36869,0.64243
5672.43995,0.64042
5670.51120,0.63947
5668.58246,0.63963
5666.65371,0.64023
5664.72497,0.64098
5662.79622,0.64168
5660.86748,0.64255
5658.93873,0.64349
5657.00999,0.64401
5655.08124,0.64382
5653.15250,0.64268
5651.22375,0.64121
5649.29500,0.64005
5647.36626,0.63900
5645.43751,0.63866
5643.50877,0.63944
5641.58002,0.64029
5639.65128,0.64036
5637.72253,0.64038
5635.79379,0.64127
5633.86504,0.64196
5631.93630,0.64133
5630.00755,0.64065
5628.07881,0.64084
5626.15006,0.64134
5624.22132,0.64161
5622.29257,0.64123
5620.36383,0.64005
5618.43508,0.63913
5616.50633,0.63957
5614.57759,0.64073
5612.64884,0.64152
5610.72010,0.64149
5608.79135,0.64073
5606.86261,0.64091
5604.93386,0.64259
5603.00512,0.64352
5601.07637,0.64303
5599.14763,0.64273
5597.21888,0.64329
5595.29014,0.64418
5593.36139,0.64448
5591.43265,0.64392
5589.50390,0.64342
5587.57516,0.64324
5585.64641,0.64331
5583.71766,0.64409
5581.78892,0.64487
5579.86017,0.64473
5577.93143,0.64415
5576.00268,0.64370
5574.07394,0.64361
5572.14519,0.64414
5570.21645,0.64496
5568.28770,0.64518
5566.35896,0.64525
5564.43021,0.64609
5562.50147,0.64692
5560.57272,0.64692
5558.64398,0.64617
5556.71523,0.64540
5554.78648,0.64561
5552.85774,0.64653
5550.92899,0.64719
5549.00025,0.64726
5547.07150,0.64707
5545.14276,0.64755
5543.21401,0.64901
5541.28527,0.65032
5539.35652,0.65047
5537.42778,0.65006
5535.49903,0.64982
5533.57029,0.64949
5531.64154,0.64947
5529.71280,0.65037
5527.78405,0.65128
5525.85531,0.65120
5523.92656,0.65087
5521.99781,0.65120
5520.06907,0.65160
5518.14032,0.65159
5516.21158,0.65175
5514.28283,0.65203
5512.35409,0.65178
5510.42534,0.65129
5508.49660,0.65124
5506.56785,0.65177
5504.63911,0.65227
5502.71036,0.65214
5500.78162,0.65175
5498.85287,0.65165
5496.92413,0.65196
5494.99538,0.65274
5493.06664,0.65319
5491.13789,0.65285
5489.20914,0.65248
5487.28040,0.65228
5485.35165,0.65207
5483.42291,0.65194
5481.49416,0.65220
5479.56542,0.65287
5477.63667,0.65344
5475.70793,0.65358
5473.77918,0.65321
5471.85044,0.65275
5469.92169,0.65333
5467.99295,0.65517
5466.06420,0.65671
5464.13546,0.65663
5462.20671,0.65580
5460.27796,0.65578
5458.34922,0.65620
5456.42047,0.65626
5454.49173,0.65664
5452.56298,0.65728
5450.63424,0.65695
5448.70549,0.65603
5446.77675,0.65610
5444.84800,0.65698
5442.91926,0.65748
5440.99051,0.65749
5439.06177,0.65749
5437.13302,0.65802
5435.20428,0.65906
5433.27553,0.66006
5431.34679,0.66117
5429.41804,0.66235
5427.48929,0.66246
5425.56055,0.66136
5423.63180,0.66005
5421.70306,0.65935
5419.77431,0.65969
5417.84557,0.66090
5415.91682,0.66264
5413.98808,0.66422
5412.05933,0.66449
5410.13059,0.66397
5408.20184,0.66409
5406.27310,0.66453
5404.34435,0.66475
5402.41561,0.66518
5400.48686,0.66582
5398.55811,0.66644
5396.62937,0.66739
5394.70062,0.66855
5392.77188,0.66897
5390.84313,0.66884
5388.91439,0.66866
5386.98564,0.66813
5385.05690,0.66765
5383.12815,0.66778
5381.19941,0.66815
5379.27066,0.66860
5377.34192,0.66901
5375.41317,0.66869
5373.48443,0.66800
5371.55568,0.66838
5369.62694,0.66938
5367.69819,0.66930
5365.76944,0.66856
5363.84070,0.66825
5361.91195,0.66781
5359.98321,0.66693
5358.05446,0.66641
5356.12572,0.66655
5354.19697,0.66678
5352.26823,0.66685
5350.33948,0.66705
5348.41074,0.66690
5346.48199,0.66578
5344.55325,0.66418
5342.62450,0.66312
5340.69576,0.66265
5338.76701,0.66230
5336.83827,0.66197
5334.90952,0.66136
5332.98077,0.66036
5331.05203,0.65928
5329.12328,0.65833
5327.19454,0.65689
5325.26579,0.65435
5323.33705,0.65219
5321.40830,0.65157
5319.47956,0.65138
5317.55081,0.65044
5315.62207,0.64852
5313.69332,0.64611
5311.76458,0.64402
5309.83583,0.64270
5307.90709,0.64176
5305.97834,0.64029
5304.04959,0.63790
5302.12085,0.63519
5300.19210,0.63266
5298.26336,0.63022
5296.33461,0.62785
5294.40587,0.62549
5292.47712,0.62292
5290.54838,0.62008
5288.61963,0.61659
5286.69089,0.61265
5284.76214,0.60887
5282.83340,0.60540
5280.90465,0.60192
5278.97591,0.59807
5277.04716,0.59447
5275.11842,0.59159
5273.18967,0.58852
5271.26092,0.58481
5269.33218,0.58078
5267.40343,0.57629
5265.47469,0.57158
5263.54594,0.56750
5261.61720,0.56388
5259.68845,0.55955
5257.75971,0.55446
5255.83096,0.54958
5253.90222,0.54517
5251.97347,0.54123
5250.04473,0.53807
5248.11598,0.53526
5246.18724,0.53199
5244.25849,0.52812
5242.32975,0.52429
5240.40100,0.52092
5238.47225,0.51759
5236.54351,0.51430
5234.61476,0.51164
5232.68602,0.50910
5230.75727,0.50601
5228.82853,0.50323
5226.89978,0.50099
5224.97104,0.49825
5223.04229,0.49532
5221.11355,0.49293
5219.18480,0.49079
5217.25606,0.48872
5215.32731,0.48683
5213.39857,0.48498
5211.46982,0.48328
5209.54107,0.48219
5207.61233,0.48135
5205.68358,0.47948
5203.75484,0.47697
5201.82609,0.47543
5199.89735,0.47497
5197.96860,0.47451
5196.03986,0.47334
5194.11111,0.47212
5192.18237,0.47188
5190.25362,0.47202
5188.32488,0.47160
5186.39613,0.47093
5184.46739,0.47022
5182.53864,0.46943
5180.60990,0.46876
5178.68115,0.46817
5176.75240,0.46780
5174.82366,0.46819
5172.89491,0.46916
5170.96617,0.46980
5169.03742,0.46994
5167.10868,0.47021
5165.17993,0.47081
5163.25119,0.47128
5161.32244,0.47138
5159.39370,0.47143
5157.46495,0.47195
5155.53621,0.47283
5153.60746,0.47310
5151.67872,0.47279
5149.74997,0.47325
5147.82123,0.47484
5145.89248,0.47652
5143.96373,0.47756
5142.03499,0.47830
5140.10624,0.47905
5138.17750,0.47968
5136.24875,0.48052
5134.32001,0.48188
5132.39126,0.48323
5130.46252,0.48411
5128.53377,0.48501
5126.60503,0.48616
5124.67628,0.48706
5122.74754,0.48760
5120.81879,0.48868
5118.89005,0.49077
5116.96130,0.49265
5115.03255,0.49336
5113.10381,0.49367
5111.17506,0.49443
5109.24632,0.49557
5107.31757,0.49661
5105.38883,0.49744
5103.46008,0.49844
5101.53134,0.49971
5099.60259,0.50116
5097.67385,0.50268
5095.74510,0.50386
5093.81636,0.50476
5091.88761,0.50581
5089.95887,0.50687
5088.03012,0.50777
5086.10138,0.50853
5084.17263,0.50936
5082.24388,0.51055
5080.31514,0.51175
5078.38639,0.51272
5076.45765,0.51422
5074.52890,0.51619
5072.60016,0.51765
5070.67141,0.51862
5068.74267,0.51937
5066.81392,0.51960
5064.88518,0.51993
5062.95643,0.52126
5061.02769,0.52294
5059.09894,0.52432
5057.17020,0.52598
5055.24145,0.52778
5053.31270,0.52896
5051.38396,0.52977
5049.45521,0.53035
5047.52647,0.53071
5045.59772,0.53146
5043.66898,0.53270
5041.74023,0.53383
5039.81149,0.53471
5037.88274,0.53569
5035.95400,0.53687
5034.02525,0.53803
5032.09651,0.53908
5030.16776,0.54004
5028.23902,0.54095
5026.31027,0.54173
5024.38153,0.54215
5022.45278,0.54229
5020.52403,0.54311
5018.59529,0.54490
5016.66654,0.54637
5014.73780,0.54693
5012.80905,0.54724
5010.88031,0.54730
5008.95156,0.54726
5007.02282,0.54819
5005.09407,0.54983
5003.16533,0.55036
5001.23658,0.54982
4999.30784,0.54995
4997.37909,0.55078
4995.45035,0.55127
4993.52160,0.55158
4991.59286,0.55189
4989.66411,0.55178
4987.73536,0.55155
4985.80662,0.55161
4983.87787,0.55161
4981.94913,0.55109
4980.02038,0.55027
4978.09164,0.55013
4976.16289,0.55113
4974.23415,0.55213
4972.30540,0.55191
4970.37666,0.55091
4968.44791,0.54991
4966.51917,0.54875
4964.59042,0.54730
4962.66168,0.54621
4960.73293,0.54596
4958.80418,0.54615
4956.87544,0.54608
4954.94669,0.54527
4953.01795,0.54375
4951.08920,0.54238
4949.16046,0.54153
4947.23171,0.54050
4945.30297,0.53909
4943.37422,0.53789
4941.44548,0.53684
4939.51673,0.53525
4937.58799,0.53332
4935.65924,0.53157
4933.73050,0.52979
4931.80175,0.52826
4929.87301,0.52732
4927.94426,0.52632
4926.01551,0.52462
4924.08677,0.52237
4922.15802,0.52002
4920.22928,0.51788
4918.30053,0.51592
4916.37179,0.51391
4914.44304,0.51204
4912.51430,0.51049
4910.58555,0.50898
4908.65681,0.50731
4906.72806,0.50556
4904.79932,0.50344
4902.87057,0.50071
4900.94183,0.49802
4899.01308,0.49594
4897.08434,0.49419
4895.15559,0.49241
4893.22684,0.49055
4891.29810,0.48866
4889.36935,0.48703
4887.44061,0.48551
4885.51186,0.48349
4883.58312,0.48118
4881.65437,0.47934
4879.72563,0.47820
4877.79688,0.47731
4875.86814,0.47602
4873.93939,0.47433
4872.01065,0.47275
4870.08190,0.47111
4868.15316,0.46898
4866.22441,0.46706
4864.29566,0.46621
4862.36692,0.46556
4860.43817,0.46414
4858.50943,0.46278
4856.58068,0.46201
4854.65194,0.46107
4852.72319,0.45995
4850.79445,0.45900
4848.86570,0.45788
4846.93696,0.45675
4845.00821,0.45555
4843.07947,0.45382
4841.15072,0.45219
4839.22198,0.45144
4837.29323,0.45100
4835.36449,0.44963
4833.43574,0.44730
4831.50699,0.44562
4829.57825,0.44535
4827.64950,0.44529
4825.72076,0.44463
4823.79201,0.44366
4821.86327,0.44254
4819.93452,0.44141
4818.00578,0.44062
4816.07703,0.43989
4814.14829,0.43877
4812.21954,0.43777
4810.29080,0.43739
4808.36205,0.43717
4806.43331,0.43680
4804.50456,0.43647
4802.57582,0.43611
4800.64707,0.43572
4798.71832,0.43535
4796.78958,0.43511
4794.86083,0.43505
4792.93209,0.43461
4791.00334,0.43359
4789.07460,0.43268
4787.14585,0.43237
4785.21711,0.43237
4783.28836,0.43238
4781.35962,0.43249
4779.43087,0.43247
4777.50213,0.43199
4775.57338,0.43139
4773.64464,0.43128
4771.71589,0.43144
4769.78714,0.43129
4767.85840,0.43119
4765.92965,0.43181
4764.00091,0.43259
4762.07216,0.43291
4760.14342,0.43320
4758.21467,0.43374
4756.28593,0.43429
4754.35718,0.43485
4752.42844,0.43545
4750.49969,0.43605
4748.57095,0.43646
4746.64220,0.43666
4744.71346,0.43711
4742.78471,0.43798
4740.85597,0.43880
4738.92722,0.43947
4736.99847,0.44026
4735.06973,0.44113
4733.14098,0.44177
4731.21224,0.44216
4729.28349,0.44245
4727.35475,0.44273
4725.42600,0.44309
4723.49726,0.44341
4721.56851,0.44381
4719.63977,0.44457
4717.71102,0.44528
4715.78228,0.44569
4713.85353,0.44615
4711.92479,0.44690
4709.99604,0.44799
4708.06729,0.44907
4706.13855,0.44962
4704.20980,0.44996
4702.28106,0.45074
4700.35231,0.45186
4698.42357,0.45313
4696.49482,0.45460
4694.56608,0.45576
4692.63733,0.45630
4690.70859,0.45667
4688.77984,0.45738
4686.85110,0.45853
4684.92235,0.45977
4682.99361,0.46091
4681.06486,0.46184
4679.13612,0.46226
4677.20737,0.46245
4675.27862,0.46309
4673.34988,0.46413
4671.42113,0.46513
4669.49239,0.46615
4667.56364,0.46727
4665.63490,0.46840
4663.70615,0.46938
4661.77741,0.47021
4659.84866,0.47126
4657.91992,0.47228
4655.99117,0.47261
4654.06243,0.47273
4652.13368,0.47349
4650.20494,0.47462
4648.27619,0.47527
4646.34745,0.47541
4644.41870,0.47595
4642.48995,0.47719
4640.56121,0.47834
4638.63246,0.47919
4636.70372,0.47990
4634.77497,0.48036
4632.84623,0.48066
4630.91748,0.48111
4628.98874,0.48183
4627.05999,0.48270
4625.13125,0.48348
4623.20250,0.48434
4621.27376,0.48538
4619.34501,0.48630
4617.41627,0.48696
4615.48752,0.48762
4613.55877,0.48836
4611.63003,0.48914
4609.70128,0.48997
4607.77254,0.49088
4605.84379,0.49180
4603.91505,0.49242
4601.98630,0.49258
4600.05756,0.49259
4598.12881,0.49277
4596.20007,0.49324
4594.27132,0.49386
4592.34258,0.49429
4590.41383,0.49467
4588.48509,0.49534
4586.55634,0.49617
4584.62760,0.49694
4582.69885,0.49770
4580.77010,0.49867
4578.84136,0.49976
4576.91261,0.50034
4574.98387,0.50033
4573.05512,0.50041
4571.12638,0.50100
4569.19763,0.50174
4567.26889,0.50220
4565.34014,0.50250
4563.41140,0.50289
4561.48265,0.50337
4559.55391,0.50379
4557.62516,0.50419
4555.69642,0.50461
4553.76767,0.50507
4551.83893,0.50579
4549.91018,0.50659
4547.98143,0.50701
4546.05269,0.50720
4544.12394,0.50750
4542.19520,0.50773
4540.26645,0.50768
4538.33771,0.50770
4536.40896,0.50815
4534.48022,0.50904
4532.55147,0.51007
4530.62273,0.51088
4528.69398,0.51157
4526.76524,0.51215
4524.83649,0.51235
4522.90775,0.51226
4520.97900,0.51213
4519.05025,0.51233
4517.12151,0.51284
4515.19276,0.51321
4513.26402,0.51354
4511.33527,0.51411
4509.40653,0.51463
4507.47778,0.51498
4505.54904,0.51540
4503.62029,0.51584
4501.69155,0.51606
4499.76280,0.51612
4497.83406,0.51608
4495.90531,0.51589
4493.97657,0.51554
4492.04782,0.51520
4490.11908,0.51507
4488.19033,0.51490
4486.26158,0.51452
4484.33284,0.51422
4482.40409,0.51400
4480.47535,0.51363
4478.54660,0.51303
4476.61786,0.51240
4474.68911,0.51189
4472.76037,0.51116
4470.83162,0.51010
4468.90288,0.50909
4466.97413,0.50827
4465.04539,0.50735
4463.11664,0.50603
4461.18790,0.50450
4459.25915,0.50311
4457.33041,0.50165
4455.40166,0.49976
4453.47291,0.49755
4451.54417,0.49538
4449.61542,0.49337
4447.68668,0.49139
4445.75793,0.48926
4443.82919,0.48681
4441.90044,0.48415
4439.97170,0.48146
4438.04295,0.47862
4436.11421,0.47558
4434.18546,0.47288
4432.25672,0.47061
4430.32797,0.46814
4428.39923,0.46544
4426.47048,0.46287
4424.54173,0.46061
4422.61299,0.45866
4420.68424,0.45676
4418.75550,0.45497
4416.82675,0.45349
4414.89801,0.45226
4412.96926,0.45113
4411.04052,0.45001
4409.11177,0.44906
4407.18303,0.44830
4405.25428,0.44730
4403.32554,0.44618
4401.39679,0.44544
4399.46805,0.44507
4397.53930,0.44481
4395.61056,0.44438
4393.68181,0.44357
4391.75306,0.44278
4389.82432,0.44249
4387.89557,0.44215
4385.96683,0.44149
4384.03808,0.44120
4382.10934,0.44145
4380.18059,0.44188
4378.25185,0.44255
4376.32310,0.44339
4374.39436,0.44403
4372.46561,0.44446
4370.53687,0.44474
4368.60812,0.44475
4366.67938,0.44460
4364.75063,0.44440
4362.82189,0.44413
4360.89314,0.44388
4358.96439,0.44377
4357.03565,0.44352
4355.10690,0.44306
4353.17816,0.44262
4351.24941,0.44199
4349.32067,0.44122
4347.39192,0.44038
4345.46318,0.43925
4343.53443,0.43810
4341.60569,0.43714
4339.67694,0.43603
4337.74820,0.43485
4335.81945,0.43380
4333.89071,0.43264
4331.96196,0.43126
4330.03321,0.42982
4328.10447,0.42848
4326.17572,0.42728
4324.24698,0.42616
4322.31823,0.42515
4320.38949,0.42441
4318.46074,0.42381
4316.53200,0.42295
4314.60325,0.42172
4312.67451,0.42070
4310.74576,0.42024
4308.81702,0.41971
4306.88827,0.41866
4304.95953,0.41747
4303.03078,0.41656
4301.10204,0.41569
4299.17329,0.41468
4297.24454,0.41409
4295.31580,0.41403
4293.38705,0.41377
4291.45831,0.41330
4289.52956,0.41308
4287.60082,0.41292
4285.67207,0.41238
4283.74333,0.41163
4281.81458,0.41127
4279.88584,0.41134
4277.95709,0.41133
4276.02835,0.41096
4274.09960,0.41043
4272.17086,0.41011
4270.24211,0.41007
4268.31336,0.41020
4266.38462,0.41041
4264.45587,0.41047
4262.52713,0.41010
4260.59838,0.40930
4258.66964,0.40842
4256.74089,0.40773
4254.81215,0.40709
4252.88340,0.40644
4250.95466,0.40590
4249.02591,0.40551
4247.09717,0.40538
4245.16842,0.40549
4243.23968,0.40553
4241.31093,0.40563
4239.38219,0.40615
4237.45344,0.40680
4235.52469,0.40718
4233.59595,0.40782
4231.66720,0.40893
4229.73846,0.40976
4227.80971,0.40998
4225.88097,0.41019
4223.95222,0.41072
4222.02348,0.41095
4220.09473,0.41083
4218.16599,0.41090
4216.23724,0.41121
4214.30850,0.41149
4212.37975,0.41163
4210.45101,0.41148
4208.52226,0.41113
4206.59352,0.41109
4204.66477,0.41147
4202.73602,0.41169
4200.80728,0.41171
4198.87853,0.41205
4196.94979,0.41274
4195.02104,0.41336
4193.09230,0.41367
4191.16355,0.41353
4189.23481,0.41295
4187.30606,0.41245
4185.37732,0.41263
4183.44857,0.41322
4181.51983,0.41340
4179.59108,0.41291
4177.66234,0.41216
4175.73359,0.41150
4173.80484,0.41116
4171.87610,0.41121
4169.94735,0.41151
4168.01861,0.41160
4166.08986,0.41097
4164.16112,0.40996
4162.23237,0.40920
4160.30363,0.40844
4158.37488,0.40750
4156.44614,0.40668
4154.51739,0.40571
4152.58865,0.40420
4150.65990,0.40253
4148.73116,0.40104
4146.80241,0.39969
4144.87367,0.39866
4142.94492,0.39795
4141.01617,0.39706
4139.08743,0.39589
4137.15868,0.39457
4135.22994,0.39318
4133.30119,0.39181
4131.37245,0.39044
4129.44370,0.38900
4127.51496,0.38744
4125.58621,0.38568
4123.65747,0.38393
4121.72872,0.38240
4119.79998,0.38099
4117.87123,0.37949
4115.94249,0.37778
4114.01374,0.37585
4112.08500,0.37385
4110.15625,0.37198
4108.22750,0.37027
4106.29876,0.36877
4104.37001,0.36734
4102.44127,0.36559
4100.51252,0.36352
4098.58378,0.36151
4096.65503,0.35978
4094.72629,0.35802
4092.79754,0.35574
4090.86880,0.35332
4088.94005,0.35125
4087.01131,0.34917
4085.08256,0.34686
4083.15382,0.34475
4081.22507,0.34293
4079.29632,0.34107
4077.36758,0.33909
4075.43883,0.33719
4073.51009,0.33538
4071.58134,0.33353
4069.65260,0.33157
4067.72385,0.32962
4065.79511,0.32789
4063.86636,0.32649
4061.93762,0.32522
4060.00887,0.32369
4058.08013,0.32169
4056.15138,0.31966
4054.22264,0.31809
4052.29389,0.31673
4050.36515,0.31521
4048.43640,0.31342
4046.50765,0.31152
4044.57891,0.30992
4042.65016,0.30867
4040.72142,0.30754
4038.79267,0.30656
4036.86393,0.30554
4034.93518,0.30427
4033.00644,0.30290
4031.07769,0.30154
4029.14895,0.30034
4027.22020,0.29958
4025.29146,0.29907
4023.36271,0.29837
4021.43397,0.29732
4019.50522,0.29618
4017.57648,0.29543
4015.64773,0.29518
4013.71898,0.29485
4011.79024,0.29410
4009.86149,0.29335
4007.93275,0.29296
4006.00400,0.29295
4004.07526,0.29315
4002.14651,0.29319
4000.21777,0.29309
3998.28902,0.29323
3996.36028,0.29347
3994.43153,0.29363
3992.50279,0.29363
3990.57404,0.29347
3988.64530,0.29356
3986.71655,0.29411
3984.78780,0.29478
3982.85906,0.29517
3980.93031,0.29531
3979.00157,0.29556
3977.07282,0.29589
3975.14408,0.29617
3973.21533,0.29643
3971.28659,0.29672
3969.35784,0.29710
3967.42910,0.29738
3965.50035,0.29753
3963.57161,0.29784
3961.64286,0.29810
3959.71412,0.29799
3957.78537,0.29811
3955.85663,0.29886
3953.92788,0.29963
3951.99913,0.30008
3950.07039,0.30056
3948.14164,0.30107
3946.21290,0.30143
3944.28415,0.30205
3942.35541,0.30317
3940.42666,0.30429
3938.49792,0.30512
3936.56917,0.30597
3934.64043,0.30708
3932.71168,0.30822
3930.78294,0.30903
3928.85419,0.30968
3926.92545,0.31056
3924.99670,0.31171
3923.06795,0.31278
3921.13921,0.31368
3919.21046,0.31485
3917.28172,0.31612
3915.35297,0.31695
3913.42423,0.31770
3911.49548,0.31882
3909.56674,0.32020
3907.63799,0.32197
3905.70925,0.32417
3903.78050,0.32590
3901.85176,0.32653
3899.92301,0.32676
3897.99427,0.32712
3896.06552,0.32768
3894.13678,0.32864
3892.20803,0.32994
3890.27928,0.33089
3888.35054,0.33165
3886.42179,0.33285
3884.49305,0.33411
3882.56430,0.33523
3880.63556,0.33630
3878.70681,0.33693
3876.77807,0.33762
3874.84932,0.33883
3872.92058,0.34028
3870.99183,0.34190
3869.06309,0.34326
3867.13434,0.34391
3865.20560,0.34454
3863.27685,0.34534
3861.34811,0.34607
3859.41936,0.34710
3857.49061,0.34853
3855.56187,0.35025
3853.63312,0.35193
3851.70438,0.35231
3849.77563,0.35193
3847.84689,0.35195
3845.91814,0.35258
3843.98940,0.35380
3842.06065,0.35516
3840.13191,0.35615
3838.20316,0.35680
3836.27442,0.35708
3834.34567,0.35709
3832.41693,0.35698
3830.48818,0.35675
3828.55943,0.35686
3826.63069,0.35742
3824.70194,0.35791
3822.77320,0.35809
3820.84445,0.35753
3818.91571,0.35659
3816.98696,0.35609
3815.05822,0.35550
3813.12947,0.35466
3811.20073,0.35428
3809.27198,0.35455
3807.34324,0.35474
3805.41449,0.35439
3803.48575,0.35420
3801.55700,0.35404
3799.62826,0.35313
3797.69951,0.35202
3795.77076,0.35121
3793.84202,0.35061
3791.91327,0.35015
3789.98453,0.34993
3788.05578,0.35001
3786.12704,0.35005
3784.19829,0.34969
3782.26955,0.34912
3780.34080,0.34854
3778.41206,0.34754
3776.48331,0.34621
3774.55457,0.34527
3772.62582,0.34494
3770.69708,0.34474
3768.76833,0.34431
3766.83959,0.34380
3764.91084,0.34310
3762.98209,0.34211
3761.05335,0.34132
3759.12460,0.34074
3757.19586,0.34002
3755.26711,0.33950
3753.33837,0.33945
3751.40962,0.33912
3749.48088,0.33771
3747.55213,0.33627
3745.62339,0.33502
3743.69464,0.33317
3741.76590,0.33124
3739.83715,0.32997
3737.90841,0.32937
3735.97966,0.32868
3734.05091,0.32648
3732.12217,0.32312
3730.19342,0.32028
3728.26468,0.31816
3726.33593,0.31622
3724.40719,0.31409
3722.47844,0.31151
3720.54970,0.30868
3718.62095,0.30592
3716.69221,0.30339
3714.76346,0.30125
3712.83472,0.29909
3710.90597,0.29594
3708.97723,0.29190
3707.04848,0.28815
3705.11974,0.28503
3703.19099,0.28188
3701.26224,0.27802
3699.33350,0.27381
3697.40475,0.26968
3695.47601,0.26559
3693.54726,0.26178
3691.61852,0.25805
3689.68977,0.25323
3687.76103,0.24715
3685.83228,0.24159
3683.90354,0.23679
3681.97479,0.23165
3680.04605,0.22614
3678.11730,0.22098
3676.18856,0.21495
3674.25981,0.20730
3672.33107,0.20047
3670.40232,0.19368
3668.47357,0.18593
3666.54483,0.17912
3664.61608,0.17337
3662.68734,0.16782
3660.75859,0.16214
3658.82985,0.15642
3656.90110,0.15043
3654.97236,0.14455
3653.04361,0.13992
3651.11487,0.13533
3649.18612,0.12912
3647.25738,0.12285
3645.32863,0.11800
3643.39989,0.11381
3641.47114,0.10976
3639.54239,0.10571
3637.61365,0.10162
3635.68490,0.09771
3633.75616,0.09430
3631.82741,0.09158
3629.89867,0.08874
3627.96992,0.08500
3626.04118,0.08162
3624.11243,0.07895
3622.18369,0.07667
3620.25494,0.07435
3618.32620,0.07155
3616.39745,0.06894
3614.46871,0.06664
3612.53996,0.06419
3610.61122,0.06164
3608.68247,0.05920
3606.75372,0.05706
3604.82498,0.05544
3602.89623,0.05411
3600.96749,0.05268
3599.03874,0.05127
3597.11000,0.05004
3595.18125,0.04876
3593.25251,0.04735
3591.32376,0.04599
3589.39502,0.04466
3587.46627,0.04328
3585.53753,0.04210
3583.60878,0.04109
3581.68004,0.04007
3579.75129,0.03916
3577.82254,0.03833
3575.89380,0.03732
3573.96505,0.03619
3572.03631,0.03534
3570.10756,0.03483
3568.17882,0.03437
3566.25007,0.03379
3564.32133,0.03328
3562.39258,0.03286
3560.46384,0.03243
3558.53509,0.03201
3556.60635,0.03155
3554.67760,0.03107
3552.74886,0.03056
3550.82011,0.03009
3548.89137,0.02971
3546.96262,0.02922
3545.03387,0.02843
3543.10513,0.02759
3541.17638,0.02715
3539.24764,0.02713
3537.31889,0.02720
3535.39015,0.02713
3533.46140,0.02697
3531.53266,0.02682
3529.60391,0.02679
3527.67517,0.02666
3525.74642,0.02616
3523.81768,0.02559
3521.88893,0.02529
3519.96019,0.02520
3518.03144,0.02525
3516.10270,0.02527
3514.17395,0.02503
3512.24520,0.02472
3510.31646,0.02462
3508.38771,0.02470
3506.45897,0.02487
3504.53022,0.02501
3502.60148,0.02495
3500.67273,0.02462
3498.74399,0.02430
3496.81524,0.02429
3494.88650,0.02433
3492.95775,0.02417
3491.02901,0.02437
3489.10026,0.02495
3487.17152,0.02512
3485.24277,0.02495
3483.31402,0.02494
3481.38528,0.02496
3479.45653,0.02482
3477.52779,0.02451
3475.59904,0.02428
3473.67030,0.02450
3471.74155,0.02494
3469.81281,0.02511
3467.88406,0.02507
3465.95532,0.02518
3464.02657,0.02560
3462.09783,0.02586
3460.16908,0.02563
3458.24034,0.02544
3456.31159,0.02568
3454.38285,0.02585
3452.45410,0.02573
3450.52535,0.02570
3448.59661,0.02585
3446.66786,0.02582
3444.73912,0.02572
3442.81037,0.02605
3440.88163,0.02659
3438.95288,0.02692
3437.02414,0.02700
3435.09539,0.02685
3433.16665,0.02668
3431.23790,0.02671
3429.30916,0.02679
3427.38041,0.02683
3425.45167,0.02693
3423.52292,0.02706
3421.59418,0.02714
3419.66543,0.02728
3417.73668,0.02751
3415.80794,0.02743
3413.87919,0.02713
3411.95045,0.02699
3410.02170,0.02688
3408.09296,0.02678
3406.16421,0.02704
3404.23547,0.02740
3402.30672,0.02741
3400.37798,0.02730
3398.44923,0.02721
3396.52049,0.02698
3394.59174,0.02689
3392.66300,0.02716
3390.73425,0.02756
3388.80550,0.02789
3386.87676,0.02811
3384.94801,0.02827
3383.01927,0.02840
3381.09052,0.02815
3379.16178,0.02743
3377.23303,0.02703
3375.30429,0.02725
3373.37554,0.02731
3371.44680,0.02715
3369.51805,0.02723
3367.58931,0.02739
3365.66056,0.02751
3363.73182,0.02772
3361.80307,0.02798
3359.87433,0.02805
3357.94558,0.02783
3356.01683,0.02760
3354.08809,0.02763
3352.15934,0.02772
3350.23060,0.02762
3348.30185,0.02741
3346.37311,0.02728
3344.44436,0.02725
3342.51562,0.02734
3340.58687,0.02758
3338.65813,0.02784
3336.72938,0.02807
3334.80064,0.02827
3332.87189,0.02837
3330.94315,0.02843
3329.01440,0.02843
3327.08566,0.02830
3325.15691,0.02817
3323.22816,0.02820
3321.29942,0.02836
3319.37067,0.02857
3317.44193,0.02877
3315.51318,0.02887
3313.58444,0.02881
3311.65569,0.02872
3309.72695,0.02873
3307.79820,0.02882
3305.86946,0.02889
3303.94071,0.02892
3302.01197,0.02898
3300.08322,0.02904
3298.15448,0.02902
3296.22573,0.02902
3294.29698,0.02902
3292.36824,0.02907
3290.43949,0.02928
3288.51075,0.02930
3286.58200,0.02901
3284.65326,0.02894
3282.72451,0.02932
3280.79577,0.02973
3278.86702,0.02985
3276.93828,0.02975
3275.00953,0.02940
3273.08079,0.02905
3271.15204,0.02920
3269.22330,0.02960
3267.29455,0.02970
3265.36581,0.02947
3263.43706,0.02942
3261.50831,0.02981
3259.57957,0.03015
3257.65082,0.03027
3255.72208,0.03025
3253.79333,0.03002
3251.86459,0.02998
3249.93584,0.03045
3248.00710,0.03086
3246.07835,0.03079
3244.14961,0.03061
3242.22086,0.03066
3240.29212,0.03061
3238.36337,0.03022
3236.43463,0.02985
3234.50588,0.03005
3232.57713,0.03079
3230.64839,0.03143
3228.71964,0.03173
3226.79090,0.03187
3224.86215,0.03180
3222.93341,0.03151
3221.00466,0.03132
3219.07592,0.03128
3217.14717,0.03108
3215.21843,0.03079
3213.28968,0.03081
3211.36094,0.03123
3209.43219,0.03183
3207.50345,0.03220
3205.57470,0.03211
3203.64596,0.03174
3201.71721,0.03156
3199.78846,0.03169
3197.85972,0.03195
3195.93097,0.03222
3194.00223,0.03243
3192.07348,0.03259
3190.14474,0.03285
3188.21599,0.03318
3186.28725,0.03347
3184.35850,0.03372
3182.42976,0.03398
3180.50101,0.03421
3178.57227,0.03427
3176.64352,0.03421
3174.71478,0.03438
3172.78603,0.03474
3170.85729,0.03474
3168.92854,0.03442
3166.99979,0.03437
3165.07105,0.03477
3163.14230,0.03527
3161.21356,0.03549
3159.28481,0.03551
3157.35607,0.03579
3155.42732,0.03623
3153.49858,0.03656
3151.56983,0.03694
3149.64109,0.03721
3147.71234,0.03720
3145.78360,0.03732
3143.85485,0.03771
3141.92611,0.03816
3139.99736,0.03857
3138.06861,0.03897
3136.13987,0.03933
3134.21112,0.03968
3132.28238,0.04010
3130.35363,0.04056
3128.42489,0.04101
3126.49614,0.04149
3124.56740,0.04191
3122.63865,0.04218
3120.70991,0.04238
3118.78116,0.04266
3116.85242,0.04306
3114.92367,0.04354
3112.99493,0.04404
3111.06618,0.04453
3109.13744,0.04510
3107.20869,0.04567
3105.27994,0.04636
3103.35120,0.04749
3101.42245,0.04860
3099.49371,0.04907
3097.56496,0.04920
3095.63622,0.04967
3093.70747,0.05052
3091.77873,0.05121
3089.84998,0.05152
3087.92124,0.05184
3085.99249,0.05249
3084.06375,0.05342
3082.13500,0.05438
3080.20626,0.05518
3078.27751,0.05575
3076.34877,0.05626
3074.42002,0.05688
3072.49127,0.05753
3070.56253,0.05808
3068.63378,0.05864
3066.70504,0.05934
3064.77629,0.06012
3062.84755,0.06105
3060.91880,0.06214
3058.99006,0.06321
3057.06131,0.06406
3055.13257,0.06467
3053.20382,0.06527
3051.27508,0.06608
3049.34633,0.06695
3047.41759,0.06779
3045.48884,0.06860
3043.56009,0.06934
3041.63135,0.07010
3039.70260,0.07093
3037.77386,0.07178
3035.84511,0.07255
3033.91637,0.07325
3031.98762,0.07408
3030.05888,0.07499
3028.13013,0.07571
3026.20139,0.07621
3024.27264,0.07668
3022.34390,0.07726
3020.41515,0.07801
3018.48641,0.07890
3016.55766,0.07969
3014.62892,0.08004
3012.70017,0.07999
3010.77142,0.07997
3008.84268,0.08018
3006.91393,0.08035
3004.98519,0.08041
3003.05644,0.08070
3001.12770,0.08107
2999.19895,0.08090
2997.27021,0.08029
2995.34146,0.07985
2993.41272,0.07946
2991.48397,0.07854
2989.55523,0.07704
2987.62648,0.07527
2985.69774,0.07339
2983.76899,0.07174
2981.84025,0.07055
2979.91150,0.06950
2977.98275,0.06835
2976.05401,0.06723
2974.12526,0.06609
2972.19652,0.06474
2970.26777,0.06329
2968.33903,0.06196
2966.41028,0.06082
2964.48154,0.05971
2962.55279,0.05838
2960.62405,0.05679
2958.69530,0.05530
2956.76656,0.05424
2954.83781,0.05346
2952.90907,0.05253
2950.98032,0.05146
2949.05157,0.05054
2947.12283,0.04973
2945.19408,0.04892
2943.26534,0.04805
2941.33659,0.04699
2939.40785,0.04566
2937.47910,0.04447
2935.55036,0.04387
2933.62161,0.04352
2931.69287,0.04295
2929.76412,0.04237
2927.83538,0.04203
2925.90663,0.04177
2923.97789,0.04133
2922.04914,0.04061
2920.12040,0.03988
2918.19165,0.03961
2916.26290,0.03995
2914.33416,0.04045
2912.40541,0.04058
2910.47667,0.04042
2908.54792,0.04026
2906.61918,0.04006
2904.69043,0.03988
2902.76169,0.03995
2900.83294,0.04016
2898.90420,0.04027
2896.97545,0.04036
2895.04671,0.04046
2893.11796,0.04043
2891.18922,0.04047
2889.26047,0.04076
2887.33172,0.04112
2885.40298,0.04143
2883.47423,0.04181
2881.54549,0.04237
2879.61674,0.04305
2877.68800,0.04372
2875.75925,0.04440
2873.83051,0.04523
2871.90176,0.04608
2869.97302,0.04688
2868.04427,0.04792
2866.11553,0.04921
2864.18678,0.05038
2862.25804,0.05132
2860.32929,0.05223
2858.40055,0.05320
2856.47180,0.05424
2854.54305,0.05518
2852.61431,0.05580
2850.68556,0.05646
2848.75682,0.05785
2846.82807,0.06008
2844.89933,0.06257
2842.97058,0.06464
2841.04184,0.06630
2839.11309,0.06798
2837.18435,0.06978
2835.25560,0.07136
2833.32686,0.07257
2831.39811,0.07368
2829.46937,0.07488
2827.54062,0.07601
2825.61188,0.07702
2823.68313,0.07796
2821.75438,0.07893
2819.82564,0.08010
2817.89689,0.08125
2815.96815,0.08206
2814.03940,0.08282
2812.11066,0.08388
2810.18191,0.08501
2808.25317,0.08604
2806.32442,0.08703
2804.39568,0.08795
2802.46693,0.08893
2800.53819,0.09015
2798.60944,0.09138
2796.68070,0.09239
2794.75195,0.09328
2792.82320,0.09411
2790.89446,0.09499
2788.96571,0.09601
2787.03697,0.09706
2785.10822,0.09803
2783.17948,0.09896
2781.25073,0.09986
2779.32199,0.10072
2777.39324,0.10153
2775.46450,0.10234
2773.53575,0.10305
2771.60701,0.10360
2769.67826,0.10421
2767.74952,0.10507
2765.82077,0.10603
2763.89203,0.10684
2761.96328,0.10741
2760.03453,0.10779
2758.10579,0.10815
2756.17704,0.10863
2754.24830,0.10927
2752.31955,0.10988
2750.39081,0.11021
2748.46206,0.11034
2746.53332,0.11047
2744.60457,0.11068
2742.67583,0.11098
2740.74708,0.11128
2738.81834,0.11153
2736.88959,0.11176
2734.96085,0.11197
2733.03210,0.11219
2731.10336,0.11244
2729.17461,0.11284
2727.24586,0.11347
2725.31712,0.11418
2723.38837,0.11482
2721.45963,0.11538
2719.53088,0.11589
2717.60214,0.11647
2715.67339,0.11721
2713.74465,0.11791
2711.81590,0.11852
2709.88716,0.11927
2707.95841,0.12017
2706.02967,0.12097
2704.10092,0.12159
2702.17218,0.12213
2700.24343,0.12286
2698.31468,0.12382
2696.38594,0.12468
2694.45719,0.12543
2692.52845,0.12635
2690.59970,0.12729
2688.67096,0.12803
2686.74221,0.12892
2684.81347,0.13012
2682.88472,0.13125
2680.95598,0.13219
2679.02723,0.13314
2677.09849,0.13412
2675.16974,0.13510
2673.24100,0.13600
2671.31225,0.13684
2669.38351,0.13772
2667.45476,0.13863
2665.52601,0.13959
2663.59727,0.14066
2661.66852,0.14163
2659.73978,0.14250
2657.81103,0.14350
2655.88229,0.14459
2653.95354,0.14557
2652.02480,0.14644
2650.09605,0.14738
2648.16731,0.14846
2646.23856,0.14949
2644.30982,0.15041
2642.38107,0.15150
2640.45233,0.15280
2638.52358,0.15392
2636.59484,0.15477
2634.66609,0.15560
2632.73734,0.15642
2630.80860,0.15726
2628.87985,0.15824
2626.95111,0.15919
2625.02236,0.16004
2623.09362,0.16100
2621.16487,0.16204
2619.23613,0.16288
2617.30738,0.16365
2615.37864,0.16459
2613.44989,0.16550
2611.52115,0.16631
2609.59240,0.16720
2607.66366,0.16804
2605.73491,0.16861
2603.80616,0.16912
2601.87742,0.16986
2599.94867,0.17064
2598.01993,0.17132
2596.09118,0.17205
2594.16244,0.17276
2592.23369,0.17333
2590.30495,0.17396
2588.37620,0.17472
2586.44746,0.17537
2584.51871,0.17579
2582.58997,0.17609
2580.66122,0.17634
2578.73248,0.17664
2576.80373,0.17717
2574.87499,0.17793
2572.94624,0.17861
2571.01749,0.17891
2569.08875,0.17900
2567.16000,0.17927
2565.23126,0.17983
2563.30251,0.18043
2561.37377,0.18084
2559.44502,0.18108
2557.51628,0.18134
2555.58753,0.18170
2553.65879,0.18204
2551.73004,0.18230
2549.80130,0.18234
2547.87255,0.18217
2545.94381,0.18215
2544.01506,0.18241
2542.08631,0.18262
2540.15757,0.18267
2538.22882,0.18276
2536.30008,0.18297
2534.37133,0.18328
2532.44259,0.18362
2530.51384,0.18389
2528.58510,0.18417
2526.65635,0.18444
2524.72761,0.18477
2522.79886,0.18529
2520.87012,0.18583
2518.94137,0.18621
2517.01263,0.18650
2515.08388,0.18692
2513.15514,0.18753
2511.22639,0.18807
2509.29764,0.18838
2507.36890,0.18873
2505.44015,0.18928
2503.51141,0.18983
2501.58266,0.19042
2499.65392,0.19104
2497.72517,0.19151
2495.79643,0.19195
2493.86768,0.19256
2491.93894,0.19315
2490.01019,0.19363
2488.08145,0.19419
2486.15270,0.19498
2484.22396,0.19587
2482.29521,0.19667
2480.36647,0.19737
2478.43772,0.19815
2476.50897,0.19910
2474.58023,0.20006
2472.65148,0.20092
2470.72274,0.20178
2468.79399,0.20275
2466.86525,0.20369
2464.93650,0.20451
2463.00776,0.20524
2461.07901,0.20602
2459.15027,0.20701
2457.22152,0.20826
2455.29278,0.20953
2453.36403,0.21064
2451.43529,0.21157
2449.50654,0.21243
2447.57779,0.21341
2445.64905,0.21453
2443.72030,0.21558
2441.79156,0.21652
2439.86281,0.21746
2437.93407,0.21850
2436.00532,0.21966
2434.07658,0.22083
2432.14783,0.22191
2430.21909,0.22286
2428.29034,0.22380
2426.36160,0.22489
2424.43285,0.22602
2422.50411,0.22697
2420.57536,0.22796
2418.64662,0.22915
2416.71787,0.23030
2414.78912,0.23120
2412.86038,0.23186
2410.93163,0.23250
2409.00289,0.23322
2407.07414,0.23382
2405.14540,0.23429
2403.21665,0.23484
2401.28791,0.23545
2399.35916,0.23610
2397.43042,0.23676
2395.50167,0.23722
2393.57293,0.23753
2391.64418,0.23803
2389.71544,0.23873
2387.78669,0.23949
2385.85795,0.24016
2383.92920,0.24063
2382.00045,0.24097
2380.07171,0.24148
2378.14296,0.24231
2376.21422,0.24326
2374.28547,0.24405
2372.35673,0.24464
2370.42798,0.24527
2368.49924,0.24599
2366.57049,0.24665
2364.64175,0.24729
2362.71300,0.24796
2360.78426,0.24866
2358.85551,0.24927
2356.92677,0.24958
2354.99802,0.24967
2353.06927,0.24983
2351.14053,0.25027
2349.21178,0.25097
2347.28304,0.25174
2345.35429,0.25242
2343.42555,0.25313
2341.49680,0.25392
2339.56806,0.25445
2337.63931,0.25456
2335.71057,0.25482
2333.78182,0.25557
2331.85308,0.25626
2329.92433,0.25646
2327.99559,0.25648
2326.06684,0.25663
2324.13810,0.25674
2322.20935,0.25668
2320.28060,0.25655
2318.35186,0.25647
2316.42311,0.25648
2314.49437,0.25653
2312.56562,0.25663
2310.63688,0.25682
2308.70813,0.25703
2306.77939,0.25711
2304.85064,0.25703
2302.92190,0.25671
2300.99315,0.25620
2299.06441,0.25579
2297.13566,0.25566
2295.20692,0.25557
2293.27817,0.25531
2291.34943,0.25500
2289.42068,0.25475
2287.49193,0.25434
2285.56319,0.25374
2283.63444,0.25317
2281.70570,0.25261
2279.77695,0.25185
2277.84821,0.25090
2275.91946,0.25003
2273.99072,0.24927
2272.06197,0.24834
2270.13323,0.24726
2268.20448,0.24637
2266.27574,0.24571
2264.34699,0.24495
2262.41825,0.24404
2260.48950,0.24334
2258.56075,0.24280
2256.63201,0.24209
2254.70326,0.24114
2252.77452,0.24012
2250.84577,0.23920
2248.91703,0.23849
2246.98828,0.23795
2245.05954,0.23733
2243.13079,0.23651
2241.20205,0.23569
2239.27330,0.23504
2237.34456,0.23450
2235.41581,0.23403
2233.48707,0.23354
2231.55832,0.23297
2229.62958,0.23241
2227.70083,0.23190
2225.77208,0.23141
2223.84334,0.23095
2221.91459,0.23054
2219.98585,0.23016
2218.05710,0.22956
2216.12836,0.22874
2214.19961,0.22803
2212.27087,0.22750
2210.34212,0.22688
2208.41338,0.22621
2206.48463,0.22583
2204.55589,0.22567
2202.62714,0.22543
2200.69840,0.22503
2198.76965,0.22459
2196.84090,0.22405
2194.91216,0.22339
2192.98341,0.22273
2191.05467,0.22197
2189.12592,0.22106
2187.19718,0.22024
2185.26843,0.21954
2183.33969,0.21870
2181.41094,0.21761
2179.48220,0.21649
2177.55345,0.21555
2175.62471,0.21482
2173.69596,0.21411
2171.76722,0.21324
2169.83847,0.21231
2167.90973,0.21150
2165.98098,0.21084
2164.05223,0.21021
2162.12349,0.20951
2160.19474,0.20879
2158.26600,0.20815
2156.33725,0.20760
2154.40851,0.20716
2152.47976,0.20686
2150.55102,0.20666
2148.62227,0.20641
2146.69353,0.20602
2144.76478,0.20563
2142.83604,0.20530
2140.90729,0.20513
2138.97855,0.20519
2137.04980,0.20527
2135.12106,0.20515
2133.19231,0.20493
2131.26356,0.20479
2129.33482,0.20473
2127.40607,0.20478
2125.47733,0.20497
2123.54858,0.20529
2121.61984,0.20572
2119.69109,0.20623
2117.76235,0.20691
2115.83360,0.20777
2113.90486,0.20858
2111.97611,0.20922
2110.04737,0.20987
2108.11862,0.21061
2106.18988,0.21143
2104.26113,0.21229
2102.33238,0.21311
2100.40364,0.21378
2098.47489,0.21442
2096.54615,0.21519
2094.61740,0.21608
2092.68866,0.21691
2090.75991,0.21760
2088.83117,0.21822
2086.90242,0.21883
2084.97368,0.21935
2083.04493,0.21971
2081.11619,0.21999
2079.18744,0.22023
2077.25870,0.22051
2075.32995,0.22076
2073.40121,0.22080
2071.47246,0.22071
2069.54371,0.22063
2067.61497,0.22055
2065.68622,0.22043
2063.75748,0.22028
2061.82873,0.22014
2059.89999,0.22006
2057.97124,0.22001
2056.04250,0.21995
2054.11375,0.21995
2052.18501,0.22012
2050.25626,0.22034
2048.32752,0.22047
2046.39877,0.22067
2044.47003,0.22112
2042.54128,0.22163
2040.61254,0.22210
2038.68379,0.22274
2036.75504,0.22358
2034.82630,0.22442
2032.89755,0.22530
2030.96881,0.22628
2029.04006,0.22740
2027.11132,0.22872
2025.18257,0.23019
2023.25383,0.23163
2021.32508,0.23296
2019.39634,0.23436
2017.46759,0.23577
2015.53885,0.23689
2013.61010,0.23791
2011.68136,0.23919
2009.75261,0.24059
2007.82386,0.24187
2005.89512,0.24301
2003.96637,0.24395
2002.03763,0.24459
2000.10888,0.24508
1998.18014,0.24560
1996.25139,0.24619
1994.32265,0.24670
1992.39390,0.24687
1990.46516,0.24678
1988.53641,0.24692
1986.60767,0.24748
1984.67892,0.24828
1982.75018,0.24919
1980.82143,0.25009
1978.89269,0.25094
1976.96394,0.25186
1975.03519,0.25296
1973.10645,0.25416
1971.17770,0.25538
1969.24896,0.25667
1967.32021,0.25801
1965.39147,0.25930
1963.46272,0.26052
1961.53398,0.26165
1959.60523,0.26279
1957.67649,0.26406
1955.74774,0.26529
1953.81900,0.26634
1951.89025,0.26741
1949.96151,0.26868
1948.03276,0.27007
1946.10402,0.27150
1944.17527,0.27305
1942.24652,0.27453
1940.31778,0.27567
1938.38903,0.27661
1936.46029,0.27753
1934.53154,0.27840
1932.60280,0.27918
1930.67405,0.27985
1928.74531,0.28055
1926.81656,0.28148
1924.88782,0.28261
1922.95907,0.28374
1921.03033,0.28478
1919.10158,0.28585
1917.17284,0.28664
1915.24409,0.28701
1913.31534,0.28753
1911.38660,0.28845
1909.45785,0.28947
1907.52911,0.29033
1905.60036,0.29098
1903.67162,0.29152
1901.74287,0.29207
1899.81413,0.29270
1897.88538,0.29332
1895.95664,0.29374
1894.02789,0.29397
1892.09915,0.29419
1890.17040,0.29445
1888.24166,0.29456
1886.31291,0.29453
1884.38417,0.29437
1882.45542,0.29397
1880.52667,0.29342
1878.59793,0.29285
1876.66918,0.29235
1874.74044,0.29201
1872.81169,0.29187
1870.88295,0.29195
1868.95420,0.29190
1867.02546,0.29112
1865.09671,0.28995
1863.16797,0.28902
1861.23922,0.28838
1859.31048,0.28770
1857.38173,0.28673
1855.45299,0.28559
1853.52424,0.28462
1851.59549,0.28381
1849.66675,0.28302
1847.73800,0.28228
1845.80926,0.28160
1843.88051,0.28044
1841.95177,0.27874
1840.02302,0.27723
1838.09428,0.27603
1836.16553,0.27493
1834.23679,0.27402
1832.30804,0.27349
1830.37930,0.27286
1828.45055,0.27155
1826.52181,0.27005
1824.59306,0.26857
1822.66432,0.26703
1820.73557,0.26580
1818.80682,0.26480
1816.87808,0.26353
1814.94933,0.26210
1813.02059,0.26092
1811.09184,0.25978
1809.16310,0.25831
1807.23435,0.25662
1805.30561,0.25492
1803.37686,0.25336
1801.44812,0.25187
1799.51937,0.25028
1797.59063,0.24871
1795.66188,0.24741
1793.73314,0.24618
1791.80439,0.24438
1789.87565,0.24212
1787.94690,0.24022
1786.01815,0.23874
1784.08941,0.23730
1782.16066,0.23575
1780.23192,0.23398
1778.30317,0.23210
1776.37443,0.23048
1774.44568,0.22894
1772.51694,0.22682
1770.58819,0.22397
1768.65945,0.22080
1766.73070,0.21761
1764.80196,0.21489
1762.87321,0.21234
1760.94447,0.20946
1759.01572,0.20692
1757.08697,0.20498
1755.15823,0.20339
1753.22948,0.20217
1751.30074,0.20093
1749.37199,0.19899
1747.44325,0.19652
1745.51450,0.19386
1743.58576,0.19095
1741.65701,0.18788
1739.72827,0.18463
1737.79952,0.18152
1735.87078,0.17829
1733.94203,0.17341
1732.01329,0.16748
1730.08454,0.16205
1728.15580,0.15638
1726.22705,0.15036
1724.29830,0.14392
1722.36956,0.13734
1720.44081,0.13126
1718.51207,0.12428
1716.58332,0.11533
1714.65458,0.10706
1712.72583,0.10024
1710.79709,0.09405
1708.86834,0.08851
1706.93960,0.08323
1705.01085,0.07809
1703.08211,0.07407
1701.15336,0.07066
1699.22462,0.06702
1697.29587,0.06431
1695.36713,0.06223
1693.43838,0.06055
1691.50963,0.05947
1689.58089,0.05864
1687.65214,0.05808
1685.72340,0.05755
1683.79465,0.05645
1681.86591,0.05527
1679.93716,0.05469
1678.00842,0.05455
1676.07967,0.05456
1674.15093,0.05455
1672.22218,0.05457
1670.29344,0.05469
1668.36469,0.05469
1666.43595,0.05462
1664.50720,0.05477
1662.57845,0.05517
1660.64971,0.05577
1658.72096,0.05635
1656.79222,0.05689
1654.86347,0.05756
1652.93473,0.05812
1651.00598,0.05842
1649.07724,0.05908
1647.14849,0.05990
1645.21975,0.06010
1643.29100,0.06011
1641.36226,0.06050
1639.43351,0.06111
1637.50477,0.06184
1635.57602,0.06277
1633.64728,0.06358
1631.71853,0.06425
1629.78978,0.06519
1627.86104,0.06644
1625.93229,0.06782
1624.00355,0.06927
1622.07480,0.07080
1620.14606,0.07244
1618.21731,0.07431
1616.28857,0.07627
1614.35982,0.07784
1612.43108,0.07924
1610.50233,0.08085
1608.57359,0.08272
1606.64484,0.08457
1604.71610,0.08626
1602.78735,0.08804
1600.85861,0.08982
1598.92986,0.09144
1597.00111,0.09299
1595.07237,0.09443
1593.14362,0.09575
1591.21488,0.09704
1589.28613,0.09824
1587.35739,0.09940
1585.42864,0.10077
1583.49990,0.10227
1581.57115,0.10375
1579.64241,0.10509
1577.71366,0.10627
1575.78492,0.10737
1573.85617,0.10830
1571.92743,0.10930
1569.99868,0.11058
1568.06993,0.11172
1566.14119,0.11232
1564.21244,0.11272
1562.28370,0.11341
1560.35495,0.11461
1558.42621,0.11538
1556.49746,0.11470
1554.56872,0.11393
1552.63997,0.11344
1550.71123,0.11304
1548.78248,0.11261
1546.85374,0.11225
1544.92499,0.11203
1542.99625,0.11168
1541.06750,0.11065
1539.13876,0.10844
1537.21001,0.10633
1535.28126,0.10461
1533.35252,0.10222
1531.42377,0.09930
1529.49503,0.09674
1527.56628,0.09412
1525.63754,0.09112
1523.70879,0.08814
1521.78005,0.08472
1519.85130,0.08124
1517.92256,0.07852
1515.99381,0.07592
1514.06507,0.07347
1512.13632,0.07170
1510.20758,0.07071
1508.27883,0.06994
1506.35008,0.06832
1504.42134,0.06684
1502.49259,0.06643
1500.56385,0.06645
1498.63510,0.06639
1496.70636,0.06598
1494.77761,0.06542
1492.84887,0.06500
1490.92012,0.06440
1488.99138,0.06309
1487.06263,0.06115
1485.13389,0.05902
1483.20514,0.05686
1481.27640,0.05468
1479.34765,0.05268
1477.41891,0.05093
1475.49016,0.04920
1473.56141,0.04712
1471.63267,0.04465
1469.70392,0.04273
1467.77518,0.04167
1465.84643,0.04083
1463.91769,0.03978
1461.98894,0.03902
1460.06020,0.03875
1458.13145,0.03836
1456.20271,0.03740
1454.27396,0.03644
1452.34522,0.03565
1450.41647,0.03491
1448.48773,0.03438
1446.55898,0.03409
1444.63024,0.03393
1442.70149,0.03377
1440.77274,0.03353
1438.84400,0.03329
1436.91525,0.03307
1434.98651,0.03286
1433.05776,0.03260
1431.12902,0.03224
1429.20027,0.03196
1427.27153,0.03184
1425.34278,0.03174
1423.41404,0.03154
1421.48529,0.03134
1419.55655,0.03128
1417.62780,0.03141
1415.69906,0.03163
1413.77031,0.03183
1411.84156,0.03205
1409.91282,0.03223
1407.98407,0.03231
1406.05533,0.03226
1404.12658,0.03216
1402.19784,0.03217
1400.26909,0.03242
1398.34035,0.03275
1396.41160,0.03275
1394.48286,0.03222
1392.55411,0.03154
1390.62537,0.03101
1388.69662,0.03050
1386.76788,0.02995
1384.83913,0.02944
1382.91039,0.02896
1380.98164,0.02856
1379.05289,0.02820
1377.12415,0.02798
1375.19540,0.02801
1373.26666,0.02813
1371.33791,0.02820
1369.40917,0.02820
1367.48042,0.02827
1365.55168,0.02857
1363.62293,0.02904
1361.69419,0.02968
1359.76544,0.03036
1357.83670,0.03089
1355.90795,0.03120
1353.97921,0.03142
1352.05046,0.03167
1350.12172,0.03183
1348.19297,0.03179
1346.26422,0.03168
1344.33548,0.03154
1342.40673,0.03129
1340.47799,0.03096
1338.54924,0.03075
1336.62050,0.03081
1334.69175,0.03104
1332.76301,0.03130
1330.83426,0.03148
1328.90552,0.03153
1326.97677,0.03148
1325.04803,0.03145
1323.11928,0.03149
1321.19054,0.03149
1319.26179,0.03127
1317.33304,0.03096
1315.40430,0.03087
1313.47555,0.03109
1311.54681,0.03152
1309.61806,0.03197
1307.68932,0.03231
1305.76057,0.03273
1303.83183,0.03349
1301.90308,0.03419
1299.97434,0.03447
1298.04559,0.03478
1296.11685,0.03546
1294.18810,0.03616
1292.25936,0.03663
1290.33061,0.03688
1288.40187,0.03688
1286.47312,0.03662
1284.54437,0.03617
1282.61563,0.03541
1280.68688,0.03442
1278.75814,0.03382
1276.82939,0.03395
1274.90065,0.03440
1272.97190,0.03461
1271.04316,0.03452
1269.11441,0.03435
1267.18567,0.03414
1265.25692,0.03385
1263.32818,0.03375
1261.39943,0.03395
1259.47069,0.03426
1257.54194,0.03465
1255.61320,0.03509
1253.68445,0.03541
1251.75570,0.03549
1249.82696,0.03537
1247.89821,0.03525
1245.96947,0.03523
1244.04072,0.03503
1242.11198,0.03453
1240.18323,0.03398
1238.25449,0.03365
1236.32574,0.03352
1234.39700,0.03344
1232.46825,0.03344
1230.53951,0.03349
1228.61076,0.03353
1226.68202,0.03367
1224.75327,0.03388
1222.82452,0.03425
1220.89578,0.03480
1218.96703,0.03527
1217.03829,0.03533
1215.10954,0.03486
1213.18080,0.03393
1211.25205,0.03264
1209.32331,0.03124
1207.39456,0.02997
1205.46582,0.02885
1203.53707,0.02788
1201.60833,0.02720
1199.67958,0.02698
1197.75084,0.02710
1195.82209,0.02735
1193.89335,0.02768
1191.96460,0.02799
1190.03585,0.02804
1188.10711,0.02760
1186.17836,0.02663
1184.24962,0.02552
1182.32087,0.02454
1180.39213,0.02367
1178.46338,0.02277
1176.53464,0.02185
1174.60589,0.02112
1172.67715,0.02077
1170.74840,0.02085
1168.81966,0.02144
1166.89091,0.02248
1164.96217,0.02372
1163.03342,0.02482
1161.10467,0.02561
1159.17593,0.02608
1157.24718,0.02621
1155.31844,0.02619
1153.38969,0.02615
1151.46095,0.02570
1149.53220,0.02481
1147.60346,0.02385
1145.67471,0.02311
1143.74597,0.02262
1141.81722,0.02215
1139.88848,0.02155
1137.95973,0.02108
1136.03099,0.02088
1134.10224,0.02067
1132.17350,0.02040
1130.24475,0.02045
1128.31600,0.02103
1126.38726,0.02178
1124.45851,0.02245
1122.52977,0.02341
1120.60102,0.02468
1118.67228,0.02568
1116.74353,0.02628
1114.81479,0.02670
1112.88604,0.02710
1110.95730,0.02742
1109.02855,0.02747
1107.09981,0.02721
1105.17106,0.02683
1103.24232,0.02670
1101.31357,0.02700
1099.38483,0.02747
1097.45608,0.02790
1095.52733,0.02824
1093.59859,0.02839
1091.66984,0.02868
1089.74110,0.02969
1087.81235,0.03130
1085.88361,0.03290
1083.95486,0.03438
1082.02612,0.03595
1080.09737,0.03734
1078.16863,0.03848
1076.23988,0.03979
1074.31114,0.04117
1072.38239,0.04203
1070.45365,0.04246
1068.52490,0.04280
1066.59615,0.04301
1064.66741,0.04327
1062.73866,0.04371
1060.80992,0.04404
1058.88117,0.04413
1056.95243,0.04384
1055.02368,0.04303
1053.09494,0.04195
1051.16619,0.04110
1049.23745,0.04086
1047.30870,0.04100
1045.37996,0.04113
1043.45121,0.04122
1041.52247,0.04122
1039.59372,0.04108
1037.66498,0.04121
1035.73623,0.04169
1033.80748,0.04218
1031.87874,0.04260
1029.94999,0.04308
1028.02125,0.04373
1026.09250,0.04454
1024.16376,0.04540
1022.23501,0.04635
1020.30627,0.04728
1018.37752,0.04771
1016.44878,0.04755
1014.52003,0.04716
1012.59129,0.04675
1010.66254,0.04636
1008.73380,0.04578
1006.80505,0.04491
1004.87631,0.04421
1002.94756,0.04429
1001.01881,0.04514
999.09007,0.04622
997.16132,0.04710
995.23258,0.04784
993.30383,0.04871
991.37509,0.04964
989.44634,0.05049
987.51760,0.05160
985.58885,0.05317
983.66011,0.05520
981.73136,0.05758
979.80262,0.05980
977.87387,0.06132
975.94513,0.06215
974.01638,0.06272
972.08763,0.06323
970.15889,0.06351
968.23014,0.06379
966.30140,0.06455
964.37265,0.06575
962.44391,0.06745
960.51516,0.06995
958.58642,0.07297
956.65767,0.07605
954.72893,0.07908
952.80018,0.08190
950.87144,0.08450
948.94269,0.08686
947.01395,0.08852
945.08520,0.08940
943.15646,0.09013
941.22771,0.09066
939.29896,0.09053
937.37022,0.08993
935.44147,0.08928
933.51273,0.08874
931.58398,0.08838
929.65524,0.08820
927.72649,0.08799
925.79775,0.08744
923.86900,0.08677
921.94026,0.08618
920.01151,0.08529
918.08277,0.08383
916.15402,0.08176
914.22528,0.07901
912.29653,0.07566
910.36779,0.07201
908.43904,0.06825
906.51029,0.06451
904.58155,0.06092
902.65280,0.05764
900.72406,0.05503
898.79531,0.05343
896.86657,0.05309
894.93782,0.05423
893.00908,0.05689
891.08033,0.06079
889.15159,0.06542
887.22284,0.07018
885.29410,0.07460
883.36535,0.07840
881.43661,0.08170
879.50786,0.08482
877.57911,0.08772
875.65037,0.09003
873.72162,0.09164
871.79288,0.09267
869.86413,0.09311
867.93539,0.09300
866.00664,0.09262
864.07790,0.09226
862.14915,0.09189
860.22041,0.09126
858.29166,0.09026
856.36292,0.08902
854.43417,0.08793
852.50543,0.08717
850.57668,0.08653
848.64794,0.08559
846.71919,0.08425
844.79044,0.08282
842.86170,0.08137
840.93295,0.07980
839.00421,0.07824
837.07546,0.07691
835.14672,0.07600
833.21797,0.07518
831.28923,0.07407
829.36048,0.07293
827.43174,0.07189
825.50299,0.07047
823.57425,0.06869
821.64550,0.06731
819.71676,0.06672
817.78801,0.06650
815.85926,0.06605
813.93052,0.06538
812.00177,0.06456
810.07303,0.06360
808.14428,0.06292
806.21554,0.06271
804.28679,0.06250
802.35805,0.06199
800.42930,0.06125
798.50056,0.06034
796.57181,0.05937
794.64307,0.05864
792.71432,0.05817
790.78558,0.05775
788.85683,0.05752
786.92809,0.05732
784.99934,0.05673
783.07059,0.05607
781.14185,0.05578
779.21310,0.05554
777.28436,0.05493
775.35561,0.05385
773.42687,0.05271
771.49812,0.05211
769.56938,0.05195
767.64063,0.05166
765.71189,0.05113
763.78314,0.05065
761.85440,0.05028
759.92565,0.04981
757.99691,0.04932
756.06816,0.04907
754.13942,0.04899
752.21067,0.04868
750.28192,0.04789
748.35318,0.04720
746.42443,0.04680
744.49569,0.04621
742.56694,0.04563
740.63820,0.04517
738.70945,0.04459
736.78071,0.04411
734.85196,0.04380
732.92322,0.04307
730.99447,0.04201
729.06573,0.04156
727.13698,0.04176
725.20824,0.04175
723.27949,0.04140
721.35074,0.04113
719.42200,0.04079
717.49325,0.04015
715.56451,0.03961
713.63576,0.03959
711.70702,0.03961
709.77827,0.03917
707.84953,0.03861
705.92078,0.03829
703.99204,0.03812
702.06329,0.03782
700.13455,0.03741
698.20580,0.03715
696.27706,0.03707
694.34831,0.03697
692.41957,0.03700
690.49082,0.03709
688.56207,0.03656
686.63333,0.03537
684.70458,0.03435
682.77584,0.03403
680.84709,0.03418
678.91835,0.03429
676.98960,0.03403
675.06086,0.03363
673.13211,0.03360
671.20337,0.03397
669.27462,0.03431
667.34588,0.03434
665.41713,0.03439
663.48839,0.03459
661.55964,0.03447
659.63090,0.03401
657.70215,0.03394
655.77340,0.03426
653.84466,0.03439
651.91591,0.03454
649.98717,0.03453
648.05842,0.03380
646.12968,0.03311
644.20093,0.03338
642.27219,0.03399
640.34344,0.03385
638.41470,0.03288
636.48595,0.03199
634.55721,0.03189
632.62846,0.03234
630.69972,0.03248
628.77097,0.03180
626.84222,0.03075
624.91348,0.03019
622.98473,0.03051
621.05599,0.03150
619.12724,0.03233
617.19850,0.03203
615.26975,0.03125
613.34101,0.03155
611.41226,0.03286
609.48352,0.03363
607.55477,0.03310
605.62603,0.03243
603.69728,0.03231
601.76854,0.03246
599.83979,0.03326
