7497.03301,0.89022
7495.10426,0.88818
7493.17552,0.88665
7491.24677,0.88930
7489.31803,0.89070
7487.38928,0.88589
7485.46054,0.88207
7483.53179,0.88430
7481.60305,0.88680
7479.67430,0.88677
7477.74556,0.88903
7475.81681,0.89344
7473.88807,0.89496
7471.95932,0.89149
7470.03057,0.88454
7468.10183,0.87939
7466.17308,0.88054
7464.24434,0.88447
7462.31559,0.88166
7460.38685,0.87240
7458.45810,0.86866
7456.52936,0.87366
7454.60061,0.87942
7452.67187,0.88133
7450.74312,0.88275
7448.81438,0.88557
7446.88563,0.88383
7444.95689,0.87541
7443.02814,0.86793
7441.09940,0.86536
7439.17065,0.86306
7437.24190,0.86066
7435.31316,0.86252
7433.38441,0.86578
7431.45567,0.86739
7429.52692,0.86853
7427.59818,0.86886
7425.66943,0.86835
7423.74069,0.86580
7421.81194,0.86249
7419.88320,0.86467
7417.95445,0.87225
7416.02571,0.87733
7414.09696,0.87475
7412.16822,0.86687
7410.23947,0.86082
7408.31073,0.86110
7406.38198,0.86327
7404.45323,0.86226
7402.52449,0.86106
7400.59574,0.86242
7398.66700,0.86487
7396.73825,0.86616
7394.80951,0.86270
7392.88076,0.85531
7390.95202,0.85184
7389.02327,0.85374
7387.09453,0.85700
7385.16578,0.86242
7383.23704,0.86687
7381.30829,0.86522
7379.37955,0.86201
7377.45080,0.86112
7375.52205,0.85790
7373.59331,0.84997
7371.66456,0.84597
7369.73582,0.85199
7367.80707,0.85888
7365.87833,0.85817
7363.94958,0.85317
7362.02084,0.84794
7360.09209,0.84461
7358.16335,0.84517
7356.23460,0.84801
7354.30586,0.85070
7352.37711,0.85279
7350.44837,0.85371
7348.51962,0.85422
7346.59088,0.85507
7344.66213,0.85437
7342.73338,0.85058
7340.80464,0.84550
7338.87589,0.84265
7336.94715,0.83978
7335.01840,0.83366
7333.08966,0.83008
7331.16091,0.83148
7329.23217,0.83284
7327.30342,0.83476
7325.37468,0.83868
7323.44593,0.84008
7321.51719,0.83762
7319.58844,0.83697
7317.65970,0.84187
7315.73095,0.84542
7313.80221,0.83973
7311.87346,0.83015
7309.94471,0.82592
7308.01597,0.82781
7306.08722,0.83172
7304.15848,0.83376
7302.22973,0.83349
7300.30099,0.83342
7298.37224,0.83367
7296.44350,0.83310
7294.51475,0.83334
7292.58601,0.83454
7290.65726,0.83289
7288.72852,0.82926
7286.79977,0.82872
7284.87103,0.82993
7282.94228,0.82975
7281.01353,0.83061
7279.08479,0.83217
7277.15604,0.82936
7275.22730,0.82442
7273.29855,0.82474
7271.36981,0.82895
7269.44106,0.83099
7267.51232,0.83019
7265.58357,0.82804
7263.65483,0.82650
7261.72608,0.82832
7259.79734,0.83216
7257.86859,0.83425
7255.93985,0.83408
7254.01110,0.83329
7252.08236,0.83292
7250.15361,0.83200
7248.22486,0.82985
7246.29612,0.82937
7244.36737,0.83123
7242.43863,0.83279
7240.50988,0.83419
7238.58114,0.83540
7236.65239,0.83479
7234.72365,0.83180
7232.79490,0.82710
7230.86616,0.82272
7228.93741,0.82067
7227.00867,0.82255
7225.07992,0.82718
7223.15118,0.82921
7221.22243,0.82774
7219.29369,0.82778
7217.36494,0.82818
7215.43619,0.82402
7213.50745,0.81985
7211.57870,0.82180
7209.64996,0.82436
7207.72121,0.82172
7205.79247,0.81891
7203.86372,0.81984
7201.93498,0.82145
7200.00623,0.82155
7198.07749,0.82138
7196.14874,0.82254
7194.22000,0.82395
7192.29125,0.82457
7190.36251,0.82575
7188.43376,0.82708
7186.50501,0.82746
7184.57627,0.82682
7182.64752,0.82418
7180.71878,0.82010
7178.79003,0.81692
7176.86129,0.81459
7174.93254,0.81192
7173.00380,0.80988
7171.07505,0.81101
7169.14631,0.81444
7167.21756,0.81426
7165.28882,0.80954
7163.36007,0.80597
7161.43133,0.80507
7159.50258,0.80504
7157.57384,0.80587
7155.64509,0.80647
7153.71634,0.80486
7151.78760,0.80336
7149.85885,0.80408
7147.93011,0.80322
7146.00136,0.79940
7144.07262,0.79632
7142.14387,0.79547
7140.21513,0.79603
7138.28638,0.79685
7136.35764,0.79713
7134.42889,0.79594
7132.50015,0.79329
7130.57140,0.79198
7128.64266,0.79279
7126.71391,0.79199
7124.78516,0.78742
7122.85642,0.78258
7120.92767,0.78302
7118.99893,0.78786
7117.07018,0.79068
7115.14144,0.78887
7113.21269,0.78534
7111.28395,0.78327
7109.35520,0.78075
7107.42646,0.77473
7105.49771,0.76949
7103.56897,0.77077
7101.64022,0.77476
7099.71148,0.77394
7097.78273,0.77041
7095.85399,0.76988
7093.92524,0.77074
7091.99649,0.76982
7090.06775,0.76756
7088.13900,0.76575
7086.21026,0.76457
7084.28151,0.76125
7082.35277,0.75672
7080.42402,0.75686
7078.49528,0.76091
7076.56653,0.76161
7074.63779,0.75783
7072.70904,0.75488
7070.78030,0.75455
7068.85155,0.75332
7066.92281,0.75042
7064.99406,0.74865
7063.06532,0.74642
7061.13657,0.74229
7059.20782,0.74041
7057.27908,0.74108
7055.35033,0.74021
7053.42159,0.73800
7051.49284,0.73655
7049.56410,0.73644
7047.63535,0.73769
7045.70661,0.73737
7043.77786,0.73354
7041.84912,0.72848
7039.92037,0.72391
7037.99163,0.72109
7036.06288,0.72094
7034.13414,0.72151
7032.20539,0.72088
7030.27664,0.72011
7028.34790,0.72124
7026.41915,0.72298
7024.49041,0.72234
7022.56166,0.72066
7020.63292,0.72013
7018.70417,0.71833
7016.77543,0.71470
7014.84668,0.71233
7012.91794,0.71125
7010.98919,0.71018
7009.06045,0.70949
7007.13170,0.70935
7005.20296,0.70957
7003.27421,0.70916
7001.34547,0.70859
6999.41672,0.70972
6997.48797,0.71077
6995.55923,0.70849
6993.63048,0.70346
6991.70174,0.69919
6989.77299,0.69856
6987.84425,0.69944
6985.91550,0.69800
6983.98676,0.69651
6982.05801,0.69815
6980.12927,0.70033
6978.20052,0.70090
6976.27178,0.70058
6974.34303,0.69922
6972.41429,0.69737
6970.48554,0.69659
6968.55680,0.69658
6966.62805,0.69529
6964.69930,0.69250
6962.77056,0.68992
6960.84181,0.68804
6958.91307,0.68805
6956.98432,0.69152
6955.05558,0.69546
6953.12683,0.69523
6951.19809,0.69238
6949.26934,0.69153
6947.34060,0.69193
6945.41185,0.69096
6943.48311,0.69008
6941.55436,0.69138
6939.62562,0.69389
6937.69687,0.69563
6935.76812,0.69621
6933.83938,0.69561
6931.91063,0.69451
6929.98189,0.69395
6928.05314,0.69228
6926.12440,0.68915
6924.19565,0.68805
6922.26691,0.68993
6920.33816,0.69188
6918.40942,0.69179
6916.48067,0.68982
6914.55193,0.68793
6912.62318,0.68755
6910.69444,0.68748
6908.76569,0.68685
6906.83695,0.68635
6904.90820,0.68619
6902.97945,0.68619
6901.05071,0.68619
6899.12196,0.68633
6897.19322,0.68680
6895.26447,0.68685
6893.33573,0.68611
6891.40698,0.68537
6889.47824,0.68607
6887.54949,0.68840
6885.62075,0.68961
6883.69200,0.68934
6881.76326,0.69086
6879.83451,0.69364
6877.90577,0.69367
6875.97702,0.69028
6874.04828,0.68740
6872.11953,0.68668
6870.19078,0.68639
6868.26204,0.68697
6866.33329,0.68815
6864.40455,0.68730
6862.47580,0.68453
6860.54706,0.68321
6858.61831,0.68458
6856.68957,0.68620
6854.76082,0.68639
6852.83208,0.68589
6850.90333,0.68717
6848.97459,0.69074
6847.04584,0.69350
6845.11710,0.69315
6843.18835,0.69013
6841.25960,0.68721
6839.33086,0.68707
6837.40211,0.68985
6835.47337,0.69252
6833.54462,0.69135
6831.61588,0.68798
6829.68713,0.68610
6827.75839,0.68559
6825.82964,0.68595
6823.90090,0.68700
6821.97215,0.68746
6820.04341,0.68748
6818.11466,0.68837
6816.18592,0.68983
6814.25717,0.69141
6812.32843,0.69213
6810.39968,0.69016
6808.47093,0.68715
6806.54219,0.68663
6804.61344,0.68835
6802.68470,0.68951
6800.75595,0.68870
6798.82721,0.68721
6796.89846,0.68750
6794.96972,0.68870
6793.04097,0.68860
6791.11223,0.68891
6789.18348,0.69034
6787.25474,0.69002
6785.32599,0.68787
6783.39725,0.68584
6781.46850,0.68468
6779.53975,0.68564
6777.61101,0.68866
6775.68226,0.69075
6773.75352,0.69090
6771.82477,0.69116
6769.89603,0.69096
6767.96728,0.68854
6766.03854,0.68555
6764.10979,0.68455
6762.18105,0.68671
6760.25230,0.69078
6758.32356,0.69315
6756.39481,0.69379
6754.46607,0.69480
6752.53732,0.69476
6750.60858,0.69340
6748.67983,0.69248
6746.75108,0.69158
6744.82234,0.68980
6742.89359,0.68750
6740.96485,0.68586
6739.03610,0.68708
6737.10736,0.69152
6735.17861,0.69439
6733.24987,0.69205
6731.32112,0.68834
6729.39238,0.68808
6727.46363,0.69018
6725.53489,0.69125
6723.60614,0.69116
6721.67740,0.69137
6719.74865,0.69169
6717.81991,0.69181
6715.89116,0.69261
6713.96241,0.69387
6712.03367,0.69379
6710.10492,0.69228
6708.17618,0.69054
6706.24743,0.68904
6704.31869,0.68865
6702.38994,0.68958
6700.46120,0.69109
6698.53245,0.69349
6696.60371,0.69636
6694.67496,0.69825
6692.74622,0.69903
6690.81747,0.69832
6688.88873,0.69693
6686.95998,0.69765
6685.03123,0.69910
6683.10249,0.69895
6681.17374,0.69912
6679.24500,0.69916
6677.31625,0.69754
6675.38751,0.69670
6673.45876,0.69659
6671.53002,0.69501
6669.60127,0.69415
6667.67253,0.69644
6665.74378,0.69937
6663.81504,0.69952
6661.88629,0.69712
6659.95755,0.69458
6658.02880,0.69399
6656.10006,0.69622
6654.17131,0.70049
6652.24256,0.70426
6650.31382,0.70452
6648.38507,0.70236
6646.45633,0.70221
6644.52758,0.70362
6642.59884,0.70303
6640.67009,0.70102
6638.74135,0.69965
6636.81260,0.69871
6634.88386,0.69879
6632.95511,0.70089
6631.02637,0.70331
6629.09762,0.70449
6627.16888,0.70508
6625.24013,0.70499
6623.31139,0.70375
6621.38264,0.70328
6619.45389,0.70529
6617.52515,0.70817
6615.59640,0.70977
6613.66766,0.70986
6611.73891,0.70899
6609.81017,0.70778
6607.88142,0.70721
6605.95268,0.70755
6604.02393,0.70750
6602.09519,0.70719
6600.16644,0.70744
6598.23770,0.70750
6596.30895,0.70774
6594.38021,0.70858
6592.45146,0.70867
6590.52271,0.70803
6588.59397,0.70834
6586.66522,0.71074
6584.73648,0.71302
6582.80773,0.71190
6580.87899,0.70990
6578.95024,0.71063
6577.02150,0.71186
6575.09275,0.71153
6573.16401,0.71076
6571.23526,0.71022
6569.30652,0.70961
6567.37777,0.70931
6565.44903,0.71012
6563.52028,0.71139
6561.59154,0.71140
6559.66279,0.71090
6557.73404,0.71202
6555.80530,0.71302
6553.87655,0.71239
6551.94781,0.71299
6550.01906,0.71460
6548.09032,0.71496
6546.16157,0.71563
6544.23283,0.71737
6542.30408,0.71783
6540.37534,0.71616
6538.44659,0.71543
6536.51785,0.71679
6534.58910,0.71723
6532.66036,0.71687
6530.73161,0.71725
6528.80287,0.71756
6526.87412,0.71780
6524.94537,0.71739
6523.01663,0.71544
6521.08788,0.71374
6519.15914,0.71433
6517.23039,0.71660
6515.30165,0.71850
6513.37290,0.71875
6511.44416,0.71729
6509.51541,0.71558
6507.58667,0.71481
6505.65792,0.71478
6503.72918,0.71574
6501.80043,0.71765
6499.87169,0.71881
6497.94294,0.71855
6496.01419,0.71880
6494.08545,0.71961
6492.15670,0.71938
6490.22796,0.71895
6488.29921,0.71872
6486.37047,0.71797
6484.44172,0.71756
6482.51298,0.71848
6480.58423,0.72040
6478.65549,0.72171
6476.72674,0.72131
6474.79800,0.72043
6472.86925,0.72013
6470.94051,0.71994
6469.01176,0.71966
6467.08302,0.71892
6465.15427,0.71758
6463.22552,0.71763
6461.29678,0.71937
6459.36803,0.71953
6457.43929,0.71807
6455.51054,0.71784
6453.58180,0.71855
6451.65305,0.71901
6449.72431,0.71873
6447.79556,0.71675
6445.86682,0.71466
6443.93807,0.71490
6442.00933,0.71691
6440.08058,0.71946
6438.15184,0.72121
6436.22309,0.72121
6434.29434,0.72094
6432.36560,0.72066
6430.43685,0.71975
6428.50811,0.72020
6426.57936,0.72266
6424.65062,0.72505
6422.72187,0.72587
6420.79313,0.72499
6418.86438,0.72324
6416.93564,0.72115
6415.00689,0.71953
6413.07815,0.71920
6411.14940,0.71913
6409.22066,0.71982
6407.29191,0.72261
6405.36317,0.72482
6403.43442,0.72442
6401.50567,0.72314
6399.57693,0.72192
6397.64818,0.72130
6395.71944,0.72226
6393.79069,0.72347
6391.86195,0.72379
6389.93320,0.72453
6388.00446,0.72505
6386.07571,0.72431
6384.14697,0.72428
6382.21822,0.72523
6380.28948,0.72545
6378.36073,0.72497
6376.43199,0.72462
6374.50324,0.72476
6372.57450,0.72532
6370.64575,0.72663
6368.71700,0.72854
6366.78826,0.73032
6364.85951,0.73168
6362.93077,0.73106
6361.00202,0.72787
6359.07328,0.72458
6357.14453,0.72253
6355.21579,0.72126
6353.28704,0.72161
6351.35830,0.72386
6349.42955,0.72584
6347.50081,0.72632
6345.57206,0.72550
6343.64332,0.72392
6341.71457,0.72334
6339.78582,0.72398
6337.85708,0.72373
6335.92833,0.72303
6333.99959,0.72392
6332.07084,0.72568
6330.14210,0.72645
6328.21335,0.72618
6326.28461,0.72601
6324.35586,0.72643
6322.42712,0.72703
6320.49837,0.72813
6318.56963,0.72985
6316.64088,0.73068
6314.71214,0.72972
6312.78339,0.72812
6310.85465,0.72700
6308.92590,0.72668
6306.99715,0.72759
6305.06841,0.72941
6303.13966,0.73082
6301.21092,0.73109
6299.28217,0.73107
6297.35343,0.73119
6295.42468,0.73035
6293.49594,0.72868
6291.56719,0.72788
6289.63845,0.72837
6287.70970,0.72944
6285.78096,0.73085
6283.85221,0.73210
6281.92347,0.73244
6279.99472,0.73213
6278.06598,0.73202
6276.13723,0.73318
6274.20848,0.73566
6272.27974,0.73733
6270.35099,0.73644
6268.42225,0.73427
6266.49350,0.73336
6264.56476,0.73461
6262.63601,0.73692
6260.70727,0.73831
6258.77852,0.73829
6256.84978,0.73820
6254.92103,0.73851
6252.99229,0.73942
6251.06354,0.74126
6249.13480,0.74332
6247.20605,0.74420
6245.27730,0.74384
6243.34856,0.74371
6241.41981,0.74390
6239.49107,0.74356
6237.56232,0.74304
6235.63358,0.74289
6233.70483,0.74314
6231.77609,0.74419
6229.84734,0.74643
6227.91860,0.74788
6225.98985,0.74719
6224.06111,0.74692
6222.13236,0.74828
6220.20362,0.75006
6218.27487,0.75154
6216.34613,0.75108
6214.41738,0.74845
6212.48863,0.74706
6210.55989,0.74891
6208.63114,0.75221
6206.70240,0.75416
6204.77365,0.75380
6202.84491,0.75251
6200.91616,0.75184
6198.98742,0.75196
6197.05867,0.75228
6195.12993,0.75279
6193.20118,0.75373
6191.27244,0.75429
6189.34369,0.75421
6187.41495,0.75447
6185.48620,0.75493
6183.55746,0.75527
6181.62871,0.75614
6179.69996,0.75696
6177.77122,0.75685
6175.84247,0.75643
6173.91373,0.75671
6171.98498,0.75768
6170.05624,0.75824
6168.12749,0.75861
6166.19875,0.75969
6164.27000,0.76102
6162.34126,0.76228
6160.41251,0.76269
6158.48377,0.76149
6156.55502,0.76098
6154.62628,0.76300
6152.69753,0.76506
6150.76878,0.76461
6148.84004,0.76276
6146.91129,0.76192
6144.98255,0.76275
6143.05380,0.76398
6141.12506,0.76424
6139.19631,0.76332
6137.26757,0.76206
6135.33882,0.76181
6133.41008,0.76316
6131.48133,0.76505
6129.55259,0.76625
6127.62384,0.76708
6125.69510,0.76781
6123.76635,0.76745
6121.83761,0.76626
6119.90886,0.76610
6117.98011,0.76641
6116.05137,0.76564
6114.12262,0.76534
6112.19388,0.76670
6110.26513,0.76779
6108.33639,0.76770
6106.40764,0.76808
6104.47890,0.76995
6102.55015,0.77200
6100.62141,0.77195
6098.69266,0.76932
6096.76392,0.76708
6094.83517,0.76736
6092.90643,0.76839
6090.97768,0.76882
6089.04893,0.76901
6087.12019,0.76847
6085.19144,0.76717
6083.26270,0.76646
6081.33395,0.76692
6079.40521,0.76806
6077.47646,0.76849
6075.54772,0.76765
6073.61897,0.76752
6071.69023,0.76855
6069.76148,0.76872
6067.83274,0.76773
6065.90399,0.76731
6063.97525,0.76819
6062.04650,0.76895
6060.11776,0.76836
6058.18901,0.76704
6056.26026,0.76623
6054.33152,0.76600
6052.40277,0.76584
6050.47403,0.76565
6048.54528,0.76515
6046.61654,0.76425
6044.68779,0.76397
6042.75905,0.76510
6040.83030,0.76613
6038.90156,0.76534
6036.97281,0.76355
6035.04407,0.76212
6033.11532,0.76154
6031.18658,0.76118
6029.25783,0.76021
6027.32909,0.75927
6025.40034,0.75958
6023.47159,0.76032
6021.54285,0.75939
6019.61410,0.75804
6017.68536,0.75831
6015.75661,0.75827
6013.82787,0.75619
6011.89912,0.75355
6009.97038,0.75288
6008.04163,0.75407
6006.11289,0.75395
6004.18414,0.75216
6002.25540,0.75078
6000.32665,0.74984
5998.39791,0.74920
5996.46916,0.74923
5994.54041,0.75012
5992.61167,0.75167
5990.68292,0.75185
5988.75418,0.74994
5986.82543,0.74762
5984.89669,0.74559
5982.96794,0.74428
5981.03920,0.74403
5979.11045,0.74441
5977.18171,0.74469
5975.25296,0.74468
5973.32422,0.74527
5971.39547,0.74620
5969.46673,0.74654
5967.53798,0.74672
5965.60924,0.74661
5963.68049,0.74636
5961.75174,0.74664
5959.82300,0.74582
5957.89425,0.74345
5955.96551,0.74237
5954.03676,0.74354
5952.10802,0.74523
5950.17927,0.74608
5948.25053,0.74560
5946.32178,0.74396
5944.39304,0.74267
5942.46429,0.74327
5940.53555,0.74509
5938.60680,0.74634
5936.67806,0.74613
5934.74931,0.74497
5932.82057,0.74384
5930.89182,0.74314
5928.96307,0.74318
5927.03433,0.74344
5925.10558,0.74314
5923.17684,0.74296
5921.24809,0.74295
5919.31935,0.74260
5917.39060,0.74234
5915.46186,0.74247
5913.53311,0.74295
5911.60437,0.74305
5909.67562,0.74190
5907.74688,0.74027
5905.81813,0.73986
5903.88939,0.74073
5901.96064,0.74096
5900.03189,0.73961
5898.10315,0.73845
5896.17440,0.73898
5894.24566,0.74000
5892.31691,0.73993
5890.38817,0.73927
5888.45942,0.73884
5886.53068,0.73824
5884.60193,0.73773
5882.67319,0.73791
5880.74444,0.73807
5878.81570,0.73757
5876.88695,0.73725
5874.95821,0.73774
5873.02946,0.73837
5871.10072,0.73873
5869.17197,0.73906
5867.24322,0.73886
5865.31448,0.73789
5863.38573,0.73707
5861.45699,0.73699
5859.52824,0.73750
5857.59950,0.73822
5855.67075,0.73850
5853.74201,0.73871
5851.81326,0.73892
5849.88452,0.73791
5847.95577,0.73630
5846.02703,0.73593
5844.09828,0.73718
5842.16954,0.73942
5840.24079,0.74085
5838.31205,0.73994
5836.38330,0.73796
5834.45455,0.73764
5832.52581,0.73949
5830.59706,0.74061
5828.66832,0.73946
5826.73957,0.73802
5824.81083,0.73747
5822.88208,0.73718
5820.95334,0.73690
5819.02459,0.73736
5817.09585,0.73816
5815.16710,0.73779
5813.23836,0.73695
5811.30961,0.73668
5809.38087,0.73586
5807.45212,0.73474
5805.52337,0.73491
5803.59463,0.73610
5801.66588,0.73742
5799.73714,0.73838
5797.80839,0.73807
5795.87965,0.73674
5793.95090,0.73592
5792.02216,0.73633
5790.09341,0.73661
5788.16467,0.73538
5786.23592,0.73408
5784.30718,0.73413
5782.37843,0.73483
5780.44969,0.73603
5778.52094,0.73777
5776.59220,0.73855
5774.66345,0.73809
5772.73470,0.73825
5770.80596,0.73902
5768.87721,0.73868
5766.94847,0.73763
5765.01972,0.73717
5763.09098,0.73749
5761.16223,0.73867
5759.23349,0.74027
5757.30474,0.74095
5755.37600,0.74029
5753.44725,0.73948
5751.51851,0.73977
5749.58976,0.74099
5747.66102,0.74152
5745.73227,0.74038
5743.80352,0.73914
5741.87478,0.73927
5739.94603,0.73940
5738.01729,0.73873
5736.08854,0.73877
5734.15980,0.73992
5732.23105,0.74090
5730.30231,0.74099
5728.37356,0.74079
5726.44482,0.74075
5724.51607,0.74043
5722.58733,0.74009
5720.65858,0.74043
5718.72984,0.74062
5716.80109,0.73997
5714.87235,0.73965
5712.94360,0.74005
5711.01485,0.74043
5709.08611,0.74089
5707.15736,0.74127
5705.22862,0.74093
5703.29987,0.74024
5701.37113,0.73984
5699.44238,0.73955
5697.51364,0.73923
5695.58489,0.73918
5693.65615,0.73924
5691.72740,0.73917
5689.79866,0.73918
5687.86991,0.73942
5685.94117,0.73959
5684.01242,0.73951
5682.08368,0.73951
5680.15493,0.73986
5678.22618,0.74044
5676.29744,0.74051
5674.36869,0.73948
5672.43995,0.73821
5670.51120,0.73791
5668.58246,0.73883
5666.65371,0.74032
5664.72497,0.74104
5662.79622,0.74008
5660.86748,0.73875
5658.93873,0.73889
5657.00999,0.73954
5655.08124,0.73941
5653.15250,0.73910
5651.22375,0.73848
5649.29500,0.73736
5647.36626,0.73685
5645.43751,0.73762
5643.50877,0.73906
5641.58002,0.73987
5639.65128,0.73974
5637.72253,0.73988
5635.79379,0.74034
5633.86504,0.74011
5631.93630,0.73952
5630.00755,0.73929
5628.07881,0.73953
5626.15006,0.74014
5624.22132,0.74009
5622.29257,0.73927
5620.36383,0.73889
5618.43508,0.73862
5616.50633,0.73820
5614.57759,0.73818
5612.64884,0.73806
5610.72010,0.73755
5608.79135,0.73717
5606.86261,0.73740
5604.93386,0.73837
5603.00512,0.73970
5601.07637,0.74058
5599.14763,0.74054
5597.21888,0.73985
5595.29014,0.73909
5593.36139,0.73877
5591.43265,0.73893
5589.50390,0.73933
5587.57516,0.73975
5585.64641,0.73995
5583.71766,0.74011
5581.78892,0.74060
5579.86017,0.74123
5577.93143,0.74143
5576.00268,0.74124
5574.07394,0.74157
5572.14519,0.74248
5570.21645,0.74290
5568.28770,0.74255
5566.35896,0.74207
5564.43021,0.74184
5562.50147,0.74212
5560.57272,0.74248
5558.64398,0.74220
5556.71523,0.74204
5554.78648,0.74273
5552.85774,0.74342
5550.92899,0.74364
5549.00025,0.74387
5547.07150,0.74412
5545.14276,0.74406
5543.21401,0.74421
5541.28527,0.74490
5539.35652,0.74528
5537.42778,0.74450
5535.49903,0.74315
5533.57029,0.74233
5531.64154,0.74212
5529.71280,0.74255
5527.78405,0.74426
5525.85531,0.74628
5523.92656,0.74688
5521.99781,0.74635
5520.06907,0.74592
5518.14032,0.74614
5516.21158,0.74678
5514.28283,0.74697
5512.35409,0.74635
5510.42534,0.74561
5508.49660,0.74556
5506.56785,0.74614
5504.63911,0.74645
5502.71036,0.74620
5500.78162,0.74592
5498.85287,0.74573
5496.92413,0.74582
5494.99538,0.74631
5493.06664,0.74631
5491.13789,0.74528
5489.20914,0.74433
5487.28040,0.74459
5485.35165,0.74547
5483.42291,0.74657
5481.49416,0.74780
5479.56542,0.74807
5477.63667,0.74741
5475.70793,0.74720
5473.77918,0.74774
5471.85044,0.74829
5469.92169,0.74830
5467.99295,0.74797
5466.06420,0.74849
5464.13546,0.75029
5462.20671,0.75181
5460.27796,0.75195
5458.34922,0.75150
5456.42047,0.75107
5454.49173,0.75061
5452.56298,0.75039
5450.63424,0.75044
5448.70549,0.75042
5446.77675,0.75056
5444.84800,0.75124
5442.91926,0.75226
5440.99051,0.75295
5439.06177,0.75279
5437.13302,0.75242
5435.20428,0.75278
5433.27553,0.75331
5431.34679,0.75303
5429.41804,0.75275
5427.48929,0.75363
5425.56055,0.75505
5423.63180,0.75625
5421.70306,0.75701
5419.77431,0.75752
5417.84557,0.75805
5415.91682,0.75817
5413.98808,0.75798
5412.05933,0.75812
5410.13059,0.75821
5408.20184,0.75754
5406.27310,0.75686
5404.34435,0.75723
5402.41561,0.75801
5400.48686,0.75844
5398.55811,0.75871
5396.62937,0.75886
5394.70062,0.75918
5392.77188,0.75983
5390.84313,0.76010
5388.91439,0.75981
5386.98564,0.75964
5385.05690,0.75965
5383.12815,0.75942
5381.19941,0.75885
5379.27066,0.75847
5377.34192,0.75911
5375.41317,0.76026
5373.48443,0.76021
5371.55568,0.75893
5369.62694,0.75832
5367.69819,0.75897
5365.76944,0.75961
5363.84070,0.75972
5361.91195,0.75951
5359.98321,0.75946
5358.05446,0.75996
5356.12572,0.75998
5354.19697,0.75896
5352.26823,0.75810
5350.33948,0.75766
5348.41074,0.75721
5346.48199,0.75729
5344.55325,0.75772
5342.62450,0.75757
5340.69576,0.75678
5338.76701,0.75598
5336.83827,0.75541
5334.90952,0.75477
5332.98077,0.75382
5331.05203,0.75256
5329.12328,0.75136
5327.19454,0.75061
5325.26579,0.75019
5323.33705,0.74960
5321.40830,0.74837
5319.47956,0.74709
5317.55081,0.74647
5315.62207,0.74572
5313.69332,0.74420
5311.76458,0.74250
5309.83583,0.74082
5307.90709,0.73900
5305.97834,0.73728
5304.04959,0.73566
5302.12085,0.73405
5300.19210,0.73251
5298.26336,0.73022
5296.33461,0.72689
5294.40587,0.72414
5292.47712,0.72290
5290.54838,0.72138
5288.61963,0.71819
5286.69089,0.71442
5284.76214,0.71116
5282.83340,0.70832
5280.90465,0.70588
5278.97591,0.70398
5277.04716,0.70196
5275.11842,0.69916
5273.18967,0.69617
5271.26092,0.69306
5269.33218,0.68884
5267.40343,0.68417
5265.47469,0.68061
5263.54594,0.67794
5261.61720,0.67509
5259.68845,0.67225
5257.75971,0.67003
5255.83096,0.66789
5253.90222,0.66473
5251.97347,0.66050
5250.04473,0.65647
5248.11598,0.65382
5246.18724,0.65206
5244.25849,0.64993
5242.32975,0.64741
5240.40100,0.64486
5238.47225,0.64271
5236.54351,0.64128
5234.61476,0.63966
5232.68602,0.63731
5230.75727,0.63489
5228.82853,0.63303
5226.89978,0.63224
5224.97104,0.63194
5223.04229,0.63070
5221.11355,0.62882
5219.18480,0.62756
5217.25606,0.62713
5215.32731,0.62671
5213.39857,0.62568
5211.46982,0.62468
5209.54107,0.62436
5207.61233,0.62416
5205.68358,0.62342
5203.75484,0.62238
5201.82609,0.62155
5199.89735,0.62099
5197.96860,0.62093
5196.03986,0.62133
5194.11111,0.62141
5192.18237,0.62137
5190.25362,0.62190
5188.32488,0.62244
5186.39613,0.62208
5184.46739,0.62113
5182.53864,0.62080
5180.60990,0.62155
5178.68115,0.62255
5176.75240,0.62293
5174.82366,0.62326
5172.89491,0.62413
5170.96617,0.62492
5169.03742,0.62563
5167.10868,0.62676
5165.17993,0.62783
5163.25119,0.62830
5161.32244,0.62854
5159.39370,0.62902
5157.46495,0.62959
5155.53621,0.63025
5153.60746,0.63124
5151.67872,0.63215
5149.74997,0.63260
5147.82123,0.63295
5145.89248,0.63371
5143.96373,0.63479
5142.03499,0.63587
5140.10624,0.63727
5138.17750,0.63891
5136.24875,0.63982
5134.32001,0.64010
5132.39126,0.64068
5130.46252,0.64183
5128.53377,0.64303
5126.60503,0.64388
5124.67628,0.64489
5122.74754,0.64636
5120.81879,0.64759
5118.89005,0.64824
5116.96130,0.64886
5115.03255,0.64952
5113.10381,0.65001
5111.17506,0.65084
5109.24632,0.65217
5107.31757,0.65305
5105.38883,0.65330
5103.46008,0.65383
5101.53134,0.65486
5099.60259,0.65600
5097.67385,0.65699
5095.74510,0.65764
5093.81636,0.65829
5091.88761,0.65925
5089.95887,0.66015
5088.03012,0.66085
5086.10138,0.66137
5084.17263,0.66192
5082.24388,0.66317
5080.31514,0.66444
5078.38639,0.66455
5076.45765,0.66436
5074.52890,0.66491
5072.60016,0.66624
5070.67141,0.66794
5068.74267,0.66946
5066.81392,0.67101
5064.88518,0.67255
5062.95643,0.67308
5061.02769,0.67265
5059.09894,0.67251
5057.17020,0.67321
5055.24145,0.67420
5053.31270,0.67486
5051.38396,0.67508
5049.45521,0.67524
5047.52647,0.67570
5045.59772,0.67659
5043.66898,0.67742
5041.74023,0.67792
5039.81149,0.67879
5037.88274,0.68003
5035.95400,0.68082
5034.02525,0.68097
5032.09651,0.68093
5030.16776,0.68137
5028.23902,0.68218
5026.31027,0.68237
5024.38153,0.68228
5022.45278,0.68296
5020.52403,0.68368
5018.59529,0.68360
5016.66654,0.68332
5014.73780,0.68347
5012.80905,0.68379
5010.88031,0.68395
5008.95156,0.68413
5007.02282,0.68435
5005.09407,0.68428
5003.16533,0.68435
5001.23658,0.68481
4999.30784,0.68505
4997.37909,0.68505
4995.45035,0.68488
4993.52160,0.68414
4991.59286,0.68329
4989.66411,0.68290
4987.73536,0.68258
4985.80662,0.68230
4983.87787,0.68224
4981.94913,0.68156
4980.02038,0.68025
4978.09164,0.67956
4976.16289,0.67936
4974.23415,0.67884
4972.30540,0.67811
4970.37666,0.67722
4968.44791,0.67634
4966.51917,0.67560
4964.59042,0.67459
4962.66168,0.67353
4960.73293,0.67277
4958.80418,0.67183
4956.87544,0.67045
4954.94669,0.66884
4953.01795,0.66736
4951.08920,0.66650
4949.16046,0.66594
4947.23171,0.66471
4945.30297,0.66297
4943.37422,0.66132
4941.44548,0.65949
4939.51673,0.65772
4937.58799,0.65645
4935.65924,0.65532
4933.73050,0.65399
4931.80175,0.65208
4929.87301,0.64938
4927.94426,0.64674
4926.01551,0.64485
4924.08677,0.64338
4922.15802,0.64198
4920.22928,0.64062
4918.30053,0.63941
4916.37179,0.63852
4914.44304,0.63733
4912.51430,0.63530
4910.58555,0.63325
4908.65681,0.63162
4906.72806,0.62965
4904.79932,0.62727
4902.87057,0.62543
4900.94183,0.62434
4899.01308,0.62318
4897.08434,0.62152
4895.15559,0.61964
4893.22684,0.61780
4891.29810,0.61601
4889.36935,0.61426
4887.44061,0.61276
4885.51186,0.61165
4883.58312,0.61042
4881.65437,0.60860
4879.72563,0.60663
4877.79688,0.60490
4875.86814,0.60348
4873.93939,0.60266
4872.01065,0.60226
4870.08190,0.60130
4868.15316,0.59919
4866.22441,0.59660
4864.29566,0.59450
4862.36692,0.59323
4860.43817,0.59267
4858.50943,0.59217
4856.58068,0.59117
4854.65194,0.58996
4852.72319,0.58893
4850.79445,0.58774
4848.86570,0.58619
4846.93696,0.58476
4845.00821,0.58335
4843.07947,0.58170
4841.15072,0.58033
4839.22198,0.57941
4837.29323,0.57833
4835.36449,0.57706
4833.43574,0.57605
4831.50699,0.57521
4829.57825,0.57427
4827.64950,0.57344
4825.72076,0.57287
4823.79201,0.57228
4821.86327,0.57125
4819.93452,0.56992
4818.00578,0.56872
4816.07703,0.56799
4814.14829,0.56754
4812.21954,0.56694
4810.29080,0.56631
4808.36205,0.56568
4806.43331,0.56480
4804.50456,0.56406
4802.57582,0.56369
4800.64707,0.56336
4798.71832,0.56307
4796.78958,0.56292
4794.86083,0.56286
4792.93209,0.56283
4791.00334,0.56259
4789.07460,0.56180
4787.14585,0.56085
4785.21711,0.56075
4783.28836,0.56126
4781.35962,0.56121
4779.43087,0.56038
4777.50213,0.55931
4775.57338,0.55869
4773.64464,0.55860
4771.71589,0.55860
4769.78714,0.55845
4767.85840,0.55810
4765.92965,0.55764
4764.00091,0.55755
4762.07216,0.55787
4760.14342,0.55780
4758.21467,0.55725
4756.28593,0.55715
4754.35718,0.55756
4752.42844,0.55779
4750.49969,0.55803
4748.57095,0.55841
4746.64220,0.55847
4744.71346,0.55829
4742.78471,0.55835
4740.85597,0.55894
4738.92722,0.55963
4736.99847,0.55943
4735.06973,0.55864
4733.14098,0.55849
4731.21224,0.55903
4729.28349,0.55940
4727.35475,0.55910
4725.42600,0.55876
4723.49726,0.55909
4721.56851,0.55958
4719.63977,0.55962
4717.71102,0.55964
4715.78228,0.56023
4713.85353,0.56111
4711.92479,0.56150
4709.99604,0.56128
4708.06729,0.56126
4706.13855,0.56174
4704.20980,0.56211
4702.28106,0.56200
4700.35231,0.56195
4698.42357,0.56229
4696.49482,0.56242
4694.56608,0.56219
4692.63733,0.56240
4690.70859,0.56322
4688.77984,0.56368
4686.85110,0.56353
4684.92235,0.56370
4682.99361,0.56457
4681.06486,0.56567
4679.13612,0.56630
4677.20737,0.56609
4675.27862,0.56590
4673.34988,0.56677
4671.42113,0.56805
4669.49239,0.56883
4667.56364,0.56931
4665.63490,0.56985
4663.70615,0.57055
4661.77741,0.57139
4659.84866,0.57230
4657.91992,0.57313
4655.99117,0.57377
4654.06243,0.57435
4652.13368,0.57489
4650.20494,0.57544
4648.27619,0.57620
4646.34745,0.57695
4644.41870,0.57745
4642.48995,0.57774
4640.56121,0.57810
4638.63246,0.57890
4636.70372,0.57960
4634.77497,0.57976
4632.84623,0.58030
4630.91748,0.58164
4628.98874,0.58299
4627.05999,0.58383
4625.13125,0.58439
4623.20250,0.58517
4621.27376,0.58644
4619.34501,0.58780
4617.41627,0.58902
4615.48752,0.59039
4613.55877,0.59157
4611.63003,0.59227
4609.70128,0.59311
4607.77254,0.59420
4605.84379,0.59518
4603.91505,0.59600
4601.98630,0.59670
4600.05756,0.59754
4598.12881,0.59868
4596.20007,0.59975
4594.27132,0.60049
4592.34258,0.60133
4590.41383,0.60256
4588.48509,0.60361
4586.55634,0.60413
4584.62760,0.60450
4582.69885,0.60493
4580.77010,0.60536
4578.84136,0.60598
4576.91261,0.60695
4574.98387,0.60812
4573.05512,0.60901
4571.12638,0.60939
4569.19763,0.60977
4567.26889,0.61026
4565.34014,0.61065
4563.41140,0.61106
4561.48265,0.61152
4559.55391,0.61213
4557.62516,0.61279
4555.69642,0.61303
4553.76767,0.61304
4551.83893,0.61323
4549.91018,0.61357
4547.98143,0.61423
4546.05269,0.61510
4544.12394,0.61542
4542.19520,0.61526
4540.26645,0.61542
4538.33771,0.61580
4536.40896,0.61602
4534.48022,0.61627
4532.55147,0.61672
4530.62273,0.61721
4528.69398,0.61763
4526.76524,0.61794
4524.83649,0.61800
4522.90775,0.61809
4520.97900,0.61839
4519.05025,0.61835
4517.12151,0.61781
4515.19276,0.61745
4513.26402,0.61749
4511.33527,0.61737
4509.40653,0.61683
4507.47778,0.61626
4505.54904,0.61567
4503.62029,0.61473
4501.69155,0.61373
4499.76280,0.61315
4497.83406,0.61280
4495.90531,0.61241
4493.97657,0.61202
4492.04782,0.61137
4490.11908,0.61010
4488.19033,0.60828
4486.26158,0.60644
4484.33284,0.60480
4482.40409,0.60306
4480.47535,0.60128
4478.54660,0.59964
4476.61786,0.59793
4474.68911,0.59619
4472.76037,0.59440
4470.83162,0.59231
4468.90288,0.59014
4466.97413,0.58813
4465.04539,0.58617
4463.11664,0.58417
4461.18790,0.58183
4459.25915,0.57915
4457.33041,0.57678
4455.40166,0.57512
4453.47291,0.57370
4451.54417,0.57159
4449.61542,0.56893
4447.68668,0.56643
4445.75793,0.56398
4443.82919,0.56163
4441.90044,0.55982
4439.97170,0.55818
4438.04295,0.55613
4436.11421,0.55372
4434.18546,0.55106
4432.25672,0.54814
4430.32797,0.54547
4428.39923,0.54333
4426.47048,0.54129
4424.54173,0.53912
4422.61299,0.53674
4420.68424,0.53424
4418.75550,0.53191
4416.82675,0.52972
4414.89801,0.52756
4412.96926,0.52566
4411.04052,0.52393
4409.11177,0.52212
4407.18303,0.52075
4405.25428,0.52024
4403.32554,0.51994
4401.39679,0.51951
4399.46805,0.51925
4397.53930,0.51914
4395.61056,0.51903
4393.68181,0.51904
4391.75306,0.51927
4389.82432,0.51951
4387.89557,0.51969
4385.96683,0.52007
4384.03808,0.52075
4382.10934,0.52163
4380.18059,0.52254
4378.25185,0.52337
4376.32310,0.52398
4374.39436,0.52448
4372.46561,0.52532
4370.53687,0.52650
4368.60812,0.52760
4366.67938,0.52838
4364.75063,0.52898
4362.82189,0.52964
4360.89314,0.53029
4358.96439,0.53056
4357.03565,0.53039
4355.10690,0.53014
4353.17816,0.53006
4351.24941,0.53019
4349.32067,0.53021
4347.39192,0.53004
4345.46318,0.53009
4343.53443,0.53014
4341.60569,0.52971
4339.67694,0.52926
4337.74820,0.52898
4335.81945,0.52833
4333.89071,0.52755
4331.96196,0.52729
4330.03321,0.52727
4328.10447,0.52669
4326.17572,0.52547
4324.24698,0.52417
4322.31823,0.52325
4320.38949,0.52274
4318.46074,0.52240
4316.53200,0.52196
4314.60325,0.52148
4312.67451,0.52110
4310.74576,0.52067
4308.81702,0.52003
4306.88827,0.51932
4304.95953,0.51867
4303.03078,0.51785
4301.10204,0.51689
4299.17329,0.51596
4297.24454,0.51526
4295.31580,0.51481
4293.38705,0.51422
4291.45831,0.51342
4289.52956,0.51284
4287.60082,0.51255
4285.67207,0.51231
4283.74333,0.51209
4281.81458,0.51190
4279.88584,0.51163
4277.95709,0.51147
4276.02835,0.51171
4274.09960,0.51231
4272.17086,0.51300
4270.24211,0.51350
4268.31336,0.51371
4266.38462,0.51376
4264.45587,0.51410
4262.52713,0.51492
4260.59838,0.51582
4258.66964,0.51649
4256.74089,0.51700
4254.81215,0.51745
4252.88340,0.51796
4250.95466,0.51844
4249.02591,0.51854
4247.09717,0.51837
4245.16842,0.51854
4243.23968,0.51912
4241.31093,0.51957
4239.38219,0.51962
4237.45344,0.51969
4235.52469,0.52007
4233.59595,0.52029
4231.66720,0.52006
4229.73846,0.51976
4227.80971,0.51971
4225.88097,0.51981
4223.95222,0.51985
4222.02348,0.51982
4220.09473,0.51988
4218.16599,0.52017
4216.23724,0.52045
4214.30850,0.52039
4212.37975,0.52020
4210.45101,0.52025
4208.52226,0.52036
4206.59352,0.52028
4204.66477,0.52022
4202.73602,0.52044
4200.80728,0.52084
4198.87853,0.52114
4196.94979,0.52138
4195.02104,0.52165
4193.09230,0.52165
4191.16355,0.52153
4189.23481,0.52182
4187.30606,0.52242
4185.37732,0.52284
4183.44857,0.52299
4181.51983,0.52303
4179.59108,0.52315
4177.66234,0.52365
4175.73359,0.52455
4173.80484,0.52534
4171.87610,0.52582
4169.94735,0.52630
4168.01861,0.52693
4166.08986,0.52768
4164.16112,0.52830
4162.23237,0.52855
4160.30363,0.52851
4158.37488,0.52832
4156.44614,0.52806
4154.51739,0.52781
4152.58865,0.52755
4150.65990,0.52737
4148.73116,0.52714
4146.80241,0.52659
4144.87367,0.52587
4142.94492,0.52520
4141.01617,0.52451
4139.08743,0.52385
4137.15868,0.52333
4135.22994,0.52263
4133.30119,0.52158
4131.37245,0.52045
4129.44370,0.51944
4127.51496,0.51819
4125.58621,0.51645
4123.65747,0.51497
4121.72872,0.51400
4119.79998,0.51286
4117.87123,0.51137
4115.94249,0.51003
4114.01374,0.50900
4112.08500,0.50791
4110.15625,0.50638
4108.22750,0.50466
4106.29876,0.50312
4104.37001,0.50169
4102.44127,0.50012
4100.51252,0.49832
4098.58378,0.49649
4096.65503,0.49488
4094.72629,0.49339
4092.79754,0.49180
4090.86880,0.48999
4088.94005,0.48797
4087.01131,0.48589
4085.08256,0.48398
4083.15382,0.48237
4081.22507,0.48076
4079.29632,0.47891
4077.36758,0.47721
4075.43883,0.47569
4073.51009,0.47395
4071.58134,0.47198
4069.65260,0.47001
4067.72385,0.46809
4065.79511,0.46623
4063.86636,0.46441
4061.93762,0.46235
4060.00887,0.46026
4058.08013,0.45846
4056.15138,0.45674
4054.22264,0.45500
4052.29389,0.45330
4050.36515,0.45168
4048.43640,0.45018
4046.50765,0.44867
4044.57891,0.44710
4042.65016,0.44574
4040.72142,0.44459
4038.79267,0.44339
4036.86393,0.44215
4034.93518,0.44105
4033.00644,0.43993
4031.07769,0.43862
4029.14895,0.43751
4027.22020,0.43690
4025.29146,0.43646
4023.36271,0.43583
4021.43397,0.43503
4019.50522,0.43428
4017.57648,0.43382
4015.64773,0.43364
4013.71898,0.43360
4011.79024,0.43357
4009.86149,0.43344
4007.93275,0.43339
4006.00400,0.43355
4004.07526,0.43376
4002.14651,0.43400
4000.21777,0.43435
3998.28902,0.43477
3996.36028,0.43526
3994.43153,0.43568
3992.50279,0.43597
3990.57404,0.43650
3988.64530,0.43726
3986.71655,0.43790
3984.78780,0.43846
3982.85906,0.43916
3980.93031,0.43971
3979.00157,0.43997
3977.07282,0.44056
3975.14408,0.44155
3973.21533,0.44239
3971.28659,0.44318
3969.35784,0.44415
3967.42910,0.44491
3965.50035,0.44526
3963.57161,0.44565
3961.64286,0.44629
3959.71412,0.44702
3957.78537,0.44790
3955.85663,0.44894
3953.92788,0.44985
3951.99913,0.45079
3950.07039,0.45207
3948.14164,0.45333
3946.21290,0.45409
3944.28415,0.45462
3942.35541,0.45550
3940.42666,0.45671
3938.49792,0.45789
3936.56917,0.45905
3934.64043,0.46033
3932.71168,0.46165
3930.78294,0.46282
3928.85419,0.46350
3926.92545,0.46392
3924.99670,0.46470
3923.06795,0.46582
3921.13921,0.46691
3919.21046,0.46794
3917.28172,0.46898
3915.35297,0.46993
3913.42423,0.47055
3911.49548,0.47105
3909.56674,0.47190
3907.63799,0.47298
3905.70925,0.47407
3903.78050,0.47512
3901.85176,0.47605
3899.92301,0.47677
3897.99427,0.47728
3896.06552,0.47782
3894.13678,0.47870
3892.20803,0.47991
3890.27928,0.48102
3888.35054,0.48182
3886.42179,0.48248
3884.49305,0.48306
3882.56430,0.48367
3880.63556,0.48412
3878.70681,0.48416
3876.77807,0.48432
3874.84932,0.48488
3872.92058,0.48560
3870.99183,0.48664
3869.06309,0.48783
3867.13434,0.48859
3865.20560,0.48934
3863.27685,0.49051
3861.34811,0.49173
3859.41936,0.49286
3857.49061,0.49392
3855.56187,0.49502
3853.63312,0.49611
3851.70438,0.49678
3849.77563,0.49734
3847.84689,0.49823
3845.91814,0.49917
3843.98940,0.49991
3842.06065,0.50066
3840.13191,0.50162
3838.20316,0.50260
3836.27442,0.50342
3834.34567,0.50400
3832.41693,0.50429
3830.48818,0.50437
3828.55943,0.50445
3826.63069,0.50447
3824.70194,0.50431
3822.77320,0.50418
3820.84445,0.50431
3818.91571,0.50471
3816.98696,0.50530
3815.05822,0.50577
3813.12947,0.50571
3811.20073,0.50528
3809.27198,0.50513
3807.34324,0.50554
3805.41449,0.50592
3803.48575,0.50586
3801.55700,0.50573
3799.62826,0.50568
3797.69951,0.50558
3795.77076,0.50548
3793.84202,0.50540
3791.91327,0.50516
3789.98453,0.50485
3788.05578,0.50468
3786.12704,0.50453
3784.19829,0.50429
3782.26955,0.50399
3780.34080,0.50360
3778.41206,0.50320
3776.48331,0.50309
3774.55457,0.50326
3772.62582,0.50318
3770.69708,0.50272
3768.76833,0.50237
3766.83959,0.50223
3764.91084,0.50193
3762.98209,0.50129
3761.05335,0.50055
3759.12460,0.49998
3757.19586,0.49962
3755.26711,0.49935
3753.33837,0.49892
3751.40962,0.49792
3749.48088,0.49661
3747.55213,0.49596
3745.62339,0.49571
3743.69464,0.49496
3741.76590,0.49371
3739.83715,0.49237
3737.90841,0.49112
3735.97966,0.49002
3734.05091,0.48885
3732.12217,0.48734
3730.19342,0.48564
3728.26468,0.48407
3726.33593,0.48266
3724.40719,0.48130
3722.47844,0.47984
3720.54970,0.47799
3718.62095,0.47576
3716.69221,0.47367
3714.76346,0.47191
3712.83472,0.46996
3710.90597,0.46747
3708.97723,0.46467
3707.04848,0.46190
3705.11974,0.45918
3703.19099,0.45610
3701.26224,0.45254
3699.33350,0.44899
3697.40475,0.44541
3695.47601,0.44155
3693.54726,0.43757
3691.61852,0.43353
3689.68977,0.42906
3687.76103,0.42395
3685.83228,0.41849
3683.90354,0.41271
3681.97479,0.40647
3680.04605,0.40020
3678.11730,0.39419
3676.18856,0.38770
3674.25981,0.38053
3672.33107,0.37356
3670.40232,0.36659
3668.47357,0.35932
3666.54483,0.35216
3664.61608,0.34506
3662.68734,0.33806
3660.75859,0.33124
3658.82985,0.32449
3656.90110,0.31773
3654.97236,0.31125
3653.04361,0.30529
3651.11487,0.29909
3649.18612,0.29233
3647.25738,0.28598
3645.32863,0.28040
3643.39989,0.27508
3641.47114,0.26963
3639.54239,0.26402
3637.61365,0.25863
3635.68490,0.25358
3633.75616,0.24882
3631.82741,0.24435
3629.89867,0.23971
3627.96992,0.23455
3626.04118,0.22959
3624.11243,0.22509
3622.18369,0.22065
3620.25494,0.21607
3618.32620,0.21146
3616.39745,0.20694
3614.46871,0.20248
3612.53996,0.19805
3610.61122,0.19361
3608.68247,0.18906
3606.75372,0.18475
3604.82498,0.18073
3602.89623,0.17653
3600.96749,0.17212
3599.03874,0.16805
3597.11000,0.16449
3595.18125,0.16104
3593.25251,0.15733
3591.32376,0.15338
3589.39502,0.14951
3587.46627,0.14606
3585.53753,0.14302
3583.60878,0.14022
3581.68004,0.13758
3579.75129,0.13489
3577.82254,0.13210
3575.89380,0.12928
3573.96505,0.12640
3572.03631,0.12391
3570.10756,0.12209
3568.17882,0.12027
3566.25007,0.11800
3564.32133,0.11570
3562.39258,0.11373
3560.46384,0.11206
3558.53509,0.11049
3556.60635,0.10891
3554.67760,0.10734
3552.74886,0.10583
3550.82011,0.10423
3548.89137,0.10241
3546.96262,0.10072
3545.03387,0.09932
3543.10513,0.09796
3541.17638,0.09660
3539.24764,0.09530
3537.31889,0.09408
3535.39015,0.09301
3533.46140,0.09199
3531.53266,0.09082
3529.60391,0.08968
3527.67517,0.08868
3525.74642,0.08767
3523.81768,0.08671
3521.88893,0.08592
3519.96019,0.08528
3518.03144,0.08444
3516.10270,0.08322
3514.17395,0.08192
3512.24520,0.08091
3510.31646,0.08025
3508.38771,0.07974
3506.45897,0.07925
3504.53022,0.07866
3502.60148,0.07783
3500.67273,0.07685
3498.74399,0.07593
3496.81524,0.07512
3494.88650,0.07446
3492.95775,0.07402
3491.02901,0.07372
3489.10026,0.07339
3487.17152,0.07299
3485.24277,0.07246
3483.31402,0.07178
3481.38528,0.07109
3479.45653,0.07060
3477.52779,0.07038
3475.59904,0.07030
3473.67030,0.07004
3471.74155,0.06947
3469.81281,0.06882
3467.88406,0.06841
3465.95532,0.06828
3464.02657,0.06805
3462.09783,0.06762
3460.16908,0.06729
3458.24034,0.06726
3456.31159,0.06737
3454.38285,0.06733
3452.45410,0.06702
3450.52535,0.06671
3448.59661,0.06666
3446.66786,0.06663
3444.73912,0.06631
3442.81037,0.06596
3440.88163,0.06588
3438.95288,0.06600
3437.02414,0.06612
3435.09539,0.06620
3433.16665,0.06627
3431.23790,0.06638
3429.30916,0.06649
3427.38041,0.06637
3425.45167,0.06611
3423.52292,0.06611
3421.59418,0.06631
3419.66543,0.06636
3417.73668,0.06624
3415.80794,0.06606
3413.87919,0.06568
3411.95045,0.06527
3410.02170,0.06521
3408.09296,0.06531
3406.16421,0.06519
3404.23547,0.06510
3402.30672,0.06541
3400.37798,0.06591
3398.44923,0.06615
3396.52049,0.06606
3394.59174,0.06601
3392.66300,0.06625
3390.73425,0.06662
3388.80550,0.06666
3386.87676,0.06636
3384.94801,0.06624
3383.01927,0.06648
3381.09052,0.06674
3379.16178,0.06669
3377.23303,0.06667
3375.30429,0.06686
3373.37554,0.06698
3371.44680,0.06713
3369.51805,0.06734
3367.58931,0.06737
3365.66056,0.06739
3363.73182,0.06763
3361.80307,0.06799
3359.87433,0.06836
3357.94558,0.06865
3356.01683,0.06864
3354.08809,0.06850
3352.15934,0.06849
3350.23060,0.06851
3348.30185,0.06852
3346.37311,0.06869
3344.44436,0.06916
3342.51562,0.06993
3340.58687,0.07081
3338.65813,0.07149
3336.72938,0.07186
3334.80064,0.07208
3332.87189,0.07238
3330.94315,0.07283
3329.01440,0.07340
3327.08566,0.07412
3325.15691,0.07489
3323.22816,0.07553
3321.29942,0.07600
3319.37067,0.07630
3317.44193,0.07653
3315.51318,0.07676
3313.58444,0.07697
3311.65569,0.07732
3309.72695,0.07806
3307.79820,0.07888
3305.86946,0.07921
3303.94071,0.07921
3302.01197,0.07944
3300.08322,0.08003
3298.15448,0.08076
3296.22573,0.08132
3294.29698,0.08175
3292.36824,0.08224
3290.43949,0.08270
3288.51075,0.08309
3286.58200,0.08353
3284.65326,0.08411
3282.72451,0.08471
3280.79577,0.08528
3278.86702,0.08594
3276.93828,0.08666
3275.00953,0.08724
3273.08079,0.08781
3271.15204,0.08868
3269.22330,0.08977
3267.29455,0.09087
3265.36581,0.09196
3263.43706,0.09299
3261.50831,0.09362
3259.57957,0.09389
3257.65082,0.09454
3255.72208,0.09580
3253.79333,0.09700
3251.86459,0.09771
3249.93584,0.09833
3248.00710,0.09924
3246.07835,0.10039
3244.14961,0.10156
3242.22086,0.10262
3240.29212,0.10360
3238.36337,0.10448
3236.43463,0.10510
3234.50588,0.10560
3232.57713,0.10639
3230.64839,0.10736
3228.71964,0.10832
3226.79090,0.10964
3224.86215,0.11119
3222.93341,0.11239
3221.00466,0.11339
3219.07592,0.11461
3217.14717,0.11583
3215.21843,0.11677
3213.28968,0.11770
3211.36094,0.11893
3209.43219,0.12013
3207.50345,0.12115
3205.57470,0.12230
3203.64596,0.12366
3201.71721,0.12497
3199.78846,0.12609
3197.85972,0.12730
3195.93097,0.12879
3194.00223,0.13032
3192.07348,0.13159
3190.14474,0.13248
3188.21599,0.13321
3186.28725,0.13413
3184.35850,0.13533
3182.42976,0.13669
3180.50101,0.13808
3178.57227,0.13935
3176.64352,0.14063
3174.71478,0.14195
3172.78603,0.14315
3170.85729,0.14430
3168.92854,0.14554
3166.99979,0.14670
3165.07105,0.14774
3163.14230,0.14901
3161.21356,0.15058
3159.28481,0.15203
3157.35607,0.15325
3155.42732,0.15445
3153.49858,0.15570
3151.56983,0.15694
3149.64109,0.15821
3147.71234,0.15951
3145.78360,0.16076
3143.85485,0.16197
3141.92611,0.16304
3139.99736,0.16404
3138.06861,0.16524
3136.13987,0.16655
3134.21112,0.16772
3132.28238,0.16881
3130.35363,0.16999
3128.42489,0.17117
3126.49614,0.17236
3124.56740,0.17372
3122.63865,0.17511
3120.70991,0.17634
3118.78116,0.17750
3116.85242,0.17863
3114.92367,0.17977
3112.99493,0.18084
3111.06618,0.18180
3109.13744,0.18288
3107.20869,0.18421
3105.27994,0.18560
3103.35120,0.18679
3101.42245,0.18774
3099.49371,0.18876
3097.56496,0.18980
3095.63622,0.19057
3093.70747,0.19118
3091.77873,0.19195
3089.84998,0.19285
3087.92124,0.19365
3085.99249,0.19433
3084.06375,0.19507
3082.13500,0.19589
3080.20626,0.19663
3078.27751,0.19733
3076.34877,0.19797
3074.42002,0.19856
3072.49127,0.19929
3070.56253,0.20020
3068.63378,0.20108
3066.70504,0.20204
3064.77629,0.20313
3062.84755,0.20405
3060.91880,0.20481
3058.99006,0.20558
3057.06131,0.20634
3055.13257,0.20719
3053.20382,0.20813
3051.27508,0.20890
3049.34633,0.20951
3047.41759,0.21022
3045.48884,0.21100
3043.56009,0.21163
3041.63135,0.21205
3039.70260,0.21232
3037.77386,0.21255
3035.84511,0.21283
3033.91637,0.21298
3031.98762,0.21299
3030.05888,0.21312
3028.13013,0.21324
3026.20139,0.21299
3024.27264,0.21227
3022.34390,0.21132
3020.41515,0.21034
3018.48641,0.20933
3016.55766,0.20824
3014.62892,0.20699
3012.70017,0.20559
3010.77142,0.20395
3008.84268,0.20205
3006.91393,0.20007
3004.98519,0.19827
3003.05644,0.19676
3001.12770,0.19545
2999.19895,0.19414
2997.27021,0.19265
2995.34146,0.19110
2993.41272,0.18962
2991.48397,0.18778
2989.55523,0.18542
2987.62648,0.18280
2985.69774,0.17985
2983.76899,0.17657
2981.84025,0.17308
2979.91150,0.16930
2977.98275,0.16520
2976.05401,0.16086
2974.12526,0.15637
2972.19652,0.15209
2970.26777,0.14866
2968.33903,0.14617
2966.41028,0.14422
2964.48154,0.14247
2962.55279,0.14072
2960.62405,0.13899
2958.69530,0.13750
2956.76656,0.13605
2954.83781,0.13424
2952.90907,0.13231
2950.98032,0.13058
2949.05157,0.12866
2947.12283,0.12636
2945.19408,0.12424
2943.26534,0.12257
2941.33659,0.12127
2939.40785,0.12040
2937.47910,0.11998
2935.55036,0.11992
2933.62161,0.11999
2931.69287,0.11992
2929.76412,0.11974
2927.83538,0.11945
2925.90663,0.11884
2923.97789,0.11812
2922.04914,0.11763
2920.12040,0.11720
2918.19165,0.11682
2916.26290,0.11691
2914.33416,0.11748
2912.40541,0.11793
2910.47667,0.11805
2908.54792,0.11808
2906.61918,0.11817
2904.69043,0.11834
2902.76169,0.11858
2900.83294,0.11884
2898.90420,0.11923
2896.97545,0.11982
2895.04671,0.12040
2893.11796,0.12094
2891.18922,0.12155
2889.26047,0.12223
2887.33172,0.12309
2885.40298,0.12416
2883.47423,0.12517
2881.54549,0.12584
2879.61674,0.12641
2877.68800,0.12710
2875.75925,0.12805
2873.83051,0.12933
2871.90176,0.13061
2869.97302,0.13163
2868.04427,0.13282
2866.11553,0.13445
2864.18678,0.13617
2862.25804,0.13765
2860.32929,0.13906
2858.40055,0.14061
2856.47180,0.14223
2854.54305,0.14381
2852.61431,0.14531
2850.68556,0.14687
2848.75682,0.14892
2846.82807,0.15159
2844.89933,0.15437
2842.97058,0.15702
2841.04184,0.15981
2839.11309,0.16271
2837.18435,0.16567
2835.25560,0.16901
2833.32686,0.17274
2831.39811,0.17654
2829.46937,0.18040
2827.54062,0.18446
2825.61188,0.18846
2823.68313,0.19222
2821.75438,0.19587
2819.82564,0.19939
2817.89689,0.20266
2815.96815,0.20568
2814.03940,0.20844
2812.11066,0.21096
2810.18191,0.21330
2808.25317,0.21553
2806.32442,0.21774
2804.39568,0.21992
2802.46693,0.22191
2800.53819,0.22380
2798.60944,0.22574
2796.68070,0.22739
2794.75195,0.22854
2792.82320,0.22966
2790.89446,0.23110
2788.96571,0.23255
2787.03697,0.23378
2785.10822,0.23497
2783.17948,0.23600
2781.25073,0.23679
2779.32199,0.23753
2777.39324,0.23829
2775.46450,0.23899
2773.53575,0.23949
2771.60701,0.23981
2769.67826,0.24016
2767.74952,0.24070
2765.82077,0.24133
2763.89203,0.24188
2761.96328,0.24235
2760.03453,0.24284
2758.10579,0.24332
2756.17704,0.24376
2754.24830,0.24422
2752.31955,0.24455
2750.39081,0.24469
2748.46206,0.24475
2746.53332,0.24476
2744.60457,0.24473
2742.67583,0.24482
2740.74708,0.24509
2738.81834,0.24542
2736.88959,0.24573
2734.96085,0.24598
2733.03210,0.24624
2731.10336,0.24667
2729.17461,0.24734
2727.24586,0.24817
2725.31712,0.24911
2723.38837,0.24996
2721.45963,0.25066
2719.53088,0.25149
2717.60214,0.25260
2715.67339,0.25372
2713.74465,0.25477
2711.81590,0.25586
2709.88716,0.25689
2707.95841,0.25790
2706.02967,0.25901
2704.10092,0.26027
2702.17218,0.26171
2700.24343,0.26320
2698.31468,0.26450
2696.38594,0.26563
2694.45719,0.26692
2692.52845,0.26836
2690.59970,0.26950
2688.67096,0.27028
2686.74221,0.27107
2684.81347,0.27200
2682.88472,0.27303
2680.95598,0.27408
2679.02723,0.27513
2677.09849,0.27619
2675.16974,0.27719
2673.24100,0.27799
2671.31225,0.27850
2669.38351,0.27900
2667.45476,0.27975
2665.52601,0.28051
2663.59727,0.28110
2661.66852,0.28169
2659.73978,0.28231
2657.81103,0.28286
2655.88229,0.28342
2653.95354,0.28409
2652.02480,0.28473
2650.09605,0.28522
2648.16731,0.28578
2646.23856,0.28653
2644.30982,0.28734
2642.38107,0.28814
2640.45233,0.28891
2638.52358,0.28968
2636.59484,0.29053
2634.66609,0.29144
2632.73734,0.29231
2630.80860,0.29305
2628.87985,0.29369
2626.95111,0.29444
2625.02236,0.29552
2623.09362,0.29665
2621.16487,0.29739
2619.23613,0.29788
2617.30738,0.29847
2615.37864,0.29907
2613.44989,0.29963
2611.52115,0.30036
2609.59240,0.30128
2607.66366,0.30211
2605.73491,0.30265
2603.80616,0.30311
2601.87742,0.30376
2599.94867,0.30444
2598.01993,0.30496
2596.09118,0.30549
2594.16244,0.30637
2592.23369,0.30743
2590.30495,0.30824
2588.37620,0.30867
2586.44746,0.30913
2584.51871,0.30983
2582.58997,0.31054
2580.66122,0.31107
2578.73248,0.31147
2576.80373,0.31176
2574.87499,0.31195
2572.94624,0.31223
2571.01749,0.31270
2569.08875,0.31318
2567.16000,0.31348
2565.23126,0.31360
2563.30251,0.31365
2561.37377,0.31380
2559.44502,0.31403
2557.51628,0.31420
2555.58753,0.31433
2553.65879,0.31443
2551.73004,0.31465
2549.80130,0.31493
2547.87255,0.31494
2545.94381,0.31488
2544.01506,0.31517
2542.08631,0.31568
2540.15757,0.31605
2538.22882,0.31637
2536.30008,0.31696
2534.37133,0.31767
2532.44259,0.31828
2530.51384,0.31892
2528.58510,0.31979
2526.65635,0.32079
2524.72761,0.32171
2522.79886,0.32254
2520.87012,0.32335
2518.94137,0.32408
2517.01263,0.32463
2515.08388,0.32519
2513.15514,0.32606
2511.22639,0.32724
2509.29764,0.32851
2507.36890,0.32964
2505.44015,0.33065
2503.51141,0.33169
2501.58266,0.33275
2499.65392,0.33391
2497.72517,0.33519
2495.79643,0.33642
2493.86768,0.33750
2491.93894,0.33862
2490.01019,0.33999
2488.08145,0.34126
2486.15270,0.34203
2484.22396,0.34266
2482.29521,0.34357
2480.36647,0.34460
2478.43772,0.34554
2476.50897,0.34637
2474.58023,0.34717
2472.65148,0.34803
2470.72274,0.34895
2468.79399,0.34985
2466.86525,0.35066
2464.93650,0.35140
2463.00776,0.35227
2461.07901,0.35330
2459.15027,0.35441
2457.22152,0.35546
2455.29278,0.35638
2453.36403,0.35725
2451.43529,0.35829
2449.50654,0.35942
2447.57779,0.36045
2445.64905,0.36146
2443.72030,0.36258
2441.79156,0.36356
2439.86281,0.36432
2437.93407,0.36519
2436.00532,0.36636
2434.07658,0.36760
2432.14783,0.36881
2430.21909,0.37000
2428.29034,0.37109
2426.36160,0.37221
2424.43285,0.37352
2422.50411,0.37486
2420.57536,0.37614
2418.64662,0.37740
2416.71787,0.37863
2414.78912,0.37986
2412.86038,0.38109
2410.93163,0.38239
2409.00289,0.38370
2407.07414,0.38486
2405.14540,0.38583
2403.21665,0.38680
2401.28791,0.38791
2399.35916,0.38915
2397.43042,0.39038
2395.50167,0.39160
2393.57293,0.39289
2391.64418,0.39410
2389.71544,0.39507
2387.78669,0.39603
2385.85795,0.39712
2383.92920,0.39812
2382.00045,0.39896
2380.07171,0.39996
2378.14296,0.40124
2376.21422,0.40242
2374.28547,0.40339
2372.35673,0.40431
2370.42798,0.40524
2368.49924,0.40609
2366.57049,0.40686
2364.64175,0.40759
2362.71300,0.40833
2360.78426,0.40912
2358.85551,0.40999
2356.92677,0.41074
2354.99802,0.41127
2353.06927,0.41183
2351.14053,0.41256
2349.21178,0.41328
2347.28304,0.41395
2345.35429,0.41467
2343.42555,0.41546
2341.49680,0.41620
2339.56806,0.41691
2337.63931,0.41749
2335.71057,0.41780
2333.78182,0.41791
2331.85308,0.41811
2329.92433,0.41859
2327.99559,0.41915
2326.06684,0.41955
2324.13810,0.41978
2322.20935,0.41997
2320.28060,0.42022
2318.35186,0.42049
2316.42311,0.42075
2314.49437,0.42107
2312.56562,0.42136
2310.63688,0.42150
2308.70813,0.42148
2306.77939,0.42141
2304.85064,0.42140
2302.92190,0.42149
2300.99315,0.42158
2299.06441,0.42155
2297.13566,0.42135
2295.20692,0.42107
2293.27817,0.42089
2291.34943,0.42090
2289.42068,0.42099
2287.49193,0.42104
2285.56319,0.42105
2283.63444,0.42113
2281.70570,0.42125
2279.77695,0.42118
2277.84821,0.42082
2275.91946,0.42039
2273.99072,0.42000
2272.06197,0.41967
2270.13323,0.41930
2268.20448,0.41871
2266.27574,0.41800
2264.34699,0.41748
2262.41825,0.41712
2260.48950,0.41664
2258.56075,0.41595
2256.63201,0.41519
2254.70326,0.41472
2252.77452,0.41472
2250.84577,0.41486
2248.91703,0.41476
2246.98828,0.41436
2245.05954,0.41399
2243.13079,0.41393
2241.20205,0.41399
2239.27330,0.41397
2237.34456,0.41395
2235.41581,0.41399
2233.48707,0.41405
2231.55832,0.41397
2229.62958,0.41370
2227.70083,0.41354
2225.77208,0.41370
2223.84334,0.41411
2221.91459,0.41446
2219.98585,0.41453
2218.05710,0.41446
2216.12836,0.41455
2214.19961,0.41475
2212.27087,0.41487
2210.34212,0.41489
2208.41338,0.41484
2206.48463,0.41469
2204.55589,0.41440
2202.62714,0.41391
2200.69840,0.41322
2198.76965,0.41245
2196.84090,0.41163
2194.91216,0.41081
2192.98341,0.41011
2191.05467,0.40941
2189.12592,0.40847
2187.19718,0.40726
2185.26843,0.40590
2183.33969,0.40455
2181.41094,0.40332
2179.48220,0.40217
2177.55345,0.40101
2175.62471,0.39980
2173.69596,0.39849
2171.76722,0.39725
2169.83847,0.39623
2167.90973,0.39541
2165.98098,0.39453
2164.05223,0.39349
2162.12349,0.39250
2160.19474,0.39176
2158.26600,0.39108
2156.33725,0.39037
2154.40851,0.38974
2152.47976,0.38920
2150.55102,0.38872
2148.62227,0.38828
2146.69353,0.38792
2144.76478,0.38762
2142.83604,0.38723
2140.90729,0.38677
2138.97855,0.38639
2137.04980,0.38621
2135.12106,0.38626
2133.19231,0.38631
2131.26356,0.38627
2129.33482,0.38642
2127.40607,0.38683
2125.47733,0.38730
2123.54858,0.38774
2121.61984,0.38826
2119.69109,0.38874
2117.76235,0.38907
2115.83360,0.38942
2113.90486,0.38985
2111.97611,0.39031
2110.04737,0.39082
2108.11862,0.39133
2106.18988,0.39178
2104.26113,0.39223
2102.33238,0.39271
2100.40364,0.39314
2098.47489,0.39350
2096.54615,0.39381
2094.61740,0.39401
2092.68866,0.39412
2090.75991,0.39431
2088.83117,0.39455
2086.90242,0.39467
2084.97368,0.39449
2083.04493,0.39406
2081.11619,0.39365
2079.18744,0.39334
2077.25870,0.39291
2075.32995,0.39228
2073.40121,0.39168
2071.47246,0.39116
2069.54371,0.39055
2067.61497,0.38988
2065.68622,0.38941
2063.75748,0.38920
2061.82873,0.38901
2059.89999,0.38869
2057.97124,0.38842
2056.04250,0.38847
2054.11375,0.38880
2052.18501,0.38910
2050.25626,0.38921
2048.32752,0.38944
2046.39877,0.39005
2044.47003,0.39079
2042.54128,0.39148
2040.61254,0.39234
2038.68379,0.39344
2036.75504,0.39455
2034.82630,0.39563
2032.89755,0.39681
2030.96881,0.39800
2029.04006,0.39918
2027.11132,0.40053
2025.18257,0.40189
2023.25383,0.40309
2021.32508,0.40437
2019.39634,0.40580
2017.46759,0.40719
2015.53885,0.40841
2013.61010,0.40944
2011.68136,0.41035
2009.75261,0.41131
2007.82386,0.41226
2005.89512,0.41305
2003.96637,0.41373
2002.03763,0.41447
2000.10888,0.41536
1998.18014,0.41632
1996.25139,0.41718
1994.32265,0.41786
1992.39390,0.41843
1990.46516,0.41907
1988.53641,0.41982
1986.60767,0.42060
1984.67892,0.42137
1982.75018,0.42217
1980.82143,0.42298
1978.89269,0.42360
1976.96394,0.42397
1975.03519,0.42433
1973.10645,0.42482
1971.17770,0.42544
1969.24896,0.42614
1967.32021,0.42688
1965.39147,0.42765
1963.46272,0.42853
1961.53398,0.42949
1959.60523,0.43046
1957.67649,0.43145
1955.74774,0.43250
1953.81900,0.43361
1951.89025,0.43471
1949.96151,0.43570
1948.03276,0.43656
1946.10402,0.43750
1944.17527,0.43858
1942.24652,0.43963
1940.31778,0.44051
1938.38903,0.44128
1936.46029,0.44205
1934.53154,0.44280
1932.60280,0.44344
1930.67405,0.44401
1928.74531,0.44462
1926.81656,0.44519
1924.88782,0.44558
1922.95907,0.44586
1921.03033,0.44614
1919.10158,0.44642
1917.17284,0.44657
1915.24409,0.44653
1913.31534,0.44643
1911.38660,0.44631
1909.45785,0.44613
1907.52911,0.44591
1905.60036,0.44574
1903.67162,0.44556
1901.74287,0.44534
1899.81413,0.44512
1897.88538,0.44480
1895.95664,0.44435
1894.02789,0.44391
1892.09915,0.44352
1890.17040,0.44315
1888.24166,0.44278
1886.31291,0.44238
1884.38417,0.44190
1882.45542,0.44139
1880.52667,0.44099
1878.59793,0.44078
1876.66918,0.44064
1874.74044,0.44032
1872.81169,0.43981
1870.88295,0.43941
1868.95420,0.43909
1867.02546,0.43858
1865.09671,0.43789
1863.16797,0.43728
1861.23922,0.43682
1859.31048,0.43645
1857.38173,0.43609
1855.45299,0.43554
1853.52424,0.43477
1851.59549,0.43400
1849.66675,0.43330
1847.73800,0.43260
1845.80926,0.43188
1843.88051,0.43105
1841.95177,0.43002
1840.02302,0.42885
1838.09428,0.42752
1836.16553,0.42617
1834.23679,0.42498
1832.30804,0.42380
1830.37930,0.42230
1828.45055,0.42045
1826.52181,0.41839
1824.59306,0.41604
1822.66432,0.41335
1820.73557,0.41042
1818.80682,0.40714
1816.87808,0.40343
1814.94933,0.39928
1813.02059,0.39464
1811.09184,0.38926
1809.16310,0.38301
1807.23435,0.37604
1805.30561,0.36845
1803.37686,0.36019
1801.44812,0.35132
1799.51937,0.34213
1797.59063,0.33311
1795.66188,0.32465
1793.73314,0.31652
1791.80439,0.30821
1789.87565,0.30011
1787.94690,0.29281
1786.01815,0.28622
1784.08941,0.28020
1782.16066,0.27473
1780.23192,0.26976
1778.30317,0.26525
1776.37443,0.26112
1774.44568,0.25700
1772.51694,0.25230
1770.58819,0.24701
1768.65945,0.24143
1766.73070,0.23537
1764.80196,0.22898
1762.87321,0.22238
1760.94447,0.21558
1759.01572,0.20893
1757.08697,0.20239
1755.15823,0.19607
1753.22948,0.19043
1751.30074,0.18549
1749.37199,0.18131
1747.44325,0.17802
1745.51450,0.17550
1743.58576,0.17370
1741.65701,0.17256
1739.72827,0.17192
1737.79952,0.17199
1735.87078,0.17312
1733.94203,0.17507
1732.01329,0.17721
1730.08454,0.17952
1728.15580,0.18222
1726.22705,0.18521
1724.29830,0.18846
1722.36956,0.19186
1720.44081,0.19551
1718.51207,0.19975
1716.58332,0.20407
1714.65458,0.20769
1712.72583,0.21094
1710.79709,0.21419
1708.86834,0.21722
1706.93960,0.21983
1705.01085,0.22197
1703.08211,0.22354
1701.15336,0.22430
1699.22462,0.22400
1697.29587,0.22289
1695.36713,0.22108
1693.43838,0.21877
1691.50963,0.21636
1689.58089,0.21364
1687.65214,0.21060
1685.72340,0.20707
1683.79465,0.20227
1681.86591,0.19676
1679.93716,0.19144
1678.00842,0.18624
1676.07967,0.18081
1674.15093,0.17525
1672.22218,0.17043
1670.29344,0.16642
1668.36469,0.16278
1666.43595,0.15990
1664.50720,0.15805
1662.57845,0.15706
1660.64971,0.15679
1658.72096,0.15727
1656.79222,0.15837
1654.86347,0.15977
1652.93473,0.16122
1651.00598,0.16249
1649.07724,0.16360
1647.14849,0.16435
1645.21975,0.16429
1643.29100,0.16385
1641.36226,0.16362
1639.43351,0.16369
1637.50477,0.16392
1635.57602,0.16393
1633.64728,0.16342
1631.71853,0.16281
1629.78978,0.16231
1627.86104,0.16156
1625.93229,0.16030
1624.00355,0.15850
1622.07480,0.15641
1620.14606,0.15439
1618.21731,0.15227
1616.28857,0.14963
1614.35982,0.14665
1612.43108,0.14372
1610.50233,0.14100
1608.57359,0.13863
1606.64484,0.13677
1604.71610,0.13565
1602.78735,0.13541
1600.85861,0.13571
1598.92986,0.13595
1597.00111,0.13591
1595.07237,0.13604
1593.14362,0.13688
1591.21488,0.13857
1589.28613,0.14103
1587.35739,0.14426
1585.42864,0.14836
1583.49990,0.15346
1581.57115,0.15966
1579.64241,0.16672
1577.71366,0.17475
1575.78492,0.18359
1573.85617,0.19177
1571.92743,0.19899
1569.99868,0.20582
1568.06993,0.21168
1566.14119,0.21615
1564.21244,0.21955
1562.28370,0.22215
1560.35495,0.22420
1558.42621,0.22517
1556.49746,0.22455
1554.56872,0.22322
1552.63997,0.22152
1550.71123,0.21929
1548.78248,0.21683
1546.85374,0.21451
1544.92499,0.21216
1542.99625,0.20951
1541.06750,0.20618
1539.13876,0.20145
1537.21001,0.19591
1535.28126,0.18986
1533.35252,0.18222
1531.42377,0.17303
1529.49503,0.16300
1527.56628,0.15186
1525.63754,0.13981
1523.70879,0.12762
1521.78005,0.11504
1519.85130,0.10308
1517.92256,0.09372
1515.99381,0.08724
1514.06507,0.08360
1512.13632,0.08252
1510.20758,0.08337
1508.27883,0.08583
1506.35008,0.08973
1504.42134,0.09417
1502.49259,0.09878
1500.56385,0.10401
1498.63510,0.10971
1496.70636,0.11521
1494.77761,0.11969
1492.84887,0.12272
1490.92012,0.12431
1488.99138,0.12453
1487.06263,0.12367
1485.13389,0.12214
1483.20514,0.12009
1481.27640,0.11740
1479.34765,0.11400
1477.41891,0.11008
1475.49016,0.10569
1473.56141,0.10059
1471.63267,0.09517
1469.70392,0.09075
1467.77518,0.08786
1465.84643,0.08610
1463.91769,0.08523
1461.98894,0.08516
1460.06020,0.08546
1458.13145,0.08559
1456.20271,0.08523
1454.27396,0.08473
1452.34522,0.08473
1450.41647,0.08556
1448.48773,0.08693
1446.55898,0.08831
1444.63024,0.08935
1442.70149,0.08964
1440.77274,0.08902
1438.84400,0.08773
1436.91525,0.08588
1434.98651,0.08381
1433.05776,0.08217
1431.12902,0.08114
1429.20027,0.08061
1427.27153,0.08052
1425.34278,0.08099
1423.41404,0.08214
1421.48529,0.08382
1419.55655,0.08577
1417.62780,0.08769
1415.69906,0.08946
1413.77031,0.09109
1411.84156,0.09261
1409.91282,0.09404
1407.98407,0.09528
1406.05533,0.09598
1404.12658,0.09612
1402.19784,0.09597
1400.26909,0.09564
1398.34035,0.09514
1396.41160,0.09449
1394.48286,0.09344
1392.55411,0.09181
1390.62537,0.08990
1388.69662,0.08801
1386.76788,0.08598
1384.83913,0.08370
1382.91039,0.08139
1380.98164,0.07950
1379.05289,0.07833
1377.12415,0.07774
1375.19540,0.07749
1373.26666,0.07753
1371.33791,0.07790
1369.40917,0.07869
1367.48042,0.07971
1365.55168,0.08072
1363.62293,0.08169
1361.69419,0.08258
1359.76544,0.08331
1357.83670,0.08410
1355.90795,0.08515
1353.97921,0.08620
1352.05046,0.08687
1350.12172,0.08711
1348.19297,0.08693
1346.26422,0.08632
1344.33548,0.08548
1342.40673,0.08455
1340.47799,0.08358
1338.54924,0.08283
1336.62050,0.08254
1334.69175,0.08262
1332.76301,0.08294
1330.83426,0.08331
1328.90552,0.08340
1326.97677,0.08305
1325.04803,0.08246
1323.11928,0.08193
1321.19054,0.08160
1319.26179,0.08149
1317.33304,0.08165
1315.40430,0.08215
1313.47555,0.08290
1311.54681,0.08385
1309.61806,0.08495
1307.68932,0.08592
1305.76057,0.08654
1303.83183,0.08687
1301.90308,0.08697
1299.97434,0.08691
1298.04559,0.08665
1296.11685,0.08588
1294.18810,0.08448
1292.25936,0.08278
1290.33061,0.08101
1288.40187,0.07916
1286.47312,0.07730
1284.54437,0.07558
1282.61563,0.07429
1280.68688,0.07350
1278.75814,0.07299
1276.82939,0.07250
1274.90065,0.07200
1272.97190,0.07167
1271.04316,0.07179
1269.11441,0.07232
1267.18567,0.07315
1265.25692,0.07424
1263.32818,0.07537
1261.39943,0.07632
1259.47069,0.07725
1257.54194,0.07837
1255.61320,0.07962
1253.68445,0.08065
1251.75570,0.08121
1249.82696,0.08151
1247.89821,0.08185
1245.96947,0.08211
1244.04072,0.08217
1242.11198,0.08206
1240.18323,0.08174
1238.25449,0.08133
1236.32574,0.08104
1234.39700,0.08089
1232.46825,0.08095
1230.53951,0.08131
1228.61076,0.08189
1226.68202,0.08238
1224.75327,0.08269
1222.82452,0.08304
1220.89578,0.08351
1218.96703,0.08409
1217.03829,0.08464
1215.10954,0.08504
1213.18080,0.08545
1211.25205,0.08576
1209.32331,0.08573
1207.39456,0.08588
1205.46582,0.08687
1203.53707,0.08838
1201.60833,0.08962
1199.67958,0.09053
1197.75084,0.09154
1195.82209,0.09254
1193.89335,0.09295
1191.96460,0.09267
1190.03585,0.09208
1188.10711,0.09136
1186.17836,0.09022
1184.24962,0.08844
1182.32087,0.08606
1180.39213,0.08327
1178.46338,0.08042
1176.53464,0.07769
1174.60589,0.07497
1172.67715,0.07243
1170.74840,0.07060
1168.81966,0.06977
1166.89091,0.06992
1164.96217,0.07086
1163.03342,0.07214
1161.10467,0.07332
1159.17593,0.07428
1157.24718,0.07500
1155.31844,0.07535
1153.38969,0.07540
1151.46095,0.07524
1149.53220,0.07482
1147.60346,0.07412
1145.67471,0.07329
1143.74597,0.07253
1141.81722,0.07188
1139.88848,0.07122
1137.95973,0.07038
1136.03099,0.06931
1134.10224,0.06817
1132.17350,0.06713
1130.24475,0.06615
1128.31600,0.06537
1126.38726,0.06515
1124.45851,0.06553
1122.52977,0.06608
1120.60102,0.06633
1118.67228,0.06621
1116.74353,0.06615
1114.81479,0.06656
1112.88604,0.06740
1110.95730,0.06845
1109.02855,0.06956
1107.09981,0.07064
1105.17106,0.07171
1103.24232,0.07263
1101.31357,0.07312
1099.38483,0.07309
1097.45608,0.07280
1095.52733,0.07262
1093.59859,0.07256
1091.66984,0.07261
1089.74110,0.07269
1087.81235,0.07265
1085.88361,0.07277
1083.95486,0.07342
1082.02612,0.07456
1080.09737,0.07579
1078.16863,0.07684
1076.23988,0.07778
1074.31114,0.07892
1072.38239,0.08031
1070.45365,0.08197
1068.52490,0.08426
1066.59615,0.08723
1064.66741,0.09048
1062.73866,0.09390
1060.80992,0.09710
1058.88117,0.09937
1056.95243,0.10090
1055.02368,0.10220
1053.09494,0.10303
1051.16619,0.10319
1049.23745,0.10300
1047.30870,0.10239
1045.37996,0.10129
1043.45121,0.10050
1041.52247,0.10099
1039.59372,0.10292
1037.66498,0.10571
1035.73623,0.10836
1033.80748,0.11032
1031.87874,0.11198
1029.94999,0.11365
1028.02125,0.11510
1026.09250,0.11635
1024.16376,0.11744
1022.23501,0.11831
1020.30627,0.11923
1018.37752,0.12053
1016.44878,0.12215
1014.52003,0.12385
1012.59129,0.12519
1010.66254,0.12602
1008.73380,0.12667
1006.80505,0.12734
1004.87631,0.12826
1002.94756,0.12975
1001.01881,0.13162
999.09007,0.13330
997.16132,0.13472
995.23258,0.13642
993.30383,0.13876
991.37509,0.14133
989.44634,0.14389
987.51760,0.14699
985.58885,0.15127
983.66011,0.15659
981.73136,0.16217
979.80262,0.16742
977.87387,0.17202
975.94513,0.17554
974.01638,0.17808
972.08763,0.18040
970.15889,0.18289
968.23014,0.18546
966.30140,0.18820
964.37265,0.19133
962.44391,0.19486
960.51516,0.19874
958.58642,0.20304
956.65767,0.20735
954.72893,0.21117
952.80018,0.21463
950.87144,0.21791
948.94269,0.22088
947.01395,0.22353
945.08520,0.22586
943.15646,0.22779
941.22771,0.22957
939.29896,0.23164
937.37022,0.23401
935.44147,0.23625
933.51273,0.23828
931.58398,0.24051
929.65524,0.24279
927.72649,0.24473
925.79775,0.24641
923.86900,0.24789
921.94026,0.24880
920.01151,0.24896
918.08277,0.24844
916.15402,0.24713
914.22528,0.24501
912.29653,0.24241
910.36779,0.23967
908.43904,0.23691
906.51029,0.23386
904.58155,0.23028
902.65280,0.22672
900.72406,0.22387
898.79531,0.22234
896.86657,0.22279
894.93782,0.22514
893.00908,0.22860
891.08033,0.23259
889.15159,0.23662
887.22284,0.24022
885.29410,0.24307
883.36535,0.24499
881.43661,0.24622
879.50786,0.24712
877.57911,0.24795
875.65037,0.24886
873.72162,0.24971
871.79288,0.25032
869.86413,0.25082
867.93539,0.25153
866.00664,0.25260
864.07790,0.25401
862.14915,0.25561
860.22041,0.25729
858.29166,0.25904
856.36292,0.26102
854.43417,0.26350
852.50543,0.26654
850.57668,0.26984
848.64794,0.27288
846.71919,0.27546
844.79044,0.27751
842.86170,0.27842
840.93295,0.27795
839.00421,0.27678
837.07546,0.27542
835.14672,0.27373
833.21797,0.27157
831.28923,0.26918
829.36048,0.26693
827.43174,0.26477
825.50299,0.26245
823.57425,0.25996
821.64550,0.25734
819.71676,0.25454
817.78801,0.25150
815.85926,0.24818
813.93052,0.24504
812.00177,0.24310
810.07303,0.24279
808.14428,0.24348
806.21554,0.24476
804.28679,0.24666
802.35805,0.24888
800.42930,0.25108
798.50056,0.25312
796.57181,0.25488
794.64307,0.25655
792.71432,0.25821
790.78558,0.25913
788.85683,0.25883
786.92809,0.25807
784.99934,0.25721
783.07059,0.25573
781.14185,0.25352
779.21310,0.25084
777.28436,0.24807
775.35561,0.24570
773.42687,0.24400
771.49812,0.24278
769.56938,0.24162
767.64063,0.24034
765.71189,0.23900
763.78314,0.23742
761.85440,0.23543
759.92565,0.23362
757.99691,0.23248
756.06816,0.23148
754.13942,0.22996
752.21067,0.22782
750.28192,0.22550
748.35318,0.22353
746.42443,0.22191
744.49569,0.22024
742.56694,0.21837
740.63820,0.21645
738.70945,0.21454
736.78071,0.21247
734.85196,0.21026
732.92322,0.20785
730.99447,0.20501
729.06573,0.20204
727.13698,0.19957
725.20824,0.19748
723.27949,0.19536
721.35074,0.19337
719.42200,0.19153
717.49325,0.18964
715.56451,0.18789
713.63576,0.18648
711.70702,0.18512
709.77827,0.18362
707.84953,0.18215
705.92078,0.18071
703.99204,0.17921
702.06329,0.17765
700.13455,0.17608
698.20580,0.17457
696.27706,0.17340
694.34831,0.17245
692.41957,0.17115
690.49082,0.16933
688.56207,0.16684
686.63333,0.16384
684.70458,0.16087
682.77584,0.15785
680.84709,0.15438
678.91835,0.15089
676.98960,0.14783
675.06086,0.14521
673.13211,0.14338
671.20337,0.14246
669.27462,0.14197
667.34588,0.14194
665.41713,0.14259
663.48839,0.14353
661.55964,0.14443
659.63090,0.14501
657.70215,0.14478
655.77340,0.14436
653.84466,0.14469
651.91591,0.14464
649.98717,0.14325
648.05842,0.14176
646.12968,0.14120
644.20093,0.14108
642.27219,0.14018
640.34344,0.13809
638.41470,0.13601
636.48595,0.13479
634.55721,0.13384
632.62846,0.13246
630.69972,0.13033
628.77097,0.12807
626.84222,0.12631
624.91348,0.12458
622.98473,0.12271
621.05599,0.12181
619.12724,0.12268
617.19850,0.12453
615.26975,0.12576
613.34101,0.12553
611.41226,0.12497
609.48352,0.12616
607.55477,0.12893
605.62603,0.13117
603.69728,0.13195
601.76854,0.13178
599.83979,0.13177
