7497.03301,0.88371
7495.10426,0.88037
7493.17552,0.88145
7491.24677,0.88287
7489.31803,0.88170
7487.38928,0.88139
7485.46054,0.88465
7483.53179,0.88831
7481.60305,0.88828
7479.67430,0.88494
7477.74556,0.88044
7475.81681,0.87706
7473.88807,0.87602
7471.95932,0.87902
7470.03057,0.88514
7468.10183,0.88736
7466.17308,0.88571
7464.24434,0.88494
7462.31559,0.88355
7460.38685,0.88273
7458.45810,0.88485
7456.52936,0.88491
7454.60061,0.87777
7452.67187,0.86831
7450.74312,0.86516
7448.81438,0.86794
7446.88563,0.87247
7444.95689,0.87623
7443.02814,0.87522
7441.09940,0.87038
7439.17065,0.86689
7437.24190,0.86484
7435.31316,0.86299
7433.38441,0.86406
7431.45567,0.86818
7429.52692,0.86986
7427.59818,0.86888
7425.66943,0.87206
7423.74069,0.87770
7421.81194,0.87717
7419.88320,0.87233
7417.95445,0.87073
7416.02571,0.87078
7414.09696,0.86788
7412.16822,0.86290
7410.23947,0.85893
7408.31073,0.85905
7406.38198,0.86358
7404.45323,0.86748
7402.52449,0.86543
7400.59574,0.85999
7398.66700,0.85803
7396.73825,0.85851
7394.80951,0.85481
7392.88076,0.84960
7390.95202,0.85039
7389.02327,0.85453
7387.09453,0.85637
7385.16578,0.85492
7383.23704,0.85065
7381.30829,0.84827
7379.37955,0.84961
7377.45080,0.85021
7375.52205,0.84994
7373.59331,0.84933
7371.66456,0.84767
7369.73582,0.84858
7367.80707,0.85419
7365.87833,0.85935
7363.94958,0.85767
7362.02084,0.85075
7360.09209,0.84583
7358.16335,0.84599
7356.23460,0.84756
7354.30586,0.84721
7352.37711,0.84672
7350.44837,0.84710
7348.51962,0.84500
7346.59088,0.84035
7344.66213,0.84028
7342.73338,0.84668
7340.80464,0.85184
7338.87589,0.85313
7336.94715,0.85281
7335.01840,0.84985
7333.08966,0.84517
7331.16091,0.84131
7329.23217,0.83900
7327.30342,0.83920
7325.37468,0.84210
7323.44593,0.84398
7321.51719,0.84104
7319.58844,0.83635
7317.65970,0.83483
7315.73095,0.83597
7313.80221,0.83793
7311.87346,0.83976
7309.94471,0.84016
7308.01597,0.83939
7306.08722,0.83779
7304.15848,0.83451
7302.22973,0.82988
7300.30099,0.82662
7298.37224,0.82736
7296.44350,0.82971
7294.51475,0.82968
7292.58601,0.82980
7290.65726,0.83331
7288.72852,0.83728
7286.79977,0.83799
7284.87103,0.83568
7282.94228,0.83302
7281.01353,0.83035
7279.08479,0.82666
7277.15604,0.82336
7275.22730,0.82184
7273.29855,0.82339
7271.36981,0.82914
7269.44106,0.83470
7267.51232,0.83456
7265.58357,0.83023
7263.65483,0.82765
7261.72608,0.83230
7259.79734,0.84168
7257.86859,0.84472
7255.93985,0.83986
7254.01110,0.83605
7252.08236,0.83488
7250.15361,0.83230
7248.22486,0.82845
7246.29612,0.82633
7244.36737,0.82856
7242.43863,0.83501
7240.50988,0.83931
7238.58114,0.83678
7236.65239,0.83261
7234.72365,0.83146
7232.79490,0.83088
7230.86616,0.82911
7228.93741,0.82785
7227.00867,0.82587
7225.07992,0.82286
7223.15118,0.82416
7221.22243,0.83017
7219.29369,0.83391
7217.36494,0.83271
7215.43619,0.83101
7213.50745,0.83011
7211.57870,0.82663
7209.64996,0.82266
7207.72121,0.82333
7205.79247,0.82627
7203.86372,0.82568
7201.93498,0.82184
7200.00623,0.81862
7198.07749,0.81752
7196.14874,0.81660
7194.22000,0.81392
7192.29125,0.81238
7190.36251,0.81329
7188.43376,0.81458
7186.50501,0.81802
7184.57627,0.82344
7182.64752,0.82541
7180.71878,0.82233
7178.79003,0.81803
7176.86129,0.81513
7174.93254,0.81348
7173.00380,0.81180
7171.07505,0.80936
7169.14631,0.80674
7167.21756,0.80458
7165.28882,0.80581
7163.36007,0.81034
7161.43133,0.81170
7159.50258,0.80895
7157.57384,0.80727
7155.64509,0.80836
7153.71634,0.80891
7151.78760,0.80680
7149.85885,0.80510
7147.93011,0.80482
7146.00136,0.80473
7144.07262,0.80472
7142.14387,0.80163
7140.21513,0.79484
7138.28638,0.79113
7136.35764,0.79401
7134.42889,0.79876
7132.50015,0.80019
7130.57140,0.79787
7128.64266,0.79497
7126.71391,0.79364
7124.78516,0.79341
7122.85642,0.79368
7120.92767,0.79373
7118.99893,0.79241
7117.07018,0.78997
7115.14144,0.78884
7113.21269,0.79076
7111.28395,0.79320
7109.35520,0.79196
7107.42646,0.78631
7105.49771,0.77988
7103.56897,0.77729
7101.64022,0.77919
7099.71148,0.78085
7097.78273,0.77840
7095.85399,0.77423
7093.92524,0.77255
7091.99649,0.77271
7090.06775,0.77090
7088.13900,0.76713
7086.21026,0.76467
7084.28151,0.76441
7082.35277,0.76491
7080.42402,0.76372
7078.49528,0.75995
7076.56653,0.75693
7074.63779,0.75707
7072.70904,0.75908
7070.78030,0.75932
7068.85155,0.75570
7066.92281,0.75188
7064.99406,0.75056
7063.06532,0.75012
7061.13657,0.74899
7059.20782,0.74695
7057.27908,0.74564
7055.35033,0.74527
7053.42159,0.74330
7051.49284,0.73938
7049.56410,0.73534
7047.63535,0.73237
7045.70661,0.73107
7043.77786,0.73101
7041.84912,0.72983
7039.92037,0.72681
7037.99163,0.72431
7036.06288,0.72321
7034.13414,0.72334
7032.20539,0.72452
7030.27664,0.72506
7028.34790,0.72349
7026.41915,0.72097
7024.49041,0.72028
7022.56166,0.72151
7020.63292,0.72224
7018.70417,0.72085
7016.77543,0.71723
7014.84668,0.71365
7012.91794,0.71225
7010.98919,0.71158
7009.06045,0.70923
7007.13170,0.70573
7005.20296,0.70346
7003.27421,0.70255
7001.34547,0.70191
6999.41672,0.70224
6997.48797,0.70343
6995.55923,0.70343
6993.63048,0.70113
6991.70174,0.69769
6989.77299,0.69614
6987.84425,0.69788
6985.91550,0.70091
6983.98676,0.70318
6982.05801,0.70336
6980.12927,0.70107
6978.20052,0.69841
6976.27178,0.69755
6974.34303,0.69829
6972.41429,0.69845
6970.48554,0.69703
6968.55680,0.69621
6966.62805,0.69776
6964.69930,0.70004
6962.77056,0.70002
6960.84181,0.69662
6958.91307,0.69267
6956.98432,0.69165
6955.05558,0.69309
6953.12683,0.69511
6951.19809,0.69730
6949.26934,0.69853
6947.34060,0.69740
6945.41185,0.69500
6943.48311,0.69418
6941.55436,0.69466
6939.62562,0.69371
6937.69687,0.69216
6935.76812,0.69107
6933.83938,0.69004
6931.91063,0.69025
6929.98189,0.69091
6928.05314,0.69107
6926.12440,0.69241
6924.19565,0.69450
6922.26691,0.69375
6920.33816,0.69046
6918.40942,0.69010
6916.48067,0.69252
6914.55193,0.69193
6912.62318,0.68793
6910.69444,0.68463
6908.76569,0.68475
6906.83695,0.68830
6904.90820,0.69187
6902.97945,0.69226
6901.05071,0.69077
6899.12196,0.69001
6897.19322,0.69072
6895.26447,0.69227
6893.33573,0.69222
6891.40698,0.69027
6889.47824,0.68988
6887.54949,0.69154
6885.62075,0.69336
6883.69200,0.69509
6881.76326,0.69573
6879.83451,0.69408
6877.90577,0.69142
6875.97702,0.69039
6874.04828,0.69079
6872.11953,0.68931
6870.19078,0.68698
6868.26204,0.68788
6866.33329,0.69058
6864.40455,0.69134
6862.47580,0.69090
6860.54706,0.69200
6858.61831,0.69348
6856.68957,0.69248
6854.76082,0.68914
6852.83208,0.68523
6850.90333,0.68297
6848.97459,0.68313
6847.04584,0.68470
6845.11710,0.68638
6843.18835,0.68635
6841.25960,0.68612
6839.33086,0.68762
6837.40211,0.68811
6835.47337,0.68717
6833.54462,0.68765
6831.61588,0.68912
6829.68713,0.68927
6827.75839,0.68734
6825.82964,0.68411
6823.90090,0.68144
6821.97215,0.68120
6820.04341,0.68284
6818.11466,0.68510
6816.18592,0.68804
6814.25717,0.68998
6812.32843,0.68957
6810.39968,0.68951
6808.47093,0.69118
6806.54219,0.69248
6804.61344,0.69306
6802.68470,0.69383
6800.75595,0.69383
6798.82721,0.69235
6796.89846,0.69064
6794.96972,0.68941
6793.04097,0.68855
6791.11223,0.68895
6789.18348,0.69032
6787.25474,0.69138
6785.32599,0.69260
6783.39725,0.69334
6781.46850,0.69214
6779.53975,0.69085
6777.61101,0.69129
6775.68226,0.69097
6773.75352,0.68799
6771.82477,0.68529
6769.89603,0.68572
6767.96728,0.68803
6766.03854,0.69000
6764.10979,0.69149
6762.18105,0.69217
6760.25230,0.69203
6758.32356,0.69288
6756.39481,0.69380
6754.46607,0.69263
6752.53732,0.69029
6750.60858,0.68861
6748.67983,0.68888
6746.75108,0.69072
6744.82234,0.69188
6742.89359,0.69167
6740.96485,0.69156
6739.03610,0.69277
6737.10736,0.69536
6735.17861,0.69745
6733.24987,0.69647
6731.32112,0.69316
6729.39238,0.69057
6727.46363,0.68962
6725.53489,0.68983
6723.60614,0.69120
6721.67740,0.69262
6719.74865,0.69266
6717.81991,0.69238
6715.89116,0.69331
6713.96241,0.69436
6712.03367,0.69354
6710.10492,0.69098
6708.17618,0.68836
6706.24743,0.68861
6704.31869,0.69371
6702.38994,0.69884
6700.46120,0.69902
6698.53245,0.69775
6696.60371,0.69905
6694.67496,0.70052
6692.74622,0.69999
6690.81747,0.69863
6688.88873,0.69597
6686.95998,0.69370
6685.03123,0.69484
6683.10249,0.69642
6681.17374,0.69591
6679.24500,0.69483
6677.31625,0.69386
6675.38751,0.69310
6673.45876,0.69280
6671.53002,0.69369
6669.60127,0.69554
6667.67253,0.69664
6665.74378,0.69704
6663.81504,0.69837
6661.88629,0.70028
6659.95755,0.70067
6658.02880,0.69967
6656.10006,0.69936
6654.17131,0.69997
6652.24256,0.70016
6650.31382,0.70002
6648.38507,0.69992
6646.45633,0.70010
6644.52758,0.70160
6642.59884,0.70337
6640.67009,0.70352
6638.74135,0.70321
6636.81260,0.70444
6634.88386,0.70637
6632.95511,0.70673
6631.02637,0.70656
6629.09762,0.70786
6627.16888,0.70935
6625.24013,0.70930
6623.31139,0.70855
6621.38264,0.70903
6619.45389,0.70967
6617.52515,0.70809
6615.59640,0.70537
6613.66766,0.70334
6611.73891,0.70286
6609.81017,0.70469
6607.88142,0.70743
6605.95268,0.70849
6604.02393,0.70716
6602.09519,0.70628
6600.16644,0.70872
6598.23770,0.71226
6596.30895,0.71424
6594.38021,0.71531
6592.45146,0.71563
6590.52271,0.71476
6588.59397,0.71351
6586.66522,0.71328
6584.73648,0.71422
6582.80773,0.71481
6580.87899,0.71505
6578.95024,0.71636
6577.02150,0.71683
6575.09275,0.71426
6573.16401,0.71139
6571.23526,0.71061
6569.30652,0.71131
6567.37777,0.71307
6565.44903,0.71411
6563.52028,0.71282
6561.59154,0.71120
6559.66279,0.71137
6557.73404,0.71310
6555.80530,0.71479
6553.87655,0.71405
6551.94781,0.71161
6550.01906,0.71075
6548.09032,0.71093
6546.16157,0.71039
6544.23283,0.71041
6542.30408,0.71209
6540.37534,0.71498
6538.44659,0.71772
6536.51785,0.71795
6534.58910,0.71568
6532.66036,0.71393
6530.73161,0.71318
6528.80287,0.71220
6526.87412,0.71249
6524.94537,0.71437
6523.01663,0.71603
6521.08788,0.71746
6519.15914,0.71863
6517.23039,0.71922
6515.30165,0.72029
6513.37290,0.72203
6511.44416,0.72359
6509.51541,0.72458
6507.58667,0.72425
6505.65792,0.72225
6503.72918,0.71995
6501.80043,0.71805
6499.87169,0.71571
6497.94294,0.71358
6496.01419,0.71360
6494.08545,0.71562
6492.15670,0.71726
6490.22796,0.71750
6488.29921,0.71791
6486.37047,0.71877
6484.44172,0.71857
6482.51298,0.71757
6480.58423,0.71733
6478.65549,0.71876
6476.72674,0.72147
6474.79800,0.72296
6472.86925,0.72207
6470.94051,0.72085
6469.01176,0.71976
6467.08302,0.71834
6465.15427,0.71892
6463.22552,0.72173
6461.29678,0.72370
6459.36803,0.72320
6457.43929,0.72060
6455.51054,0.71824
6453.58180,0.71837
6451.65305,0.72015
6449.72431,0.72147
6447.79556,0.72125
6445.86682,0.72075
6443.93807,0.72168
6442.00933,0.72183
6440.08058,0.71938
6438.15184,0.71785
6436.22309,0.71953
6434.29434,0.72133
6432.36560,0.72120
6430.43685,0.72128
6428.50811,0.72238
6426.57936,0.72303
6424.65062,0.72349
6422.72187,0.72419
6420.79313,0.72382
6418.86438,0.72280
6416.93564,0.72338
6415.00689,0.72486
6413.07815,0.72496
6411.14940,0.72436
6409.22066,0.72486
6407.29191,0.72617
6405.36317,0.72647
6403.43442,0.72595
6401.50567,0.72669
6399.57693,0.72875
6397.64818,0.72984
6395.71944,0.72772
6393.79069,0.72360
6391.86195,0.72089
6389.93320,0.72036
6388.00446,0.72180
6386.07571,0.72442
6384.14697,0.72502
6382.21822,0.72242
6380.28948,0.72045
6378.36073,0.72272
6376.43199,0.72662
6374.50324,0.72781
6372.57450,0.72718
6370.64575,0.72722
6368.71700,0.72769
6366.78826,0.72719
6364.85951,0.72587
6362.93077,0.72518
6361.00202,0.72510
6359.07328,0.72528
6357.14453,0.72628
6355.21579,0.72772
6353.28704,0.72826
6351.35830,0.72767
6349.42955,0.72751
6347.50081,0.72801
6345.57206,0.72690
6343.64332,0.72405
6341.71457,0.72240
6339.78582,0.72343
6337.85708,0.72634
6335.92833,0.72932
6333.99959,0.73029
6332.07084,0.72941
6330.14210,0.72874
6328.21335,0.72910
6326.28461,0.72956
6324.35586,0.72971
6322.42712,0.73025
6320.49837,0.73083
6318.56963,0.73072
6316.64088,0.73040
6314.71214,0.73043
6312.78339,0.73114
6310.85465,0.73160
6308.92590,0.73071
6306.99715,0.72999
6305.06841,0.73089
6303.13966,0.73211
6301.21092,0.73208
6299.28217,0.73075
6297.35343,0.72910
6295.42468,0.72871
6293.49594,0.72999
6291.56719,0.73120
6289.63845,0.73155
6287.70970,0.73192
6285.78096,0.73240
6283.85221,0.73238
6281.92347,0.73148
6279.99472,0.73041
6278.06598,0.73027
6276.13723,0.73113
6274.20848,0.73218
6272.27974,0.73254
6270.35099,0.73320
6268.42225,0.73542
6266.49350,0.73726
6264.56476,0.73736
6262.63601,0.73741
6260.70727,0.73844
6258.77852,0.73972
6256.84978,0.74073
6254.92103,0.74121
6252.99229,0.74064
6251.06354,0.73966
6249.13480,0.73954
6247.20605,0.74034
6245.27730,0.74134
6243.34856,0.74174
6241.41981,0.74154
6239.49107,0.74163
6237.56232,0.74214
6235.63358,0.74317
6233.70483,0.74533
6231.77609,0.74773
6229.84734,0.74812
6227.91860,0.74698
6225.98985,0.74678
6224.06111,0.74728
6222.13236,0.74757
6220.20362,0.74828
6218.27487,0.74897
6216.34613,0.74915
6214.41738,0.74917
6212.48863,0.74890
6210.55989,0.74893
6208.63114,0.75046
6206.70240,0.75280
6204.77365,0.75424
6202.84491,0.75436
6200.91616,0.75399
6198.98742,0.75378
6197.05867,0.75331
6195.12993,0.75302
6193.20118,0.75414
6191.27244,0.75578
6189.34369,0.75668
6187.41495,0.75635
6185.48620,0.75488
6183.55746,0.75449
6181.62871,0.75619
6179.69996,0.75841
6177.77122,0.76005
6175.84247,0.75985
6173.91373,0.75790
6171.98498,0.75756
6170.05624,0.75969
6168.12749,0.76152
6166.19875,0.76262
6164.27000,0.76324
6162.34126,0.76247
6160.41251,0.76089
6158.48377,0.75996
6156.55502,0.76008
6154.62628,0.76022
6152.69753,0.76089
6150.76878,0.76348
6148.84004,0.76581
6146.91129,0.76559
6144.98255,0.76444
6143.05380,0.76455
6141.12506,0.76542
6139.19631,0.76563
6137.26757,0.76501
6135.33882,0.76439
6133.41008,0.76471
6131.48133,0.76556
6129.55259,0.76600
6127.62384,0.76616
6125.69510,0.76613
6123.76635,0.76526
6121.83761,0.76422
6119.90886,0.76504
6117.98011,0.76738
6116.05137,0.76954
6114.12262,0.77130
6112.19388,0.77267
6110.26513,0.77327
6108.33639,0.77254
6106.40764,0.77142
6104.47890,0.77154
6102.55015,0.77153
6100.62141,0.76958
6098.69266,0.76761
6096.76392,0.76818
6094.83517,0.77020
6092.90643,0.77119
6090.97768,0.77112
6089.04893,0.77076
6087.12019,0.77044
6085.19144,0.77105
6083.26270,0.77191
6081.33395,0.77106
6079.40521,0.76942
6077.47646,0.76826
6075.54772,0.76731
6073.61897,0.76765
6071.69023,0.76950
6069.76148,0.77061
6067.83274,0.76990
6065.90399,0.76854
6063.97525,0.76776
6062.04650,0.76795
6060.11776,0.76847
6058.18901,0.76749
6056.26026,0.76535
6054.33152,0.76443
6052.40277,0.76460
6050.47403,0.76430
6048.54528,0.76332
6046.61654,0.76218
6044.68779,0.76170
6042.75905,0.76263
6040.83030,0.76419
6038.90156,0.76477
6036.97281,0.76477
6035.04407,0.76527
6033.11532,0.76540
6031.18658,0.76397
6029.25783,0.76166
6027.32909,0.76024
6025.40034,0.76035
6023.47159,0.76047
6021.54285,0.75887
6019.61410,0.75671
6017.68536,0.75606
6015.75661,0.75610
6013.82787,0.75509
6011.89912,0.75371
6009.97038,0.75359
6008.04163,0.75409
6006.11289,0.75371
6004.18414,0.75266
6002.25540,0.75174
6000.32665,0.75088
5998.39791,0.74948
5996.46916,0.74859
5994.54041,0.74932
5992.61167,0.74965
5990.68292,0.74817
5988.75418,0.74703
5986.82543,0.74813
5984.89669,0.74997
5982.96794,0.75049
5981.03920,0.74977
5979.11045,0.74796
5977.18171,0.74574
5975.25296,0.74465
5973.32422,0.74515
5971.39547,0.74638
5969.46673,0.74676
5967.53798,0.74622
5965.60924,0.74561
5963.68049,0.74467
5961.75174,0.74360
5959.82300,0.74363
5957.89425,0.74517
5955.96551,0.74719
5954.03676,0.74877
5952.10802,0.74975
5950.17927,0.74944
5948.25053,0.74800
5946.32178,0.74672
5944.39304,0.74534
5942.46429,0.74425
5940.53555,0.74537
5938.60680,0.74720
5936.67806,0.74674
5934.74931,0.74515
5932.82057,0.74533
5930.89182,0.74742
5928.96307,0.74821
5927.03433,0.74649
5925.10558,0.74540
5923.17684,0.74602
5921.24809,0.74644
5919.31935,0.74601
5917.39060,0.74499
5915.46186,0.74402
5913.53311,0.74403
5911.60437,0.74460
5909.67562,0.74442
5907.74688,0.74294
5905.81813,0.74093
5903.88939,0.73991
5901.96064,0.74058
5900.03189,0.74156
5898.10315,0.74121
5896.17440,0.74020
5894.24566,0.73933
5892.31691,0.73820
5890.38817,0.73763
5888.45942,0.73811
5886.53068,0.73829
5884.60193,0.73748
5882.67319,0.73670
5880.74444,0.73728
5878.81570,0.73901
5876.88695,0.74056
5874.95821,0.74092
5873.02946,0.73978
5871.10072,0.73806
5869.17197,0.73735
5867.24322,0.73799
5865.31448,0.73902
5863.38573,0.73945
5861.45699,0.73912
5859.52824,0.73853
5857.59950,0.73828
5855.67075,0.73876
5853.74201,0.73922
5851.81326,0.73865
5849.88452,0.73773
5847.95577,0.73785
5846.02703,0.73885
5844.09828,0.73951
5842.16954,0.73964
5840.24079,0.74020
5838.31205,0.74089
5836.38330,0.74057
5834.45455,0.74010
5832.52581,0.74047
5830.59706,0.74037
5828.66832,0.73930
5826.73957,0.73852
5824.81083,0.73834
5822.88208,0.73823
5820.95334,0.73780
5819.02459,0.73773
5817.09585,0.73832
5815.16710,0.73813
5813.23836,0.73693
5811.30961,0.73584
5809.38087,0.73493
5807.45212,0.73487
5805.52337,0.73572
5803.59463,0.73545
5801.66588,0.73382
5799.73714,0.73274
5797.80839,0.73299
5795.87965,0.73354
5793.95090,0.73367
5792.02216,0.73425
5790.09341,0.73520
5788.16467,0.73523
5786.23592,0.73463
5784.30718,0.73445
5782.37843,0.73520
5780.44969,0.73666
5778.52094,0.73776
5776.59220,0.73850
5774.66345,0.73965
5772.73470,0.74031
5770.80596,0.73999
5768.87721,0.74012
5766.94847,0.74059
5765.01972,0.73990
5763.09098,0.73860
5761.16223,0.73787
5759.23349,0.73781
5757.30474,0.73848
5755.37600,0.73968
5753.44725,0.74072
5751.51851,0.74050
5749.58976,0.73857
5747.66102,0.73692
5745.73227,0.73716
5743.80352,0.73836
5741.87478,0.73945
5739.94603,0.74003
5738.01729,0.73986
5736.08854,0.73912
5734.15980,0.73843
5732.23105,0.73857
5730.30231,0.73982
5728.37356,0.74102
5726.44482,0.74048
5724.51607,0.73885
5722.58733,0.73873
5720.65858,0.74089
5718.72984,0.74339
5716.80109,0.74426
5714.87235,0.74360
5712.94360,0.74240
5711.01485,0.74083
5709.08611,0.73949
5707.15736,0.73913
5705.22862,0.73904
5703.29987,0.73879
5701.37113,0.73875
5699.44238,0.73918
5697.51364,0.74024
5695.58489,0.74123
5693.65615,0.74126
5691.72740,0.74013
5689.79866,0.73876
5687.86991,0.73869
5685.94117,0.74019
5684.01242,0.74154
5682.08368,0.74133
5680.15493,0.74077
5678.22618,0.74121
5676.29744,0.74152
5674.36869,0.74130
5672.43995,0.74158
5670.51120,0.74162
5668.58246,0.74034
5666.65371,0.73868
5664.72497,0.73831
5662.79622,0.73958
5660.86748,0.74104
5658.93873,0.74149
5657.00999,0.74112
5655.08124,0.74057
5653.15250,0.74076
5651.22375,0.74168
5649.29500,0.74183
5647.36626,0.74077
5645.43751,0.73963
5643.50877,0.73894
5641.58002,0.73863
5639.65128,0.73929
5637.72253,0.74085
5635.79379,0.74186
5633.86504,0.74150
5631.93630,0.74059
5630.00755,0.74049
5628.07881,0.74139
5626.15006,0.74174
5624.22132,0.74093
5622.29257,0.74053
5620.36383,0.74088
5618.43508,0.74065
5616.50633,0.74016
5614.57759,0.74020
5612.64884,0.74004
5610.72010,0.73974
5608.79135,0.74001
5606.86261,0.74031
5604.93386,0.74008
5603.00512,0.73953
5601.07637,0.73911
5599.14763,0.73918
5597.21888,0.73968
5595.29014,0.73994
5593.36139,0.73980
5591.43265,0.74003
5589.50390,0.74092
5587.57516,0.74170
5585.64641,0.74138
5583.71766,0.74025
5581.78892,0.73975
5579.86017,0.74042
5577.93143,0.74164
5576.00268,0.74245
5574.07394,0.74265
5572.14519,0.74270
5570.21645,0.74249
5568.28770,0.74227
5566.35896,0.74230
5564.43021,0.74190
5562.50147,0.74127
5560.57272,0.74161
5558.64398,0.74290
5556.71523,0.74420
5554.78648,0.74523
5552.85774,0.74545
5550.92899,0.74417
5549.00025,0.74292
5547.07150,0.74327
5545.14276,0.74408
5543.21401,0.74454
5541.28527,0.74494
5539.35652,0.74515
5537.42778,0.74529
5535.49903,0.74545
5533.57029,0.74568
5531.64154,0.74602
5529.71280,0.74579
5527.78405,0.74500
5525.85531,0.74468
5523.92656,0.74507
5521.99781,0.74537
5520.06907,0.74513
5518.14032,0.74518
5516.21158,0.74606
5514.28283,0.74712
5512.35409,0.74765
5510.42534,0.74764
5508.49660,0.74766
5506.56785,0.74829
5504.63911,0.74934
5502.71036,0.75000
5500.78162,0.74978
5498.85287,0.74855
5496.92413,0.74697
5494.99538,0.74664
5493.06664,0.74782
5491.13789,0.74908
5489.20914,0.74932
5487.28040,0.74895
5485.35165,0.74889
5483.42291,0.74907
5481.49416,0.74899
5479.56542,0.74867
5477.63667,0.74853
5475.70793,0.74871
5473.77918,0.74915
5471.85044,0.75005
5469.92169,0.75096
5467.99295,0.75143
5466.06420,0.75174
5464.13546,0.75150
5462.20671,0.75034
5460.27796,0.74951
5458.34922,0.74990
5456.42047,0.75060
5454.49173,0.75106
5452.56298,0.75142
5450.63424,0.75202
5448.70549,0.75300
5446.77675,0.75336
5444.84800,0.75306
5442.91926,0.75328
5440.99051,0.75370
5439.06177,0.75383
5437.13302,0.75439
5435.20428,0.75524
5433.27553,0.75529
5431.34679,0.75469
5429.41804,0.75429
5427.48929,0.75437
5425.56055,0.75496
5423.63180,0.75575
5421.70306,0.75618
5419.77431,0.75660
5417.84557,0.75765
5415.91682,0.75868
5413.98808,0.75904
5412.05933,0.75899
5410.13059,0.75874
5408.20184,0.75866
5406.27310,0.75896
5404.34435,0.75934
5402.41561,0.75948
5400.48686,0.75928
5398.55811,0.75888
5396.62937,0.75864
5394.70062,0.75891
5392.77188,0.75974
5390.84313,0.76080
5388.91439,0.76124
5386.98564,0.76090
5385.05690,0.76069
5383.12815,0.76042
5381.19941,0.75975
5379.27066,0.75952
5377.34192,0.75952
5375.41317,0.75887
5373.48443,0.75837
5371.55568,0.75919
5369.62694,0.76056
5367.69819,0.76094
5365.76944,0.76026
5363.84070,0.75955
5361.91195,0.75958
5359.98321,0.76014
5358.05446,0.76031
5356.12572,0.75997
5354.19697,0.75978
5352.26823,0.75983
5350.33948,0.75981
5348.41074,0.75951
5346.48199,0.75872
5344.55325,0.75765
5342.62450,0.75691
5340.69576,0.75678
5338.76701,0.75675
5336.83827,0.75631
5334.90952,0.75533
5332.98077,0.75422
5331.05203,0.75338
5329.12328,0.75279
5327.19454,0.75246
5325.26579,0.75206
5323.33705,0.75109
5321.40830,0.74973
5319.47956,0.74842
5317.55081,0.74756
5315.62207,0.74680
5313.69332,0.74532
5311.76458,0.74340
5309.83583,0.74157
5307.90709,0.73959
5305.97834,0.73753
5304.04959,0.73571
5302.12085,0.73392
5300.19210,0.73217
5298.26336,0.73068
5296.33461,0.72921
5294.40587,0.72737
5292.47712,0.72507
5290.54838,0.72287
5288.61963,0.72072
5286.69089,0.71806
5284.76214,0.71549
5282.83340,0.71307
5280.90465,0.70973
5278.97591,0.70593
5277.04716,0.70290
5275.11842,0.70041
5273.18967,0.69774
5271.26092,0.69458
5269.33218,0.69099
5267.40343,0.68769
5265.47469,0.68490
5263.54594,0.68192
5261.61720,0.67810
5259.68845,0.67401
5257.75971,0.67077
5255.83096,0.66803
5253.90222,0.66491
5251.97347,0.66169
5250.04473,0.65887
5248.11598,0.65623
5246.18724,0.65376
5244.25849,0.65183
5242.32975,0.65024
5240.40100,0.64859
5238.47225,0.64660
5236.54351,0.64388
5234.61476,0.64116
5232.68602,0.63963
5230.75727,0.63902
5228.82853,0.63816
5226.89978,0.63670
5224.97104,0.63500
5223.04229,0.63328
5221.11355,0.63205
5219.18480,0.63156
5217.25606,0.63106
5215.32731,0.62994
5213.39857,0.62861
5211.46982,0.62779
5209.54107,0.62730
5207.61233,0.62622
5205.68358,0.62485
5203.75484,0.62408
5201.82609,0.62370
5199.89735,0.62360
5197.96860,0.62379
5196.03986,0.62336
5194.11111,0.62248
5192.18237,0.62295
5190.25362,0.62454
5188.32488,0.62518
5186.39613,0.62486
5184.46739,0.62512
5182.53864,0.62601
5180.60990,0.62629
5178.68115,0.62611
5176.75240,0.62689
5174.82366,0.62840
5172.89491,0.62915
5170.96617,0.62892
5169.03742,0.62847
5167.10868,0.62872
5165.17993,0.63004
5163.25119,0.63150
5161.32244,0.63230
5159.39370,0.63288
5157.46495,0.63350
5155.53621,0.63383
5153.60746,0.63416
5151.67872,0.63496
5149.74997,0.63615
5147.82123,0.63733
5145.89248,0.63837
5143.96373,0.63955
5142.03499,0.64097
5140.10624,0.64212
5138.17750,0.64275
5136.24875,0.64354
5134.32001,0.64492
5132.39126,0.64604
5130.46252,0.64624
5128.53377,0.64625
5126.60503,0.64708
5124.67628,0.64844
5122.74754,0.64958
5120.81879,0.65049
5118.89005,0.65138
5116.96130,0.65229
5115.03255,0.65322
5113.10381,0.65441
5111.17506,0.65577
5109.24632,0.65639
5107.31757,0.65653
5105.38883,0.65726
5103.46008,0.65823
5101.53134,0.65880
5099.60259,0.65906
5097.67385,0.65943
5095.74510,0.66025
5093.81636,0.66130
5091.88761,0.66235
5089.95887,0.66335
5088.03012,0.66417
5086.10138,0.66504
5084.17263,0.66632
5082.24388,0.66778
5080.31514,0.66874
5078.38639,0.66899
5076.45765,0.66904
5074.52890,0.66938
5072.60016,0.67008
5070.67141,0.67091
5068.74267,0.67157
5066.81392,0.67220
5064.88518,0.67295
5062.95643,0.67368
5061.02769,0.67474
5059.09894,0.67587
5057.17020,0.67591
5055.24145,0.67515
5053.31270,0.67523
5051.38396,0.67653
5049.45521,0.67819
5047.52647,0.67966
5045.59772,0.68048
5043.66898,0.68061
5041.74023,0.68082
5039.81149,0.68146
5037.88274,0.68216
5035.95400,0.68263
5034.02525,0.68276
5032.09651,0.68301
5030.16776,0.68387
5028.23902,0.68454
5026.31027,0.68446
5024.38153,0.68445
5022.45278,0.68497
5020.52403,0.68563
5018.59529,0.68590
5016.66654,0.68566
5014.73780,0.68529
5012.80905,0.68519
5010.88031,0.68572
5008.95156,0.68646
5007.02282,0.68692
5005.09407,0.68713
5003.16533,0.68682
5001.23658,0.68616
4999.30784,0.68601
4997.37909,0.68612
4995.45035,0.68559
4993.52160,0.68480
4991.59286,0.68459
4989.66411,0.68463
4987.73536,0.68450
4985.80662,0.68449
4983.87787,0.68431
4981.94913,0.68338
4980.02038,0.68232
4978.09164,0.68177
4976.16289,0.68155
4974.23415,0.68120
4972.30540,0.68036
4970.37666,0.67933
4968.44791,0.67835
4966.51917,0.67725
4964.59042,0.67625
4962.66168,0.67519
4960.73293,0.67357
4958.80418,0.67187
4956.87544,0.67069
4954.94669,0.66984
4953.01795,0.66881
4951.08920,0.66718
4949.16046,0.66541
4947.23171,0.66408
4945.30297,0.66269
4943.37422,0.66088
4941.44548,0.65931
4939.51673,0.65839
4937.58799,0.65740
4935.65924,0.65583
4933.73050,0.65400
4931.80175,0.65217
4929.87301,0.65038
4927.94426,0.64855
4926.01551,0.64665
4924.08677,0.64473
4922.15802,0.64311
4920.22928,0.64191
4918.30053,0.64044
4916.37179,0.63857
4914.44304,0.63709
4912.51430,0.63599
4910.58555,0.63458
4908.65681,0.63270
4906.72806,0.63065
4904.79932,0.62858
4902.87057,0.62638
4900.94183,0.62429
4899.01308,0.62291
4897.08434,0.62199
4895.15559,0.62071
4893.22684,0.61888
4891.29810,0.61664
4889.36935,0.61451
4887.44061,0.61306
4885.51186,0.61214
4883.58312,0.61118
4881.65437,0.60963
4879.72563,0.60748
4877.79688,0.60537
4875.86814,0.60391
4873.93939,0.60289
4872.01065,0.60185
4870.08190,0.60060
4868.15316,0.59892
4866.22441,0.59733
4864.29566,0.59657
4862.36692,0.59593
4860.43817,0.59425
4858.50943,0.59186
4856.58068,0.58998
4854.65194,0.58901
4852.72319,0.58829
4850.79445,0.58705
4848.86570,0.58550
4846.93696,0.58447
4845.00821,0.58387
4843.07947,0.58277
4841.15072,0.58124
4839.22198,0.58027
4837.29323,0.57972
4835.36449,0.57852
4833.43574,0.57682
4831.50699,0.57559
4829.57825,0.57489
4827.64950,0.57423
4825.72076,0.57332
4823.79201,0.57218
4821.86327,0.57120
4819.93452,0.57026
4818.00578,0.56913
4816.07703,0.56816
4814.14829,0.56750
4812.21954,0.56701
4810.29080,0.56679
4808.36205,0.56672
4806.43331,0.56648
4804.50456,0.56604
4802.57582,0.56522
4800.64707,0.56399
4798.71832,0.56315
4796.78958,0.56294
4794.86083,0.56273
4792.93209,0.56250
4791.00334,0.56234
4789.07460,0.56174
4787.14585,0.56082
4785.21711,0.56030
4783.28836,0.56025
4781.35962,0.56025
4779.43087,0.56004
4777.50213,0.55981
4775.57338,0.55976
4773.64464,0.55999
4771.71589,0.56020
4769.78714,0.55974
4767.85840,0.55874
4765.92965,0.55810
4764.00091,0.55820
4762.07216,0.55860
4760.14342,0.55868
4758.21467,0.55842
4756.28593,0.55847
4754.35718,0.55924
4752.42844,0.56014
4750.49969,0.56033
4748.57095,0.55974
4746.64220,0.55910
4744.71346,0.55899
4742.78471,0.55940
4740.85597,0.55999
4738.92722,0.56021
4736.99847,0.55979
4735.06973,0.55911
4733.14098,0.55860
4731.21224,0.55868
4729.28349,0.55934
4727.35475,0.55974
4725.42600,0.55958
4723.49726,0.55962
4721.56851,0.55996
4719.63977,0.55981
4717.71102,0.55931
4715.78228,0.55960
4713.85353,0.56088
4711.92479,0.56229
4709.99604,0.56319
4708.06729,0.56331
4706.13855,0.56283
4704.20980,0.56243
4702.28106,0.56254
4700.35231,0.56301
4698.42357,0.56359
4696.49482,0.56404
4694.56608,0.56399
4692.63733,0.56354
4690.70859,0.56335
4688.77984,0.56375
4686.85110,0.56453
4684.92235,0.56509
4682.99361,0.56526
4681.06486,0.56579
4679.13612,0.56680
4677.20737,0.56770
4675.27862,0.56831
4673.34988,0.56877
4671.42113,0.56926
4669.49239,0.56973
4667.56364,0.56994
4665.63490,0.57007
4663.70615,0.57061
4661.77741,0.57155
4659.84866,0.57262
4657.91992,0.57351
4655.99117,0.57401
4654.06243,0.57428
4652.13368,0.57467
4650.20494,0.57538
4648.27619,0.57601
4646.34745,0.57609
4644.41870,0.57619
4642.48995,0.57713
4640.56121,0.57851
4638.63246,0.57969
4636.70372,0.58086
4634.77497,0.58191
4632.84623,0.58241
4630.91748,0.58261
4628.98874,0.58319
4627.05999,0.58434
4625.13125,0.58555
4623.20250,0.58654
4621.27376,0.58764
4619.34501,0.58890
4617.41627,0.59014
4615.48752,0.59125
4613.55877,0.59226
4611.63003,0.59334
4609.70128,0.59435
4607.77254,0.59493
4605.84379,0.59542
4603.91505,0.59633
4601.98630,0.59758
4600.05756,0.59882
4598.12881,0.59963
4596.20007,0.60006
4594.27132,0.60054
4592.34258,0.60128
4590.41383,0.60209
4588.48509,0.60287
4586.55634,0.60397
4584.62760,0.60539
4582.69885,0.60648
4580.77010,0.60693
4578.84136,0.60697
4576.91261,0.60709
4574.98387,0.60754
4573.05512,0.60818
4571.12638,0.60886
4569.19763,0.60942
4567.26889,0.61008
4565.34014,0.61118
4563.41140,0.61223
4561.48265,0.61250
4559.55391,0.61240
4557.62516,0.61250
4555.69642,0.61251
4553.76767,0.61244
4551.83893,0.61300
4549.91018,0.61412
4547.98143,0.61501
4546.05269,0.61559
4544.12394,0.61607
4542.19520,0.61647
4540.26645,0.61686
4538.33771,0.61716
4536.40896,0.61733
4534.48022,0.61764
4532.55147,0.61824
4530.62273,0.61888
4528.69398,0.61918
4526.76524,0.61912
4524.83649,0.61887
4522.90775,0.61860
4520.97900,0.61864
4519.05025,0.61884
4517.12151,0.61883
4515.19276,0.61863
4513.26402,0.61821
4511.33527,0.61760
4509.40653,0.61716
4507.47778,0.61691
4505.54904,0.61639
4503.62029,0.61547
4501.69155,0.61461
4499.76280,0.61415
4497.83406,0.61378
4495.90531,0.61285
4493.97657,0.61140
4492.04782,0.61038
4490.11908,0.60986
4488.19033,0.60886
4486.26158,0.60735
4484.33284,0.60594
4482.40409,0.60457
4480.47535,0.60302
4478.54660,0.60140
4476.61786,0.59972
4474.68911,0.59778
4472.76037,0.59556
4470.83162,0.59337
4468.90288,0.59120
4466.97413,0.58876
4465.04539,0.58626
4463.11664,0.58397
4461.18790,0.58187
4459.25915,0.57991
4457.33041,0.57787
4455.40166,0.57556
4453.47291,0.57327
4451.54417,0.57130
4449.61542,0.56930
4447.68668,0.56708
4445.75793,0.56496
4443.82919,0.56306
4441.90044,0.56113
4439.97170,0.55891
4438.04295,0.55644
4436.11421,0.55413
4434.18546,0.55202
4432.25672,0.54981
4430.32797,0.54747
4428.39923,0.54510
4426.47048,0.54267
4424.54173,0.54001
4422.61299,0.53727
4420.68424,0.53485
4418.75550,0.53258
4416.82675,0.53005
4414.89801,0.52750
4412.96926,0.52542
4411.04052,0.52399
4409.11177,0.52293
4407.18303,0.52198
4405.25428,0.52120
4403.32554,0.52053
4401.39679,0.51979
4399.46805,0.51900
4397.53930,0.51824
4395.61056,0.51783
4393.68181,0.51805
4391.75306,0.51879
4389.82432,0.51973
4387.89557,0.52066
4385.96683,0.52153
4384.03808,0.52226
4382.10934,0.52276
4380.18059,0.52320
4378.25185,0.52383
4376.32310,0.52473
4374.39436,0.52574
4372.46561,0.52661
4370.53687,0.52709
4368.60812,0.52741
4366.67938,0.52814
4364.75063,0.52917
4362.82189,0.52981
4360.89314,0.53011
4358.96439,0.53057
4357.03565,0.53111
4355.10690,0.53142
4353.17816,0.53150
4351.24941,0.53139
4349.32067,0.53128
4347.39192,0.53135
4345.46318,0.53141
4343.53443,0.53119
4341.60569,0.53068
4339.67694,0.53008
4337.74820,0.52961
4335.81945,0.52929
4333.89071,0.52885
4331.96196,0.52804
4330.03321,0.52713
4328.10447,0.52667
4326.17572,0.52645
4324.24698,0.52606
4322.31823,0.52558
4320.38949,0.52491
4318.46074,0.52387
4316.53200,0.52284
4314.60325,0.52229
4312.67451,0.52211
4310.74576,0.52186
4308.81702,0.52130
4306.88827,0.52046
4304.95953,0.51942
4303.03078,0.51818
4301.10204,0.51713
4299.17329,0.51655
4297.24454,0.51599
4295.31580,0.51522
4293.38705,0.51464
4291.45831,0.51435
4289.52956,0.51405
4287.60082,0.51352
4285.67207,0.51281
4283.74333,0.51243
4281.81458,0.51272
4279.88584,0.51285
4277.95709,0.51232
4276.02835,0.51206
4274.09960,0.51264
4272.17086,0.51320
4270.24211,0.51339
4268.31336,0.51385
4266.38462,0.51464
4264.45587,0.51509
4262.52713,0.51526
4260.59838,0.51566
4258.66964,0.51630
4256.74089,0.51700
4254.81215,0.51771
4252.88340,0.51842
4250.95466,0.51906
4249.02591,0.51943
4247.09717,0.51949
4245.16842,0.51952
4243.23968,0.51972
4241.31093,0.52004
4239.38219,0.52012
4237.45344,0.51984
4235.52469,0.51964
4233.59595,0.51988
4231.66720,0.52032
4229.73846,0.52046
4227.80971,0.52039
4225.88097,0.52047
4223.95222,0.52061
4222.02348,0.52068
4220.09473,0.52077
4218.16599,0.52066
4216.23724,0.52055
4214.30850,0.52082
4212.37975,0.52104
4210.45101,0.52103
4208.52226,0.52109
4206.59352,0.52117
4204.66477,0.52128
4202.73602,0.52162
4200.80728,0.52221
4198.87853,0.52268
4196.94979,0.52264
4195.02104,0.52224
4193.09230,0.52198
4191.16355,0.52209
4189.23481,0.52239
4187.30606,0.52275
4185.37732,0.52328
4183.44857,0.52400
4181.51983,0.52474
4179.59108,0.52531
4177.66234,0.52566
4175.73359,0.52606
4173.80484,0.52662
4171.87610,0.52716
4169.94735,0.52760
4168.01861,0.52805
4166.08986,0.52858
4164.16112,0.52902
4162.23237,0.52925
4160.30363,0.52941
4158.37488,0.52947
4156.44614,0.52929
4154.51739,0.52897
4152.58865,0.52853
4150.65990,0.52807
4148.73116,0.52767
4146.80241,0.52715
4144.87367,0.52642
4142.94492,0.52554
4141.01617,0.52475
4139.08743,0.52430
4137.15868,0.52400
4135.22994,0.52328
4133.30119,0.52214
4131.37245,0.52117
4129.44370,0.52043
4127.51496,0.51943
4125.58621,0.51797
4123.65747,0.51639
4121.72872,0.51513
4119.79998,0.51401
4117.87123,0.51270
4115.94249,0.51123
4114.01374,0.50968
4112.08500,0.50798
4110.15625,0.50640
4108.22750,0.50515
4106.29876,0.50391
4104.37001,0.50229
4102.44127,0.50044
4100.51252,0.49875
4098.58378,0.49732
4096.65503,0.49586
4094.72629,0.49423
4092.79754,0.49256
4090.86880,0.49093
4088.94005,0.48914
4087.01131,0.48702
4085.08256,0.48483
4083.15382,0.48301
4081.22507,0.48149
4079.29632,0.47982
4077.36758,0.47796
4075.43883,0.47609
4073.51009,0.47408
4071.58134,0.47200
4069.65260,0.47003
4067.72385,0.46823
4065.79511,0.46662
4063.86636,0.46490
4061.93762,0.46289
4060.00887,0.46096
4058.08013,0.45917
4056.15138,0.45726
4054.22264,0.45543
4052.29389,0.45395
4050.36515,0.45254
4048.43640,0.45087
4046.50765,0.44908
4044.57891,0.44761
4042.65016,0.44658
4040.72142,0.44540
4038.79267,0.44376
4036.86393,0.44215
4034.93518,0.44106
4033.00644,0.44034
4031.07769,0.43948
4029.14895,0.43845
4027.22020,0.43755
4025.29146,0.43682
4023.36271,0.43618
4021.43397,0.43560
4019.50522,0.43492
4017.57648,0.43422
4015.64773,0.43385
4013.71898,0.43386
4011.79024,0.43401
4009.86149,0.43403
4007.93275,0.43387
4006.00400,0.43382
4004.07526,0.43415
4002.14651,0.43468
4000.21777,0.43527
3998.28902,0.43573
3996.36028,0.43601
3994.43153,0.43649
3992.50279,0.43717
3990.57404,0.43785
3988.64530,0.43850
3986.71655,0.43900
3984.78780,0.43934
3982.85906,0.43966
3980.93031,0.44007
3979.00157,0.44064
3977.07282,0.44139
3975.14408,0.44221
3973.21533,0.44290
3971.28659,0.44337
3969.35784,0.44394
3967.42910,0.44486
3965.50035,0.44588
3963.57161,0.44677
3961.64286,0.44765
3959.71412,0.44854
3957.78537,0.44953
3955.85663,0.45061
3953.92788,0.45152
3951.99913,0.45228
3950.07039,0.45296
3948.14164,0.45359
3946.21290,0.45436
3944.28415,0.45544
3942.35541,0.45680
3940.42666,0.45789
3938.49792,0.45864
3936.56917,0.45964
3934.64043,0.46080
3932.71168,0.46176
3930.78294,0.46277
3928.85419,0.46384
3926.92545,0.46477
3924.99670,0.46568
3923.06795,0.46664
3921.13921,0.46758
3919.21046,0.46849
3917.28172,0.46944
3915.35297,0.47037
3913.42423,0.47132
3911.49548,0.47249
3909.56674,0.47368
3907.63799,0.47444
3905.70925,0.47476
3903.78050,0.47514
3901.85176,0.47602
3899.92301,0.47723
3897.99427,0.47820
3896.06552,0.47886
3894.13678,0.47964
3892.20803,0.48061
3890.27928,0.48128
3888.35054,0.48156
3886.42179,0.48208
3884.49305,0.48296
3882.56430,0.48385
3880.63556,0.48459
3878.70681,0.48514
3876.77807,0.48562
3874.84932,0.48622
3872.92058,0.48689
3870.99183,0.48771
3869.06309,0.48884
3867.13434,0.49001
3865.20560,0.49105
3863.27685,0.49208
3861.34811,0.49306
3859.41936,0.49392
3857.49061,0.49482
3855.56187,0.49619
3853.63312,0.49797
3851.70438,0.49906
3849.77563,0.49941
3847.84689,0.49980
3845.91814,0.50038
3843.98940,0.50103
3842.06065,0.50177
3840.13191,0.50268
3838.20316,0.50362
3836.27442,0.50428
3834.34567,0.50464
3832.41693,0.50470
3830.48818,0.50455
3828.55943,0.50482
3826.63069,0.50567
3824.70194,0.50649
3822.77320,0.50695
3820.84445,0.50696
3818.91571,0.50664
3816.98696,0.50653
3815.05822,0.50674
3813.12947,0.50696
3811.20073,0.50701
3809.27198,0.50696
3807.34324,0.50699
3805.41449,0.50713
3803.48575,0.50739
3801.55700,0.50750
3799.62826,0.50719
3797.69951,0.50675
3795.77076,0.50645
3793.84202,0.50642
3791.91327,0.50655
3789.98453,0.50643
3788.05578,0.50600
3786.12704,0.50569
3784.19829,0.50577
3782.26955,0.50591
3780.34080,0.50572
3778.41206,0.50538
3776.48331,0.50525
3774.55457,0.50532
3772.62582,0.50517
3770.69708,0.50470
3768.76833,0.50410
3766.83959,0.50355
3764.91084,0.50328
3762.98209,0.50311
3761.05335,0.50266
3759.12460,0.50190
3757.19586,0.50111
3755.26711,0.50045
3753.33837,0.49988
3751.40962,0.49941
3749.48088,0.49908
3747.55213,0.49874
3745.62339,0.49797
3743.69464,0.49641
3741.76590,0.49466
3739.83715,0.49350
3737.90841,0.49289
3735.97966,0.49227
3734.05091,0.49108
3732.12217,0.48940
3730.19342,0.48783
3728.26468,0.48648
3726.33593,0.48503
3724.40719,0.48339
3722.47844,0.48181
3720.54970,0.48018
3718.62095,0.47809
3716.69221,0.47572
3714.76346,0.47370
3712.83472,0.47188
3710.90597,0.46966
3708.97723,0.46693
3707.04848,0.46396
3705.11974,0.46109
3703.19099,0.45832
3701.26224,0.45516
3699.33350,0.45163
3697.40475,0.44786
3695.47601,0.44384
3693.54726,0.43989
3691.61852,0.43586
3689.68977,0.43089
3687.76103,0.42509
3685.83228,0.41960
3683.90354,0.41441
3681.97479,0.40885
3680.04605,0.40295
3678.11730,0.39702
3676.18856,0.39070
3674.25981,0.38393
3672.33107,0.37708
3670.40232,0.36982
3668.47357,0.36218
3666.54483,0.35469
3664.61608,0.34740
3662.68734,0.34034
3660.75859,0.33362
3658.82985,0.32712
3656.90110,0.32048
3654.97236,0.31396
3653.04361,0.30814
3651.11487,0.30239
3649.18612,0.29605
3647.25738,0.28980
3645.32863,0.28415
3643.39989,0.27856
3641.47114,0.27290
3639.54239,0.26755
3637.61365,0.26243
3635.68490,0.25731
3633.75616,0.25222
3631.82741,0.24733
3629.89867,0.24240
3627.96992,0.23718
3626.04118,0.23213
3624.11243,0.22748
3622.18369,0.22297
3620.25494,0.21829
3618.32620,0.21345
3616.39745,0.20894
3614.46871,0.20480
3612.53996,0.20059
3610.61122,0.19595
3608.68247,0.19094
3606.75372,0.18611
3604.82498,0.18175
3602.89623,0.17760
3600.96749,0.17353
3599.03874,0.16965
3597.11000,0.16578
3595.18125,0.16196
3593.25251,0.15831
3591.32376,0.15464
3589.39502,0.15101
3587.46627,0.14772
3585.53753,0.14467
3583.60878,0.14155
3581.68004,0.13843
3579.75129,0.13561
3577.82254,0.13308
3575.89380,0.13047
3573.96505,0.12780
3572.03631,0.12536
3570.10756,0.12316
3568.17882,0.12118
3566.25007,0.11929
3564.32133,0.11707
3562.39258,0.11468
3560.46384,0.11256
3558.53509,0.11066
3556.60635,0.10883
3554.67760,0.10701
3552.74886,0.10526
3550.82011,0.10398
3548.89137,0.10290
3546.96262,0.10133
3545.03387,0.09954
3543.10513,0.09816
3541.17638,0.09702
3539.24764,0.09577
3537.31889,0.09443
3535.39015,0.09300
3533.46140,0.09157
3531.53266,0.09010
3529.60391,0.08876
3527.67517,0.08802
3525.74642,0.08766
3523.81768,0.08716
3521.88893,0.08648
3519.96019,0.08548
3518.03144,0.08427
3516.10270,0.08334
3514.17395,0.08267
3512.24520,0.08194
3510.31646,0.08129
3508.38771,0.08074
3506.45897,0.08018
3504.53022,0.07948
3502.60148,0.07854
3500.67273,0.07767
3498.74399,0.07705
3496.81524,0.07643
3494.88650,0.07559
3492.95775,0.07466
3491.02901,0.07391
3489.10026,0.07335
3487.17152,0.07283
3485.24277,0.07237
3483.31402,0.07192
3481.38528,0.07133
3479.45653,0.07069
3477.52779,0.07014
3475.59904,0.06969
3473.67030,0.06919
3471.74155,0.06867
3469.81281,0.06837
3467.88406,0.06834
3465.95532,0.06834
3464.02657,0.06831
3462.09783,0.06838
3460.16908,0.06834
3458.24034,0.06793
3456.31159,0.06735
3454.38285,0.06699
3452.45410,0.06700
3450.52535,0.06700
3448.59661,0.06685
3446.66786,0.06679
3444.73912,0.06679
3442.81037,0.06656
3440.88163,0.06628
3438.95288,0.06645
3437.02414,0.06689
3435.09539,0.06693
3433.16665,0.06644
3431.23790,0.06584
3429.30916,0.06548
3427.38041,0.06534
3425.45167,0.06532
3423.52292,0.06538
3421.59418,0.06543
3419.66543,0.06551
3417.73668,0.06579
3415.80794,0.06610
3413.87919,0.06606
3411.95045,0.06580
3410.02170,0.06585
3408.09296,0.06619
3406.16421,0.06635
3404.23547,0.06625
3402.30672,0.06615
3400.37798,0.06614
3398.44923,0.06616
3396.52049,0.06606
3394.59174,0.06590
3392.66300,0.06589
3390.73425,0.06598
3388.80550,0.06619
3386.87676,0.06658
3384.94801,0.06689
3383.01927,0.06692
3381.09052,0.06683
3379.16178,0.06673
3377.23303,0.06667
3375.30429,0.06670
3373.37554,0.06682
3371.44680,0.06703
3369.51805,0.06725
3367.58931,0.06747
3365.66056,0.06772
3363.73182,0.06791
3361.80307,0.06777
3359.87433,0.06760
3357.94558,0.06799
3356.01683,0.06849
3354.08809,0.06840
3352.15934,0.06803
3350.23060,0.06808
3348.30185,0.06873
3346.37311,0.06952
3344.44436,0.07000
3342.51562,0.07030
3340.58687,0.07063
3338.65813,0.07104
3336.72938,0.07158
3334.80064,0.07208
3332.87189,0.07239
3330.94315,0.07277
3329.01440,0.07345
3327.08566,0.07421
3325.15691,0.07482
3323.22816,0.07531
3321.29942,0.07561
3319.37067,0.07590
3317.44193,0.07647
3315.51318,0.07701
3313.58444,0.07731
3311.65569,0.07760
3309.72695,0.07799
3307.79820,0.07843
3305.86946,0.07900
3303.94071,0.07957
3302.01197,0.07991
3300.08322,0.08024
3298.15448,0.08076
3296.22573,0.08114
3294.29698,0.08135
3292.36824,0.08175
3290.43949,0.08222
3288.51075,0.08261
3286.58200,0.08332
3284.65326,0.08442
3282.72451,0.08538
3280.79577,0.08592
3278.86702,0.08633
3276.93828,0.08699
3275.00953,0.08794
3273.08079,0.08889
3271.15204,0.08978
3269.22330,0.09070
3267.29455,0.09156
3265.36581,0.09220
3263.43706,0.09274
3261.50831,0.09344
3259.57957,0.09422
3257.65082,0.09504
3255.72208,0.09610
3253.79333,0.09730
3251.86459,0.09832
3249.93584,0.09903
3248.00710,0.09972
3246.07835,0.10069
3244.14961,0.10197
3242.22086,0.10322
3240.29212,0.10394
3238.36337,0.10449
3236.43463,0.10551
3234.50588,0.10660
3232.57713,0.10729
3230.64839,0.10809
3228.71964,0.10918
3226.79090,0.11015
3224.86215,0.11103
3222.93341,0.11210
3221.00466,0.11335
3219.07592,0.11448
3217.14717,0.11555
3215.21843,0.11682
3213.28968,0.11819
3211.36094,0.11959
3209.43219,0.12096
3207.50345,0.12217
3205.57470,0.12336
3203.64596,0.12456
3201.71721,0.12565
3199.78846,0.12679
3197.85972,0.12814
3195.93097,0.12948
3194.00223,0.13064
3192.07348,0.13171
3190.14474,0.13268
3188.21599,0.13354
3186.28725,0.13461
3184.35850,0.13594
3182.42976,0.13732
3180.50101,0.13866
3178.57227,0.13996
3176.64352,0.14116
3174.71478,0.14234
3172.78603,0.14365
3170.85729,0.14491
3168.92854,0.14597
3166.99979,0.14709
3165.07105,0.14852
3163.14230,0.14997
3161.21356,0.15106
3159.28481,0.15201
3157.35607,0.15316
3155.42732,0.15455
3153.49858,0.15608
3151.56983,0.15749
3149.64109,0.15867
3147.71234,0.15991
3145.78360,0.16143
3143.85485,0.16287
3141.92611,0.16400
3139.99736,0.16523
3138.06861,0.16667
3136.13987,0.16795
3134.21112,0.16898
3132.28238,0.17002
3130.35363,0.17127
3128.42489,0.17266
3126.49614,0.17392
3124.56740,0.17493
3122.63865,0.17583
3120.70991,0.17690
3118.78116,0.17825
3116.85242,0.17966
3114.92367,0.18080
3112.99493,0.18183
3111.06618,0.18299
3109.13744,0.18411
3107.20869,0.18513
3105.27994,0.18616
3103.35120,0.18716
3101.42245,0.18829
3099.49371,0.18964
3097.56496,0.19085
3095.63622,0.19160
3093.70747,0.19218
3091.77873,0.19297
3089.84998,0.19392
3087.92124,0.19482
3085.99249,0.19543
3084.06375,0.19584
3082.13500,0.19645
3080.20626,0.19721
3078.27751,0.19785
3076.34877,0.19847
3074.42002,0.19922
3072.49127,0.20008
3070.56253,0.20108
3068.63378,0.20218
3066.70504,0.20317
3064.77629,0.20400
3062.84755,0.20481
3060.91880,0.20567
3058.99006,0.20650
3057.06131,0.20726
3055.13257,0.20807
3053.20382,0.20894
3051.27508,0.20980
3049.34633,0.21052
3047.41759,0.21115
3045.48884,0.21200
3043.56009,0.21297
3041.63135,0.21342
3039.70260,0.21329
3037.77386,0.21311
3035.84511,0.21316
3033.91637,0.21332
3031.98762,0.21350
3030.05888,0.21373
3028.13013,0.21396
3026.20139,0.21380
3024.27264,0.21306
3022.34390,0.21222
3020.41515,0.21150
3018.48641,0.21061
3016.55766,0.20935
3014.62892,0.20780
3012.70017,0.20610
3010.77142,0.20439
3008.84268,0.20271
3006.91393,0.20111
3004.98519,0.19959
3003.05644,0.19807
3001.12770,0.19648
2999.19895,0.19484
2997.27021,0.19320
2995.34146,0.19163
2993.41272,0.19014
2991.48397,0.18852
2989.55523,0.18643
2987.62648,0.18379
2985.69774,0.18067
2983.76899,0.17719
2981.84025,0.17354
2979.91150,0.16969
2977.98275,0.16543
2976.05401,0.16096
2974.12526,0.15668
2972.19652,0.15277
2970.26777,0.14927
2968.33903,0.14621
2966.41028,0.14380
2964.48154,0.14217
2962.55279,0.14093
2960.62405,0.13967
2958.69530,0.13820
2956.76656,0.13634
2954.83781,0.13415
2952.90907,0.13206
2950.98032,0.13031
2949.05157,0.12869
2947.12283,0.12699
2945.19408,0.12510
2943.26534,0.12321
2941.33659,0.12164
2939.40785,0.12053
2937.47910,0.11986
2935.55036,0.11950
2933.62161,0.11934
2931.69287,0.11928
2929.76412,0.11911
2927.83538,0.11870
2925.90663,0.11821
2923.97789,0.11794
2922.04914,0.11772
2920.12040,0.11735
2918.19165,0.11704
2916.26290,0.11697
2914.33416,0.11719
2912.40541,0.11762
2910.47667,0.11798
2908.54792,0.11809
2906.61918,0.11806
2904.69043,0.11808
2902.76169,0.11825
2900.83294,0.11853
2898.90420,0.11878
2896.97545,0.11914
2895.04671,0.11994
2893.11796,0.12096
2891.18922,0.12190
2889.26047,0.12285
2887.33172,0.12366
2885.40298,0.12409
2883.47423,0.12449
2881.54549,0.12524
2879.61674,0.12630
2877.68800,0.12731
2875.75925,0.12806
2873.83051,0.12870
2871.90176,0.12973
2869.97302,0.13122
2868.04427,0.13269
2866.11553,0.13407
2864.18678,0.13569
2862.25804,0.13749
2860.32929,0.13927
2858.40055,0.14093
2856.47180,0.14243
2854.54305,0.14380
2852.61431,0.14523
2850.68556,0.14694
2848.75682,0.14909
2846.82807,0.15183
2844.89933,0.15486
2842.97058,0.15767
2841.04184,0.16033
2839.11309,0.16332
2837.18435,0.16655
2835.25560,0.16983
2833.32686,0.17340
2831.39811,0.17723
2829.46937,0.18101
2827.54062,0.18471
2825.61188,0.18843
2823.68313,0.19225
2821.75438,0.19609
2819.82564,0.19966
2817.89689,0.20281
2815.96815,0.20575
2814.03940,0.20863
2812.11066,0.21135
2810.18191,0.21388
2808.25317,0.21633
2806.32442,0.21859
2804.39568,0.22060
2802.46693,0.22256
2800.53819,0.22446
2798.60944,0.22627
2796.68070,0.22801
2794.75195,0.22964
2792.82320,0.23113
2790.89446,0.23234
2788.96571,0.23331
2787.03697,0.23436
2785.10822,0.23550
2783.17948,0.23656
2781.25073,0.23741
2779.32199,0.23801
2777.39324,0.23851
2775.46450,0.23908
2773.53575,0.23968
2771.60701,0.24022
2769.67826,0.24075
2767.74952,0.24127
2765.82077,0.24176
2763.89203,0.24232
2761.96328,0.24284
2760.03453,0.24318
2758.10579,0.24346
2756.17704,0.24384
2754.24830,0.24418
2752.31955,0.24439
2750.39081,0.24459
2748.46206,0.24496
2746.53332,0.24540
2744.60457,0.24562
2742.67583,0.24548
2740.74708,0.24536
2738.81834,0.24569
2736.88959,0.24641
2734.96085,0.24711
2733.03210,0.24754
2731.10336,0.24781
2729.17461,0.24816
2727.24586,0.24872
2725.31712,0.24952
2723.38837,0.25046
2721.45963,0.25141
2719.53088,0.25237
2717.60214,0.25335
2715.67339,0.25427
2713.74465,0.25525
2711.81590,0.25644
2709.88716,0.25763
2707.95841,0.25874
2706.02967,0.25994
2704.10092,0.26126
2702.17218,0.26257
2700.24343,0.26378
2698.31468,0.26500
2696.38594,0.26628
2694.45719,0.26748
2692.52845,0.26858
2690.59970,0.26967
2688.67096,0.27078
2686.74221,0.27183
2684.81347,0.27283
2682.88472,0.27380
2680.95598,0.27469
2679.02723,0.27551
2677.09849,0.27644
2675.16974,0.27747
2673.24100,0.27840
2671.31225,0.27923
2669.38351,0.27996
2667.45476,0.28052
2665.52601,0.28095
2663.59727,0.28143
2661.66852,0.28213
2659.73978,0.28286
2657.81103,0.28345
2655.88229,0.28404
2653.95354,0.28476
2652.02480,0.28550
2650.09605,0.28609
2648.16731,0.28656
2646.23856,0.28707
2644.30982,0.28771
2642.38107,0.28852
2640.45233,0.28941
2638.52358,0.29023
2636.59484,0.29103
2634.66609,0.29189
2632.73734,0.29269
2630.80860,0.29346
2628.87985,0.29433
2626.95111,0.29524
2625.02236,0.29599
2623.09362,0.29677
2621.16487,0.29783
2619.23613,0.29893
2617.30738,0.29974
2615.37864,0.30030
2613.44989,0.30075
2611.52115,0.30117
2609.59240,0.30169
2607.66366,0.30238
2605.73491,0.30321
2603.80616,0.30398
2601.87742,0.30455
2599.94867,0.30508
2598.01993,0.30577
2596.09118,0.30652
2594.16244,0.30717
2592.23369,0.30787
2590.30495,0.30867
2588.37620,0.30925
2586.44746,0.30955
2584.51871,0.31001
2582.58997,0.31076
2580.66122,0.31143
2578.73248,0.31188
2576.80373,0.31225
2574.87499,0.31248
2572.94624,0.31260
2571.01749,0.31286
2569.08875,0.31327
2567.16000,0.31353
2565.23126,0.31362
2563.30251,0.31374
2561.37377,0.31397
2559.44502,0.31418
2557.51628,0.31436
2555.58753,0.31455
2553.65879,0.31478
2551.73004,0.31493
2549.80130,0.31507
2547.87255,0.31531
2545.94381,0.31556
2544.01506,0.31565
2542.08631,0.31576
2540.15757,0.31621
2538.22882,0.31685
2536.30008,0.31739
2534.37133,0.31794
2532.44259,0.31876
2530.51384,0.31984
2528.58510,0.32083
2526.65635,0.32159
2524.72761,0.32222
2522.79886,0.32285
2520.87012,0.32354
2518.94137,0.32429
2517.01263,0.32510
2515.08388,0.32605
2513.15514,0.32702
2511.22639,0.32793
2509.29764,0.32889
2507.36890,0.32990
2505.44015,0.33098
2503.51141,0.33222
2501.58266,0.33349
2499.65392,0.33465
2497.72517,0.33578
2495.79643,0.33689
2493.86768,0.33789
2491.93894,0.33892
2490.01019,0.34010
2488.08145,0.34122
2486.15270,0.34220
2484.22396,0.34316
2482.29521,0.34411
2480.36647,0.34502
2478.43772,0.34606
2476.50897,0.34720
2474.58023,0.34817
2472.65148,0.34897
2470.72274,0.34986
2468.79399,0.35084
2466.86525,0.35163
2464.93650,0.35234
2463.00776,0.35326
2461.07901,0.35441
2459.15027,0.35548
2457.22152,0.35627
2455.29278,0.35691
2453.36403,0.35762
2451.43529,0.35846
2449.50654,0.35939
2447.57779,0.36039
2445.64905,0.36154
2443.72030,0.36285
2441.79156,0.36412
2439.86281,0.36518
2437.93407,0.36622
2436.00532,0.36752
2434.07658,0.36887
2432.14783,0.37002
2430.21909,0.37109
2428.29034,0.37220
2426.36160,0.37333
2424.43285,0.37444
2422.50411,0.37567
2420.57536,0.37712
2418.64662,0.37866
2416.71787,0.38004
2414.78912,0.38120
2412.86038,0.38234
2410.93163,0.38357
2409.00289,0.38474
2407.07414,0.38581
2405.14540,0.38692
2403.21665,0.38809
2401.28791,0.38923
2399.35916,0.39035
2397.43042,0.39157
2395.50167,0.39284
2393.57293,0.39386
2391.64418,0.39475
2389.71544,0.39573
2387.78669,0.39672
2385.85795,0.39764
2383.92920,0.39856
2382.00045,0.39961
2380.07171,0.40081
2378.14296,0.40199
2376.21422,0.40303
2374.28547,0.40389
2372.35673,0.40465
2370.42798,0.40559
2368.49924,0.40663
2366.57049,0.40758
2364.64175,0.40856
2362.71300,0.40952
2360.78426,0.41033
2358.85551,0.41107
2356.92677,0.41176
2354.99802,0.41240
2353.06927,0.41312
2351.14053,0.41387
2349.21178,0.41452
2347.28304,0.41505
2345.35429,0.41561
2343.42555,0.41633
2341.49680,0.41711
2339.56806,0.41778
2337.63931,0.41826
2335.71057,0.41861
2333.78182,0.41899
2331.85308,0.41944
2329.92433,0.41984
2327.99559,0.42016
2326.06684,0.42057
2324.13810,0.42119
2322.20935,0.42171
2320.28060,0.42192
2318.35186,0.42199
2316.42311,0.42203
2314.49437,0.42207
2312.56562,0.42226
2310.63688,0.42254
2308.70813,0.42258
2306.77939,0.42235
2304.85064,0.42214
2302.92190,0.42211
2300.99315,0.42219
2299.06441,0.42227
2297.13566,0.42227
2295.20692,0.42208
2293.27817,0.42182
2291.34943,0.42173
2289.42068,0.42189
2287.49193,0.42215
2285.56319,0.42234
2283.63444,0.42240
2281.70570,0.42232
2279.77695,0.42220
2277.84821,0.42200
2275.91946,0.42166
2273.99072,0.42128
2272.06197,0.42083
2270.13323,0.42021
2268.20448,0.41964
2266.27574,0.41920
2264.34699,0.41870
2262.41825,0.41802
2260.48950,0.41733
2258.56075,0.41684
2256.63201,0.41650
2254.70326,0.41622
2252.77452,0.41603
2250.84577,0.41597
2248.91703,0.41595
2246.98828,0.41593
2245.05954,0.41589
2243.13079,0.41590
2241.20205,0.41581
2239.27330,0.41549
2237.34456,0.41518
2235.41581,0.41499
2233.48707,0.41482
2231.55832,0.41471
2229.62958,0.41464
2227.70083,0.41464
2225.77208,0.41482
2223.84334,0.41516
2221.91459,0.41547
2219.98585,0.41567
2218.05710,0.41578
2216.12836,0.41585
2214.19961,0.41594
2212.27087,0.41599
2210.34212,0.41593
2208.41338,0.41563
2206.48463,0.41519
2204.55589,0.41482
2202.62714,0.41452
2200.69840,0.41414
2198.76965,0.41352
2196.84090,0.41278
2194.91216,0.41205
2192.98341,0.41119
2191.05467,0.41025
2189.12592,0.40943
2187.19718,0.40857
2185.26843,0.40745
2183.33969,0.40612
2181.41094,0.40469
2179.48220,0.40329
2177.55345,0.40201
2175.62471,0.40079
2173.69596,0.39949
2171.76722,0.39821
2169.83847,0.39720
2167.90973,0.39637
2165.98098,0.39548
2164.05223,0.39455
2162.12349,0.39365
2160.19474,0.39285
2158.26600,0.39222
2156.33725,0.39175
2154.40851,0.39129
2152.47976,0.39073
2150.55102,0.39012
2148.62227,0.38950
2146.69353,0.38890
2144.76478,0.38842
2142.83604,0.38806
2140.90729,0.38773
2138.97855,0.38735
2137.04980,0.38706
2135.12106,0.38705
2133.19231,0.38721
2131.26356,0.38737
2129.33482,0.38766
2127.40607,0.38814
2125.47733,0.38864
2123.54858,0.38909
2121.61984,0.38951
2119.69109,0.38990
2117.76235,0.39022
2115.83360,0.39050
2113.90486,0.39090
2111.97611,0.39144
2110.04737,0.39205
2108.11862,0.39268
2106.18988,0.39321
2104.26113,0.39362
2102.33238,0.39406
2100.40364,0.39452
2098.47489,0.39495
2096.54615,0.39529
2094.61740,0.39552
2092.68866,0.39576
2090.75991,0.39597
2088.83117,0.39599
2086.90242,0.39586
2084.97368,0.39569
2083.04493,0.39547
2081.11619,0.39509
2079.18744,0.39465
2077.25870,0.39426
2075.32995,0.39377
2073.40121,0.39305
2071.47246,0.39221
2069.54371,0.39145
2067.61497,0.39097
2065.68622,0.39077
2063.75748,0.39051
2061.82873,0.39008
2059.89999,0.38979
2057.97124,0.38979
2056.04250,0.38985
2054.11375,0.38990
2052.18501,0.39010
2050.25626,0.39047
2048.32752,0.39082
2046.39877,0.39123
2044.47003,0.39188
2042.54128,0.39263
2040.61254,0.39339
2038.68379,0.39438
2036.75504,0.39564
2034.82630,0.39695
2032.89755,0.39814
2030.96881,0.39920
2029.04006,0.40021
2027.11132,0.40142
2025.18257,0.40283
2023.25383,0.40416
2021.32508,0.40538
2019.39634,0.40676
2017.46759,0.40817
2015.53885,0.40938
2013.61010,0.41053
2011.68136,0.41170
2009.75261,0.41277
2007.82386,0.41371
2005.89512,0.41447
2003.96637,0.41506
2002.03763,0.41561
2000.10888,0.41640
1998.18014,0.41751
1996.25139,0.41856
1994.32265,0.41931
1992.39390,0.42001
1990.46516,0.42083
1988.53641,0.42166
1986.60767,0.42233
1984.67892,0.42286
1982.75018,0.42338
1980.82143,0.42397
1978.89269,0.42458
1976.96394,0.42518
1975.03519,0.42577
1973.10645,0.42630
1971.17770,0.42677
1969.24896,0.42738
1967.32021,0.42818
1965.39147,0.42892
1963.46272,0.42960
1961.53398,0.43048
1959.60523,0.43146
1957.67649,0.43239
1955.74774,0.43342
1953.81900,0.43460
1951.89025,0.43579
1949.96151,0.43692
1948.03276,0.43788
1946.10402,0.43867
1944.17527,0.43963
1942.24652,0.44082
1940.31778,0.44197
1938.38903,0.44296
1936.46029,0.44382
1934.53154,0.44453
1932.60280,0.44510
1930.67405,0.44554
1928.74531,0.44590
1926.81656,0.44623
1924.88782,0.44660
1922.95907,0.44697
1921.03033,0.44732
1919.10158,0.44766
1917.17284,0.44793
1915.24409,0.44809
1913.31534,0.44816
1911.38660,0.44817
1909.45785,0.44804
1907.52911,0.44769
1905.60036,0.44724
1903.67162,0.44683
1901.74287,0.44653
1899.81413,0.44620
1897.88538,0.44582
1895.95664,0.44554
1894.02789,0.44524
1892.09915,0.44481
1890.17040,0.44433
1888.24166,0.44381
1886.31291,0.44330
1884.38417,0.44297
1882.45542,0.44276
1880.52667,0.44231
1878.59793,0.44156
1876.66918,0.44095
1874.74044,0.44070
1872.81169,0.44057
1870.88295,0.44041
1868.95420,0.44016
1867.02546,0.43962
1865.09671,0.43896
1863.16797,0.43855
1861.23922,0.43832
1859.31048,0.43792
1857.38173,0.43735
1855.45299,0.43681
1853.52424,0.43617
1851.59549,0.43536
1849.66675,0.43448
1847.73800,0.43364
1845.80926,0.43295
1843.88051,0.43203
1841.95177,0.43073
1840.02302,0.42947
1838.09428,0.42832
1836.16553,0.42705
1834.23679,0.42564
1832.30804,0.42416
1830.37930,0.42263
1828.45055,0.42094
1826.52181,0.41899
1824.59306,0.41672
1822.66432,0.41420
1820.73557,0.41142
1818.80682,0.40823
1816.87808,0.40459
1814.94933,0.40046
1813.02059,0.39564
1811.09184,0.38994
1809.16310,0.38356
1807.23435,0.37665
1805.30561,0.36897
1803.37686,0.36055
1801.44812,0.35158
1799.51937,0.34235
1797.59063,0.33333
1795.66188,0.32493
1793.73314,0.31685
1791.80439,0.30849
1789.87565,0.30030
1787.94690,0.29301
1786.01815,0.28656
1784.08941,0.28080
1782.16066,0.27546
1780.23192,0.27029
1778.30317,0.26544
1776.37443,0.26107
1774.44568,0.25685
1772.51694,0.25220
1770.58819,0.24695
1768.65945,0.24134
1766.73070,0.23538
1764.80196,0.22914
1762.87321,0.22252
1760.94447,0.21555
1759.01572,0.20876
1757.08697,0.20216
1755.15823,0.19597
1753.22948,0.19056
1751.30074,0.18567
1749.37199,0.18141
1747.44325,0.17810
1745.51450,0.17563
1743.58576,0.17383
1741.65701,0.17269
1739.72827,0.17221
1737.79952,0.17243
1735.87078,0.17347
1733.94203,0.17540
1732.01329,0.17765
1730.08454,0.17981
1728.15580,0.18223
1726.22705,0.18508
1724.29830,0.18833
1722.36956,0.19186
1720.44081,0.19562
1718.51207,0.19981
1716.58332,0.20418
1714.65458,0.20808
1712.72583,0.21146
1710.79709,0.21457
1708.86834,0.21743
1706.93960,0.21999
1705.01085,0.22207
1703.08211,0.22372
1701.15336,0.22482
1699.22462,0.22472
1697.29587,0.22356
1695.36713,0.22181
1693.43838,0.21958
1691.50963,0.21710
1689.58089,0.21435
1687.65214,0.21135
1685.72340,0.20775
1683.79465,0.20291
1681.86591,0.19754
1679.93716,0.19231
1678.00842,0.18718
1676.07967,0.18196
1674.15093,0.17654
1672.22218,0.17160
1670.29344,0.16733
1668.36469,0.16354
1666.43595,0.16063
1664.50720,0.15873
1662.57845,0.15767
1660.64971,0.15735
1658.72096,0.15777
1656.79222,0.15892
1654.86347,0.16071
1652.93473,0.16264
1651.00598,0.16378
1649.07724,0.16445
1647.14849,0.16501
1645.21975,0.16521
1643.29100,0.16505
1641.36226,0.16472
1639.43351,0.16456
1637.50477,0.16469
1635.57602,0.16464
1633.64728,0.16419
1631.71853,0.16373
1629.78978,0.16328
1627.86104,0.16244
1625.93229,0.16106
1624.00355,0.15925
1622.07480,0.15712
1620.14606,0.15497
1618.21731,0.15280
1616.28857,0.15017
1614.35982,0.14704
1612.43108,0.14389
1610.50233,0.14112
1608.57359,0.13895
1606.64484,0.13735
1604.71610,0.13632
1602.78735,0.13589
1600.85861,0.13580
1598.92986,0.13582
1597.00111,0.13600
1595.07237,0.13640
1593.14362,0.13727
1591.21488,0.13894
1589.28613,0.14153
1587.35739,0.14494
1585.42864,0.14914
1583.49990,0.15416
1581.57115,0.16009
1579.64241,0.16684
1577.71366,0.17460
1575.78492,0.18346
1573.85617,0.19183
1571.92743,0.19909
1569.99868,0.20595
1568.06993,0.21188
1566.14119,0.21633
1564.21244,0.21973
1562.28370,0.22236
1560.35495,0.22426
1558.42621,0.22506
1556.49746,0.22466
1554.56872,0.22352
1552.63997,0.22182
1550.71123,0.21981
1548.78248,0.21764
1546.85374,0.21527
1544.92499,0.21281
1542.99625,0.21007
1541.06750,0.20649
1539.13876,0.20163
1537.21001,0.19628
1535.28126,0.19033
1533.35252,0.18257
1531.42377,0.17325
1529.49503,0.16315
1527.56628,0.15208
1525.63754,0.14020
1523.70879,0.12804
1521.78005,0.11526
1519.85130,0.10301
1517.92256,0.09358
1515.99381,0.08722
1514.06507,0.08368
1512.13632,0.08265
1510.20758,0.08355
1508.27883,0.08602
1506.35008,0.08982
1504.42134,0.09430
1502.49259,0.09915
1500.56385,0.10443
1498.63510,0.10986
1496.70636,0.11512
1494.77761,0.11953
1492.84887,0.12246
1490.92012,0.12406
1488.99138,0.12444
1487.06263,0.12367
1485.13389,0.12208
1483.20514,0.11995
1481.27640,0.11738
1479.34765,0.11426
1477.41891,0.11039
1475.49016,0.10589
1473.56141,0.10088
1471.63267,0.09559
1469.70392,0.09106
1467.77518,0.08789
1465.84643,0.08593
1463.91769,0.08514
1461.98894,0.08520
1460.06020,0.08557
1458.13145,0.08579
1456.20271,0.08561
1454.27396,0.08528
1452.34522,0.08534
1450.41647,0.08601
1448.48773,0.08728
1446.55898,0.08879
1444.63024,0.08976
1442.70149,0.08971
1440.77274,0.08869
1438.84400,0.08706
1436.91525,0.08503
1434.98651,0.08293
1433.05776,0.08136
1431.12902,0.08053
1429.20027,0.08021
1427.27153,0.08025
1425.34278,0.08085
1423.41404,0.08212
1421.48529,0.08382
1419.55655,0.08569
1417.62780,0.08750
1415.69906,0.08926
1413.77031,0.09105
1411.84156,0.09272
1409.91282,0.09403
1407.98407,0.09501
1406.05533,0.09579
1404.12658,0.09623
1402.19784,0.09624
1400.26909,0.09599
1398.34035,0.09553
1396.41160,0.09474
1394.48286,0.09348
1392.55411,0.09186
1390.62537,0.09010
1388.69662,0.08812
1386.76788,0.08589
1384.83913,0.08353
1382.91039,0.08132
1380.98164,0.07957
1379.05289,0.07829
1377.12415,0.07749
1375.19540,0.07726
1373.26666,0.07742
1371.33791,0.07784
1369.40917,0.07856
1367.48042,0.07949
1365.55168,0.08041
1363.62293,0.08133
1361.69419,0.08240
1359.76544,0.08352
1357.83670,0.08443
1355.90795,0.08513
1353.97921,0.08583
1352.05046,0.08647
1350.12172,0.08678
1348.19297,0.08664
1346.26422,0.08617
1344.33548,0.08550
1342.40673,0.08475
1340.47799,0.08396
1338.54924,0.08323
1336.62050,0.08286
1334.69175,0.08299
1332.76301,0.08335
1330.83426,0.08350
1328.90552,0.08330
1326.97677,0.08289
1325.04803,0.08239
1323.11928,0.08189
1321.19054,0.08162
1319.26179,0.08171
1317.33304,0.08210
1315.40430,0.08263
1313.47555,0.08327
1311.54681,0.08406
1309.61806,0.08486
1307.68932,0.08561
1305.76057,0.08629
1303.83183,0.08675
1301.90308,0.08689
1299.97434,0.08673
1298.04559,0.08623
1296.11685,0.08529
1294.18810,0.08406
1292.25936,0.08281
1290.33061,0.08142
1288.40187,0.07963
1286.47312,0.07769
1284.54437,0.07603
1282.61563,0.07473
1280.68688,0.07369
1278.75814,0.07284
1276.82939,0.07216
1274.90065,0.07168
1272.97190,0.07138
1271.04316,0.07133
1269.11441,0.07176
1267.18567,0.07283
1265.25692,0.07428
1263.32818,0.07556
1261.39943,0.07654
1259.47069,0.07748
1257.54194,0.07856
1255.61320,0.07976
1253.68445,0.08072
1251.75570,0.08124
1249.82696,0.08159
1247.89821,0.08194
1245.96947,0.08219
1244.04072,0.08225
1242.11198,0.08207
1240.18323,0.08171
1238.25449,0.08130
1236.32574,0.08097
1234.39700,0.08085
1232.46825,0.08098
1230.53951,0.08122
1228.61076,0.08157
1226.68202,0.08210
1224.75327,0.08276
1222.82452,0.08335
1220.89578,0.08381
1218.96703,0.08420
1217.03829,0.08447
1215.10954,0.08470
1213.18080,0.08501
1211.25205,0.08536
1209.32331,0.08573
1207.39456,0.08620
1205.46582,0.08689
1203.53707,0.08784
1201.60833,0.08909
1199.67958,0.09057
1197.75084,0.09196
1195.82209,0.09284
1193.89335,0.09312
1191.96460,0.09299
1190.03585,0.09261
1188.10711,0.09181
1186.17836,0.09030
1184.24962,0.08819
1182.32087,0.08581
1180.39213,0.08336
1178.46338,0.08080
1176.53464,0.07797
1174.60589,0.07497
1172.67715,0.07234
1170.74840,0.07059
1168.81966,0.06986
1166.89091,0.07001
1164.96217,0.07091
1163.03342,0.07214
1161.10467,0.07324
1159.17593,0.07414
1157.24718,0.07481
1155.31844,0.07532
1153.38969,0.07562
1151.46095,0.07536
1149.53220,0.07457
1147.60346,0.07382
1145.67471,0.07328
1143.74597,0.07280
1141.81722,0.07236
1139.88848,0.07167
1137.95973,0.07042
1136.03099,0.06890
1134.10224,0.06765
1132.17350,0.06680
1130.24475,0.06616
1128.31600,0.06566
1126.38726,0.06550
1124.45851,0.06577
1122.52977,0.06627
1120.60102,0.06657
1118.67228,0.06651
1116.74353,0.06639
1114.81479,0.06659
1112.88604,0.06738
1110.95730,0.06848
1109.02855,0.06948
1107.09981,0.07035
1105.17106,0.07116
1103.24232,0.07191
1101.31357,0.07256
1099.38483,0.07287
1097.45608,0.07276
1095.52733,0.07249
1093.59859,0.07232
1091.66984,0.07244
1089.74110,0.07277
1087.81235,0.07297
1085.88361,0.07303
1083.95486,0.07335
1082.02612,0.07416
1080.09737,0.07527
1078.16863,0.07649
1076.23988,0.07782
1074.31114,0.07929
1072.38239,0.08080
1070.45365,0.08239
1068.52490,0.08430
1066.59615,0.08677
1064.66741,0.08979
1062.73866,0.09341
1060.80992,0.09708
1058.88117,0.09982
1056.95243,0.10153
1055.02368,0.10258
1053.09494,0.10304
1051.16619,0.10309
1049.23745,0.10283
1047.30870,0.10228
1045.37996,0.10157
1043.45121,0.10097
1041.52247,0.10123
1039.59372,0.10298
1037.66498,0.10573
1035.73623,0.10861
1033.80748,0.11107
1031.87874,0.11278
1029.94999,0.11398
1028.02125,0.11515
1026.09250,0.11637
1024.16376,0.11745
1022.23501,0.11841
1020.30627,0.11952
1018.37752,0.12080
1016.44878,0.12208
1014.52003,0.12347
1012.59129,0.12499
1010.66254,0.12642
1008.73380,0.12741
1006.80505,0.12790
1004.87631,0.12851
1002.94756,0.12979
1001.01881,0.13163
999.09007,0.13367
997.16132,0.13569
995.23258,0.13765
993.30383,0.13981
991.37509,0.14225
989.44634,0.14476
987.51760,0.14763
985.58885,0.15153
983.66011,0.15656
981.73136,0.16202
979.80262,0.16711
977.87387,0.17151
975.94513,0.17530
974.01638,0.17846
972.08763,0.18094
970.15889,0.18328
968.23014,0.18591
966.30140,0.18869
964.37265,0.19172
962.44391,0.19529
960.51516,0.19920
958.58642,0.20321
956.65767,0.20733
954.72893,0.21151
952.80018,0.21553
950.87144,0.21894
948.94269,0.22150
947.01395,0.22369
945.08520,0.22583
943.15646,0.22784
941.22771,0.22989
939.29896,0.23217
937.37022,0.23447
935.44147,0.23667
933.51273,0.23896
931.58398,0.24129
929.65524,0.24329
927.72649,0.24504
925.79775,0.24673
923.86900,0.24825
921.94026,0.24928
920.01151,0.24947
918.08277,0.24879
916.15402,0.24754
914.22528,0.24577
912.29653,0.24348
910.36779,0.24075
908.43904,0.23744
906.51029,0.23381
904.58155,0.23036
902.65280,0.22716
900.72406,0.22450
898.79531,0.22307
896.86657,0.22334
894.93782,0.22540
893.00908,0.22888
891.08033,0.23306
889.15159,0.23719
887.22284,0.24081
885.29410,0.24373
883.36535,0.24579
881.43661,0.24704
879.50786,0.24779
877.57911,0.24843
875.65037,0.24920
873.72162,0.24997
871.79288,0.25069
869.86413,0.25157
867.93539,0.25250
866.00664,0.25337
864.07790,0.25437
862.14915,0.25563
860.22041,0.25716
858.29166,0.25903
856.36292,0.26140
854.43417,0.26429
852.50543,0.26745
850.57668,0.27060
848.64794,0.27374
846.71919,0.27674
844.79044,0.27899
842.86170,0.28000
840.93295,0.27990
839.00421,0.27903
837.07546,0.27743
835.14672,0.27524
833.21797,0.27286
831.28923,0.27044
829.36048,0.26815
827.43174,0.26596
825.50299,0.26334
823.57425,0.26036
821.64550,0.25735
819.71676,0.25421
817.78801,0.25115
815.85926,0.24851
813.93052,0.24648
812.00177,0.24522
810.07303,0.24475
808.14428,0.24515
806.21554,0.24642
804.28679,0.24820
802.35805,0.25008
800.42930,0.25193
798.50056,0.25391
796.57181,0.25605
794.64307,0.25813
792.71432,0.25981
790.78558,0.26064
788.85683,0.26045
786.92809,0.25938
784.99934,0.25771
783.07059,0.25601
781.14185,0.25429
779.21310,0.25201
777.28436,0.24932
775.35561,0.24695
773.42687,0.24519
771.49812,0.24371
769.56938,0.24227
767.64063,0.24085
765.71189,0.23947
763.78314,0.23824
761.85440,0.23685
759.92565,0.23496
757.99691,0.23322
756.06816,0.23189
754.13942,0.23037
752.21067,0.22860
750.28192,0.22669
748.35318,0.22445
746.42443,0.22229
744.49569,0.22043
742.56694,0.21875
740.63820,0.21738
738.70945,0.21600
736.78071,0.21387
734.85196,0.21096
732.92322,0.20771
730.99447,0.20443
729.06573,0.20142
727.13698,0.19880
725.20824,0.19658
723.27949,0.19481
721.35074,0.19332
719.42200,0.19187
717.49325,0.19044
715.56451,0.18891
713.63576,0.18726
711.70702,0.18572
709.77827,0.18446
707.84953,0.18325
705.92078,0.18185
703.99204,0.18023
702.06329,0.17840
700.13455,0.17641
698.20580,0.17448
696.27706,0.17300
694.34831,0.17212
692.41957,0.17101
690.49082,0.16898
688.56207,0.16638
686.63333,0.16365
684.70458,0.16095
682.77584,0.15821
680.84709,0.15504
678.91835,0.15126
676.98960,0.14725
675.06086,0.14399
673.13211,0.14238
671.20337,0.14211
669.27462,0.14228
667.34588,0.14268
665.41713,0.14351
663.48839,0.14454
661.55964,0.14519
659.63090,0.14550
657.70215,0.14566
655.77340,0.14555
653.84466,0.14508
651.91591,0.14422
649.98717,0.14294
648.05842,0.14178
646.12968,0.14123
644.20093,0.14041
642.27219,0.13883
640.34344,0.13735
638.41470,0.13607
636.48595,0.13425
634.55721,0.13189
632.62846,0.12982
630.69972,0.12791
628.77097,0.12618
626.84222,0.12553
624.91348,0.12556
622.98473,0.12518
621.05599,0.12430
619.12724,0.12377
617.19850,0.12438
615.26975,0.12580
613.34101,0.12706
611.41226,0.12781
609.48352,0.12898
607.55477,0.13053
605.62603,0.13086
603.69728,0.13017
601.76854,0.12986
599.83979,0.12987
