7497.03301,0.02206
7495.10426,0.02634
7493.17552,0.02933
7491.24677,0.02950
7489.31803,0.02660
7487.38928,0.02189
7485.46054,0.01897
7483.53179,0.01813
7481.60305,0.01539
7479.67430,0.01417
7477.74556,0.01793
7475.81681,0.02339
7473.88807,0.02481
7471.95932,0.02383
7470.03057,0.02591
7468.10183,0.03063
7466.17308,0.03233
7464.24434,0.02822
7462.31559,0.01963
7460.38685,0.01573
7458.45810,0.02078
7456.52936,0.02827
7454.60061,0.03235
7452.67187,0.03135
7450.74312,0.02864
7448.81438,0.02608
7446.88563,0.02089
7444.95689,0.01729
7443.02814,0.01766
7441.09940,0.01957
7439.17065,0.02303
7437.24190,0.02698
7435.31316,0.02848
7433.38441,0.02672
7431.45567,0.02216
7429.52692,0.01990
7427.59818,0.02258
7425.66943,0.02377
7423.74069,0.02121
7421.81194,0.02099
7419.88320,0.02544
7417.95445,0.02893
7416.02571,0.02703
7414.09696,0.02240
7412.16822,0.01903
7410.23947,0.01825
7408.31073,0.01666
7406.38198,0.01407
7404.45323,0.01434
7402.52449,0.02035
7400.59574,0.02883
7398.66700,0.03440
7396.73825,0.03317
7394.80951,0.02731
7392.88076,0.02426
7390.95202,0.02620
7389.02327,0.02675
7387.09453,0.02454
7385.16578,0.02457
7383.23704,0.02698
7381.30829,0.02761
7379.37955,0.02631
7377.45080,0.02740
7375.52205,0.03068
7373.59331,0.02954
7371.66456,0.02710
7369.73582,0.03031
7367.80707,0.03266
7365.87833,0.02800
7363.94958,0.02380
7362.02084,0.02474
7360.09209,0.02830
7358.16335,0.03195
7356.23460,0.03384
7354.30586,0.03162
7352.37711,0.02685
7350.44837,0.02303
7348.51962,0.02107
7346.59088,0.02052
7344.66213,0.02184
7342.73338,0.02292
7340.80464,0.02294
7338.87589,0.02295
7336.94715,0.02360
7335.01840,0.02340
7333.08966,0.02349
7331.16091,0.02552
7329.23217,0.02844
7327.30342,0.02837
7325.37468,0.02445
7323.44593,0.01928
7321.51719,0.01854
7319.58844,0.02544
7317.65970,0.03392
7315.73095,0.03404
7313.80221,0.02847
7311.87346,0.02465
7309.94471,0.02314
7308.01597,0.02240
7306.08722,0.02209
7304.15848,0.02252
7302.22973,0.02361
7300.30099,0.02443
7298.37224,0.02453
7296.44350,0.02394
7294.51475,0.02413
7292.58601,0.02376
7290.65726,0.02116
7288.72852,0.01984
7286.79977,0.02199
7284.87103,0.02537
7282.94228,0.02734
7281.01353,0.02506
7279.08479,0.02225
7277.15604,0.02370
7275.22730,0.02548
7273.29855,0.02356
7271.36981,0.02135
7269.44106,0.02093
7267.51232,0.02033
7265.58357,0.02074
7263.65483,0.02459
7261.72608,0.02733
7259.79734,0.02594
7257.86859,0.02489
7255.93985,0.02506
7254.01110,0.02538
7252.08236,0.02846
7250.15361,0.03031
7248.22486,0.02796
7246.29612,0.02654
7244.36737,0.02656
7242.43863,0.02412
7240.50988,0.02165
7238.58114,0.02269
7236.65239,0.02389
7234.72365,0.02377
7232.79490,0.02535
7230.86616,0.02543
7228.93741,0.02286
7227.00867,0.02100
7225.07992,0.02086
7223.15118,0.02066
7221.22243,0.02067
7219.29369,0.02112
7217.36494,0.02086
7215.43619,0.01966
7213.50745,0.02147
7211.57870,0.02430
7209.64996,0.02262
7207.72121,0.01865
7205.79247,0.01841
7203.86372,0.02101
7201.93498,0.02315
7200.00623,0.02494
7198.07749,0.02846
7196.14874,0.03079
7194.22000,0.02957
7192.29125,0.02749
7190.36251,0.02791
7188.43376,0.03006
7186.50501,0.02890
7184.57627,0.02378
7182.64752,0.02121
7180.71878,0.02232
7178.79003,0.02232
7176.86129,0.02122
7174.93254,0.02171
7173.00380,0.02314
7171.07505,0.02504
7169.14631,0.02574
7167.21756,0.02327
7165.28882,0.02047
7163.36007,0.02066
7161.43133,0.02235
7159.50258,0.02237
7157.57384,0.02102
7155.64509,0.02133
7153.71634,0.02214
7151.78760,0.02129
7149.85885,0.01948
7147.93011,0.01832
7146.00136,0.01982
7144.07262,0.02380
7142.14387,0.02703
7140.21513,0.02828
7138.28638,0.02839
7136.35764,0.02759
7134.42889,0.02479
7132.50015,0.02142
7130.57140,0.02118
7128.64266,0.02290
7126.71391,0.02378
7124.78516,0.02607
7122.85642,0.02805
7120.92767,0.02448
7118.99893,0.01922
7117.07018,0.01897
7115.14144,0.02262
7113.21269,0.02537
7111.28395,0.02427
7109.35520,0.02237
7107.42646,0.02372
7105.49771,0.02641
7103.56897,0.02716
7101.64022,0.02682
7099.71148,0.02606
7097.78273,0.02544
7095.85399,0.02428
7093.92524,0.02290
7091.99649,0.02300
7090.06775,0.02591
7088.13900,0.02800
7086.21026,0.02720
7084.28151,0.02551
7082.35277,0.02506
7080.42402,0.02316
7078.49528,0.01929
7076.56653,0.01747
7074.63779,0.01793
7072.70904,0.01987
7070.78030,0.02234
7068.85155,0.02275
7066.92281,0.02240
7064.99406,0.02247
7063.06532,0.02188
7061.13657,0.02255
7059.20782,0.02436
7057.27908,0.02366
7055.35033,0.02095
7053.42159,0.01900
7051.49284,0.02061
7049.56410,0.02541
7047.63535,0.02842
7045.70661,0.02566
7043.77786,0.02095
7041.84912,0.01907
7039.92037,0.01947
7037.99163,0.01995
7036.06288,0.02122
7034.13414,0.02265
7032.20539,0.02233
7030.27664,0.02248
7028.34790,0.02530
7026.41915,0.02689
7024.49041,0.02543
7022.56166,0.02389
7020.63292,0.02331
7018.70417,0.02395
7016.77543,0.02548
7014.84668,0.02522
7012.91794,0.02219
7010.98919,0.01925
7009.06045,0.02004
7007.13170,0.02308
7005.20296,0.02535
7003.27421,0.02687
7001.34547,0.02746
6999.41672,0.02736
6997.48797,0.02772
6995.55923,0.02729
6993.63048,0.02511
6991.70174,0.02383
6989.77299,0.02442
6987.84425,0.02460
6985.91550,0.02311
6983.98676,0.02074
6982.05801,0.02007
6980.12927,0.02094
6978.20052,0.02061
6976.27178,0.01955
6974.34303,0.02089
6972.41429,0.02377
6970.48554,0.02524
6968.55680,0.02362
6966.62805,0.02106
6964.69930,0.02055
6962.77056,0.02229
6960.84181,0.02360
6958.91307,0.02245
6956.98432,0.02083
6955.05558,0.02167
6953.12683,0.02256
6951.19809,0.02283
6949.26934,0.02367
6947.34060,0.02370
6945.41185,0.02254
6943.48311,0.02156
6941.55436,0.02080
6939.62562,0.02052
6937.69687,0.02102
6935.76812,0.02152
6933.83938,0.02116
6931.91063,0.02175
6929.98189,0.02330
6928.05314,0.02378
6926.12440,0.02049
6924.19565,0.01677
6922.26691,0.01784
6920.33816,0.02207
6918.40942,0.02457
6916.48067,0.02583
6914.55193,0.02806
6912.62318,0.02927
6910.69444,0.02769
6908.76569,0.02532
6906.83695,0.02419
6904.90820,0.02467
6902.97945,0.02478
6901.05071,0.02311
6899.12196,0.02090
6897.19322,0.01962
6895.26447,0.02040
6893.33573,0.02268
6891.40698,0.02451
6889.47824,0.02643
6887.54949,0.02829
6885.62075,0.02775
6883.69200,0.02602
6881.76326,0.02508
6879.83451,0.02456
6877.90577,0.02510
6875.97702,0.02593
6874.04828,0.02576
6872.11953,0.02531
6870.19078,0.02572
6868.26204,0.02699
6866.33329,0.02715
6864.40455,0.02579
6862.47580,0.02436
6860.54706,0.02306
6858.61831,0.02175
6856.68957,0.02111
6854.76082,0.02262
6852.83208,0.02440
6850.90333,0.02373
6848.97459,0.02224
6847.04584,0.02210
6845.11710,0.02285
6843.18835,0.02288
6841.25960,0.02136
6839.33086,0.02036
6837.40211,0.02146
6835.47337,0.02366
6833.54462,0.02522
6831.61588,0.02516
6829.68713,0.02423
6827.75839,0.02349
6825.82964,0.02347
6823.90090,0.02366
6821.97215,0.02268
6820.04341,0.02280
6818.11466,0.02573
6816.18592,0.02785
6814.25717,0.02601
6812.32843,0.02284
6810.39968,0.02235
6808.47093,0.02409
6806.54219,0.02467
6804.61344,0.02538
6802.68470,0.02603
6800.75595,0.02479
6798.82721,0.02316
6796.89846,0.02230
6794.96972,0.02141
6793.04097,0.02096
6791.11223,0.02090
6789.18348,0.02150
6787.25474,0.02265
6785.32599,0.02215
6783.39725,0.02032
6781.46850,0.02110
6779.53975,0.02436
6777.61101,0.02571
6775.68226,0.02357
6773.75352,0.02098
6771.82477,0.02075
6769.89603,0.02223
6767.96728,0.02342
6766.03854,0.02417
6764.10979,0.02539
6762.18105,0.02668
6760.25230,0.02682
6758.32356,0.02601
6756.39481,0.02338
6754.46607,0.01932
6752.53732,0.01779
6750.60858,0.01991
6748.67983,0.02322
6746.75108,0.02527
6744.82234,0.02531
6742.89359,0.02523
6740.96485,0.02528
6739.03610,0.02450
6737.10736,0.02292
6735.17861,0.02034
6733.24987,0.01750
6731.32112,0.01699
6729.39238,0.01852
6727.46363,0.01906
6725.53489,0.01888
6723.60614,0.02148
6721.67740,0.02453
6719.74865,0.02478
6717.81991,0.02302
6715.89116,0.02204
6713.96241,0.02339
6712.03367,0.02517
6710.10492,0.02515
6708.17618,0.02506
6706.24743,0.02553
6704.31869,0.02608
6702.38994,0.02738
6700.46120,0.02827
6698.53245,0.02590
6696.60371,0.02141
6694.67496,0.01936
6692.74622,0.02150
6690.81747,0.02401
6688.88873,0.02470
6686.95998,0.02456
6685.03123,0.02373
6683.10249,0.02249
6681.17374,0.02235
6679.24500,0.02390
6677.31625,0.02622
6675.38751,0.02627
6673.45876,0.02375
6671.53002,0.02228
6669.60127,0.02283
6667.67253,0.02357
6665.74378,0.02399
6663.81504,0.02347
6661.88629,0.02245
6659.95755,0.02261
6658.02880,0.02408
6656.10006,0.02549
6654.17131,0.02547
6652.24256,0.02403
6650.31382,0.02282
6648.38507,0.02214
6646.45633,0.02115
6644.52758,0.02111
6642.59884,0.02248
6640.67009,0.02240
6638.74135,0.02145
6636.81260,0.02264
6634.88386,0.02437
6632.95511,0.02427
6631.02637,0.02368
6629.09762,0.02296
6627.16888,0.02124
6625.24013,0.02029
6623.31139,0.02123
6621.38264,0.02305
6619.45389,0.02462
6617.52515,0.02471
6615.59640,0.02398
6613.66766,0.02374
6611.73891,0.02426
6609.81017,0.02505
6607.88142,0.02566
6605.95268,0.02524
6604.02393,0.02322
6602.09519,0.02113
6600.16644,0.02016
6598.23770,0.01984
6596.30895,0.02099
6594.38021,0.02351
6592.45146,0.02569
6590.52271,0.02486
6588.59397,0.02201
6586.66522,0.02030
6584.73648,0.01908
6582.80773,0.01834
6580.87899,0.02010
6578.95024,0.02317
6577.02150,0.02558
6575.09275,0.02639
6573.16401,0.02472
6571.23526,0.02161
6569.30652,0.01986
6567.37777,0.02025
6565.44903,0.02191
6563.52028,0.02272
6561.59154,0.02233
6559.66279,0.02250
6557.73404,0.02408
6555.80530,0.02620
6553.87655,0.02802
6551.94781,0.02887
6550.01906,0.02817
6548.09032,0.02595
6546.16157,0.02360
6544.23283,0.02263
6542.30408,0.02349
6540.37534,0.02488
6538.44659,0.02479
6536.51785,0.02314
6534.58910,0.02304
6532.66036,0.02489
6530.73161,0.02499
6528.80287,0.02379
6526.87412,0.02372
6524.94537,0.02254
6523.01663,0.02012
6521.08788,0.01917
6519.15914,0.02007
6517.23039,0.02194
6515.30165,0.02432
6513.37290,0.02509
6511.44416,0.02414
6509.51541,0.02458
6507.58667,0.02645
6505.65792,0.02779
6503.72918,0.02785
6501.80043,0.02658
6499.87169,0.02616
6497.94294,0.02733
6496.01419,0.02747
6494.08545,0.02619
6492.15670,0.02564
6490.22796,0.02567
6488.29921,0.02520
6486.37047,0.02427
6484.44172,0.02321
6482.51298,0.02272
6480.58423,0.02309
6478.65549,0.02334
6476.72674,0.02423
6474.79800,0.02594
6472.86925,0.02698
6470.94051,0.02749
6469.01176,0.02704
6467.08302,0.02438
6465.15427,0.02147
6463.22552,0.02133
6461.29678,0.02396
6459.36803,0.02523
6457.43929,0.02415
6455.51054,0.02359
6453.58180,0.02383
6451.65305,0.02414
6449.72431,0.02457
6447.79556,0.02296
6445.86682,0.02010
6443.93807,0.01930
6442.00933,0.02017
6440.08058,0.02115
6438.15184,0.02172
6436.22309,0.02149
6434.29434,0.02150
6432.36560,0.02162
6430.43685,0.02102
6428.50811,0.02081
6426.57936,0.02157
6424.65062,0.02211
6422.72187,0.02137
6420.79313,0.02070
6418.86438,0.02228
6416.93564,0.02488
6415.00689,0.02612
6413.07815,0.02523
6411.14940,0.02358
6409.22066,0.02305
6407.29191,0.02319
6405.36317,0.02294
6403.43442,0.02244
6401.50567,0.02193
6399.57693,0.02224
6397.64818,0.02359
6395.71944,0.02466
6393.79069,0.02408
6391.86195,0.02240
6389.93320,0.02111
6388.00446,0.02084
6386.07571,0.02148
6384.14697,0.02234
6382.21822,0.02236
6380.28948,0.02281
6378.36073,0.02495
6376.43199,0.02734
6374.50324,0.02703
6372.57450,0.02366
6370.64575,0.02051
6368.71700,0.02048
6366.78826,0.02160
6364.85951,0.02131
6362.93077,0.02055
6361.00202,0.02079
6359.07328,0.02136
6357.14453,0.02146
6355.21579,0.02148
6353.28704,0.02146
6351.35830,0.02018
6349.42955,0.01831
6347.50081,0.01837
6345.57206,0.02026
6343.64332,0.02208
6341.71457,0.02385
6339.78582,0.02516
6337.85708,0.02484
6335.92833,0.02328
6333.99959,0.02239
6332.07084,0.02249
6330.14210,0.02219
6328.21335,0.02095
6326.28461,0.01965
6324.35586,0.01968
6322.42712,0.02213
6320.49837,0.02520
6318.56963,0.02602
6316.64088,0.02488
6314.71214,0.02372
6312.78339,0.02250
6310.85465,0.02114
6308.92590,0.02101
6306.99715,0.02291
6305.06841,0.02522
6303.13966,0.02549
6301.21092,0.02416
6299.28217,0.02331
6297.35343,0.02286
6295.42468,0.02226
6293.49594,0.02249
6291.56719,0.02385
6289.63845,0.02450
6287.70970,0.02345
6285.78096,0.02239
6283.85221,0.02184
6281.92347,0.02027
6279.99472,0.01894
6278.06598,0.01947
6276.13723,0.02024
6274.20848,0.02066
6272.27974,0.02176
6270.35099,0.02174
6268.42225,0.01979
6266.49350,0.01870
6264.56476,0.02015
6262.63601,0.02211
6260.70727,0.02246
6258.77852,0.02238
6256.84978,0.02279
6254.92103,0.02232
6252.99229,0.02178
6251.06354,0.02220
6249.13480,0.02233
6247.20605,0.02243
6245.27730,0.02294
6243.34856,0.02242
6241.41981,0.02100
6239.49107,0.02042
6237.56232,0.02026
6235.63358,0.01932
6233.70483,0.01950
6231.77609,0.02185
6229.84734,0.02366
6227.91860,0.02356
6225.98985,0.02283
6224.06111,0.02228
6222.13236,0.02184
6220.20362,0.02173
6218.27487,0.02260
6216.34613,0.02392
6214.41738,0.02507
6212.48863,0.02522
6210.55989,0.02385
6208.63114,0.02148
6206.70240,0.01994
6204.77365,0.02040
6202.84491,0.02144
6200.91616,0.02187
6198.98742,0.02231
6197.05867,0.02305
6195.12993,0.02404
6193.20118,0.02483
6191.27244,0.02479
6189.34369,0.02311
6187.41495,0.02099
6185.48620,0.02082
6183.55746,0.02169
6181.62871,0.02098
6179.69996,0.01897
6177.77122,0.01728
6175.84247,0.01645
6173.91373,0.01742
6171.98498,0.02027
6170.05624,0.02262
6168.12749,0.02317
6166.19875,0.02266
6164.27000,0.02265
6162.34126,0.02418
6160.41251,0.02559
6158.48377,0.02446
6156.55502,0.02164
6154.62628,0.02064
6152.69753,0.02157
6150.76878,0.02209
6148.84004,0.02257
6146.91129,0.02347
6144.98255,0.02413
6143.05380,0.02372
6141.12506,0.02138
6139.19631,0.01904
6137.26757,0.01956
6135.33882,0.02131
6133.41008,0.02201
6131.48133,0.02219
6129.55259,0.02160
6127.62384,0.01999
6125.69510,0.01904
6123.76635,0.01936
6121.83761,0.02024
6119.90886,0.02068
6117.98011,0.02059
6116.05137,0.02146
6114.12262,0.02365
6112.19388,0.02529
6110.26513,0.02525
6108.33639,0.02393
6106.40764,0.02233
6104.47890,0.02189
6102.55015,0.02297
6100.62141,0.02365
6098.69266,0.02276
6096.76392,0.02165
6094.83517,0.02119
6092.90643,0.02078
6090.97768,0.02040
6089.04893,0.02011
6087.12019,0.02018
6085.19144,0.02147
6083.26270,0.02379
6081.33395,0.02555
6079.40521,0.02573
6077.47646,0.02462
6075.54772,0.02306
6073.61897,0.02144
6071.69023,0.02044
6069.76148,0.02034
6067.83274,0.02046
6065.90399,0.01988
6063.97525,0.01965
6062.04650,0.02088
6060.11776,0.02233
6058.18901,0.02321
6056.26026,0.02407
6054.33152,0.02500
6052.40277,0.02571
6050.47403,0.02538
6048.54528,0.02371
6046.61654,0.02190
6044.68779,0.02124
6042.75905,0.02137
6040.83030,0.02157
6038.90156,0.02243
6036.97281,0.02422
6035.04407,0.02490
6033.11532,0.02346
6031.18658,0.02241
6029.25783,0.02328
6027.32909,0.02409
6025.40034,0.02374
6023.47159,0.02275
6021.54285,0.02139
6019.61410,0.02096
6017.68536,0.02249
6015.75661,0.02417
6013.82787,0.02456
6011.89912,0.02468
6009.97038,0.02499
6008.04163,0.02437
6006.11289,0.02247
6004.18414,0.02060
6002.25540,0.02027
6000.32665,0.02057
5998.39791,0.02037
5996.46916,0.02051
5994.54041,0.02150
5992.61167,0.02282
5990.68292,0.02352
5988.75418,0.02289
5986.82543,0.02217
5984.89669,0.02233
5982.96794,0.02265
5981.03920,0.02234
5979.11045,0.02178
5977.18171,0.02188
5975.25296,0.02232
5973.32422,0.02249
5971.39547,0.02290
5969.46673,0.02320
5967.53798,0.02300
5965.60924,0.02252
5963.68049,0.02196
5961.75174,0.02169
5959.82300,0.02189
5957.89425,0.02188
5955.96551,0.02138
5954.03676,0.02120
5952.10802,0.02141
5950.17927,0.02143
5948.25053,0.02156
5946.32178,0.02210
5944.39304,0.02276
5942.46429,0.02275
5940.53555,0.02197
5938.60680,0.02163
5936.67806,0.02208
5934.74931,0.02247
5932.82057,0.02214
5930.89182,0.02187
5928.96307,0.02271
5927.03433,0.02366
5925.10558,0.02422
5923.17684,0.02473
5921.24809,0.02448
5919.31935,0.02331
5917.39060,0.02227
5915.46186,0.02168
5913.53311,0.02125
5911.60437,0.02126
5909.67562,0.02185
5907.74688,0.02213
5905.81813,0.02189
5903.88939,0.02172
5901.96064,0.02186
5900.03189,0.02220
5898.10315,0.02232
5896.17440,0.02167
5894.24566,0.02045
5892.31691,0.01972
5890.38817,0.01967
5888.45942,0.01987
5886.53068,0.02059
5884.60193,0.02160
5882.67319,0.02227
5880.74444,0.02233
5878.81570,0.02182
5876.88695,0.02159
5874.95821,0.02247
5873.02946,0.02378
5871.10072,0.02420
5869.17197,0.02333
5867.24322,0.02252
5865.31448,0.02252
5863.38573,0.02235
5861.45699,0.02166
5859.52824,0.02134
5857.59950,0.02199
5855.67075,0.02296
5853.74201,0.02312
5851.81326,0.02256
5849.88452,0.02185
5847.95577,0.02125
5846.02703,0.02157
5844.09828,0.02288
5842.16954,0.02357
5840.24079,0.02287
5838.31205,0.02181
5836.38330,0.02151
5834.45455,0.02190
5832.52581,0.02220
5830.59706,0.02208
5828.66832,0.02197
5826.73957,0.02231
5824.81083,0.02270
5822.88208,0.02255
5820.95334,0.02243
5819.02459,0.02287
5817.09585,0.02317
5815.16710,0.02227
5813.23836,0.02056
5811.30961,0.01989
5809.38087,0.02073
5807.45212,0.02168
5805.52337,0.02236
5803.59463,0.02268
5801.66588,0.02214
5799.73714,0.02148
5797.80839,0.02186
5795.87965,0.02273
5793.95090,0.02288
5792.02216,0.02221
5790.09341,0.02225
5788.16467,0.02358
5786.23592,0.02384
5784.30718,0.02220
5782.37843,0.02121
5780.44969,0.02197
5778.52094,0.02310
5776.59220,0.02378
5774.66345,0.02423
5772.73470,0.02469
5770.80596,0.02499
5768.87721,0.02420
5766.94847,0.02265
5765.01972,0.02210
5763.09098,0.02226
5761.16223,0.02173
5759.23349,0.02104
5757.30474,0.02127
5755.37600,0.02202
5753.44725,0.02267
5751.51851,0.02329
5749.58976,0.02300
5747.66102,0.02189
5745.73227,0.02210
5743.80352,0.02338
5741.87478,0.02359
5739.94603,0.02295
5738.01729,0.02271
5736.08854,0.02254
5734.15980,0.02152
5732.23105,0.02062
5730.30231,0.02111
5728.37356,0.02225
5726.44482,0.02259
5724.51607,0.02181
5722.58733,0.02117
5720.65858,0.02151
5718.72984,0.02190
5716.80109,0.02175
5714.87235,0.02154
5712.94360,0.02136
5711.01485,0.02102
5709.08611,0.02125
5707.15736,0.02214
5705.22862,0.02238
5703.29987,0.02187
5701.37113,0.02167
5699.44238,0.02242
5697.51364,0.02367
5695.58489,0.02407
5693.65615,0.02347
5691.72740,0.02318
5689.79866,0.02381
5687.86991,0.02423
5685.94117,0.02341
5684.01242,0.02202
5682.08368,0.02151
5680.15493,0.02223
5678.22618,0.02338
5676.29744,0.02421
5674.36869,0.02420
5672.43995,0.02353
5670.51120,0.02311
5668.58246,0.02317
5666.65371,0.02329
5664.72497,0.02300
5662.79622,0.02269
5660.86748,0.02295
5658.93873,0.02339
5657.00999,0.02318
5655.08124,0.02216
5653.15250,0.02126
5651.22375,0.02129
5649.29500,0.02133
5647.36626,0.02090
5645.43751,0.02112
5643.50877,0.02246
5641.58002,0.02398
5639.65128,0.02465
5637.72253,0.02407
5635.79379,0.02318
5633.86504,0.02289
5631.93630,0.02258
5630.00755,0.02137
5628.07881,0.02031
5626.15006,0.02098
5624.22132,0.02254
5622.29257,0.02332
5620.36383,0.02307
5618.43508,0.02204
5616.50633,0.02129
5614.57759,0.02183
5612.64884,0.02269
5610.72010,0.02268
5608.79135,0.02220
5606.86261,0.02199
5604.93386,0.02210
5603.00512,0.02212
5601.07637,0.02149
5599.14763,0.02055
5597.21888,0.02057
5595.29014,0.02110
5593.36139,0.02100
5591.43265,0.02059
5589.50390,0.02059
5587.57516,0.02092
5585.64641,0.02156
5583.71766,0.02216
5581.78892,0.02227
5579.86017,0.02210
5577.93143,0.02206
5576.00268,0.02239
5574.07394,0.02311
5572.14519,0.02333
5570.21645,0.02266
5568.28770,0.02221
5566.35896,0.02231
5564.43021,0.02205
5562.50147,0.02158
5560.57272,0.02138
5558.64398,0.02094
5556.71523,0.02051
5554.78648,0.02099
5552.85774,0.02189
5550.92899,0.02244
5549.00025,0.02284
5547.07150,0.02349
5545.14276,0.02426
5543.21401,0.02430
5541.28527,0.02290
5539.35652,0.02113
5537.42778,0.02061
5535.49903,0.02113
5533.57029,0.02169
5531.64154,0.02227
5529.71280,0.02268
5527.78405,0.02253
5525.85531,0.02226
5523.92656,0.02245
5521.99781,0.02267
5520.06907,0.02265
5518.14032,0.02294
5516.21158,0.02324
5514.28283,0.02287
5512.35409,0.02241
5510.42534,0.02256
5508.49660,0.02275
5506.56785,0.02223
5504.63911,0.02195
5502.71036,0.02261
5500.78162,0.02277
5498.85287,0.02198
5496.92413,0.02170
5494.99538,0.02194
5493.06664,0.02198
5491.13789,0.02214
5489.20914,0.02244
5487.28040,0.02260
5485.35165,0.02268
5483.42291,0.02220
5481.49416,0.02181
5479.56542,0.02244
5477.63667,0.02286
5475.70793,0.02241
5473.77918,0.02211
5471.85044,0.02227
5469.92169,0.02256
5467.99295,0.02255
5466.06420,0.02201
5464.13546,0.02158
5462.20671,0.02185
5460.27796,0.02238
5458.34922,0.02274
5456.42047,0.02296
5454.49173,0.02276
5452.56298,0.02184
5450.63424,0.02093
5448.70549,0.02087
5446.77675,0.02149
5444.84800,0.02199
5442.91926,0.02206
5440.99051,0.02226
5439.06177,0.02260
5437.13302,0.02223
5435.20428,0.02161
5433.27553,0.02223
5431.34679,0.02349
5429.41804,0.02358
5427.48929,0.02292
5425.56055,0.02297
5423.63180,0.02343
5421.70306,0.02343
5419.77431,0.02305
5417.84557,0.02258
5415.91682,0.02221
5413.98808,0.02187
5412.05933,0.02178
5410.13059,0.02258
5408.20184,0.02352
5406.27310,0.02356
5404.34435,0.02343
5402.41561,0.02322
5400.48686,0.02275
5398.55811,0.02273
5396.62937,0.02282
5394.70062,0.02215
5392.77188,0.02101
5390.84313,0.02047
5388.91439,0.02088
5386.98564,0.02160
5385.05690,0.02240
5383.12815,0.02327
5381.19941,0.02377
5379.27066,0.02376
5377.34192,0.02349
5375.41317,0.02327
5373.48443,0.02325
5371.55568,0.02309
5369.62694,0.02270
5367.69819,0.02256
5365.76944,0.02292
5363.84070,0.02359
5361.91195,0.02420
5359.98321,0.02413
5358.05446,0.02341
5356.12572,0.02302
5354.19697,0.02310
5352.26823,0.02241
5350.33948,0.02121
5348.41074,0.02138
5346.48199,0.02247
5344.55325,0.02252
5342.62450,0.02195
5340.69576,0.02212
5338.76701,0.02279
5336.83827,0.02332
5334.90952,0.02331
5332.98077,0.02277
5331.05203,0.02224
5329.12328,0.02192
5327.19454,0.02211
5325.26579,0.02301
5323.33705,0.02382
5321.40830,0.02431
5319.47956,0.02478
5317.55081,0.02441
5315.62207,0.02290
5313.69332,0.02181
5311.76458,0.02213
5309.83583,0.02296
5307.90709,0.02363
5305.97834,0.02373
5304.04959,0.02327
5302.12085,0.02315
5300.19210,0.02303
5298.26336,0.02232
5296.33461,0.02212
5294.40587,0.02293
5292.47712,0.02359
5290.54838,0.02342
5288.61963,0.02314
5286.69089,0.02290
5284.76214,0.02251
5282.83340,0.02230
5280.90465,0.02231
5278.97591,0.02240
5277.04716,0.02255
5275.11842,0.02283
5273.18967,0.02319
5271.26092,0.02314
5269.33218,0.02289
5267.40343,0.02294
5265.47469,0.02312
5263.54594,0.02329
5261.61720,0.02371
5259.68845,0.02425
5257.75971,0.02392
5255.83096,0.02248
5253.90222,0.02128
5251.97347,0.02137
5250.04473,0.02260
5248.11598,0.02403
5246.18724,0.02446
5244.25849,0.02364
5242.32975,0.02242
5240.40100,0.02153
5238.47225,0.02133
5236.54351,0.02171
5234.61476,0.02195
5232.68602,0.02171
5230.75727,0.02165
5228.82853,0.02223
5226.89978,0.02279
5224.97104,0.02262
5223.04229,0.02233
5221.11355,0.02287
5219.18480,0.02380
5217.25606,0.02428
5215.32731,0.02399
5213.39857,0.02330
5211.46982,0.02343
5209.54107,0.02410
5207.61233,0.02371
5205.68358,0.02264
5203.75484,0.02252
5201.82609,0.02310
5199.89735,0.02299
5197.96860,0.02220
5196.03986,0.02210
5194.11111,0.02290
5192.18237,0.02340
5190.25362,0.02322
5188.32488,0.02297
5186.39613,0.02282
5184.46739,0.02237
5182.53864,0.02154
5180.60990,0.02100
5178.68115,0.02072
5176.75240,0.02056
5174.82366,0.02128
5172.89491,0.02228
5170.96617,0.02240
5169.03742,0.02214
5167.10868,0.02215
5165.17993,0.02240
5163.25119,0.02227
5161.32244,0.02169
5159.39370,0.02136
5157.46495,0.02129
5155.53621,0.02141
5153.60746,0.02215
5151.67872,0.02295
5149.74997,0.02292
5147.82123,0.02243
5145.89248,0.02249
5143.96373,0.02321
5142.03499,0.02361
5140.10624,0.02296
5138.17750,0.02214
5136.24875,0.02237
5134.32001,0.02321
5132.39126,0.02377
5130.46252,0.02394
5128.53377,0.02376
5126.60503,0.02362
5124.67628,0.02374
5122.74754,0.02360
5120.81879,0.02325
5118.89005,0.02333
5116.96130,0.02337
5115.03255,0.02284
5113.10381,0.02249
5111.17506,0.02276
5109.24632,0.02313
5107.31757,0.02332
5105.38883,0.02326
5103.46008,0.02307
5101.53134,0.02301
5099.60259,0.02285
5097.67385,0.02259
5095.74510,0.02274
5093.81636,0.02295
5091.88761,0.02253
5089.95887,0.02192
5088.03012,0.02208
5086.10138,0.02294
5084.17263,0.02366
5082.24388,0.02377
5080.31514,0.02328
5078.38639,0.02227
5076.45765,0.02133
5074.52890,0.02098
5072.60016,0.02119
5070.67141,0.02193
5068.74267,0.02301
5066.81392,0.02366
5064.88518,0.02323
5062.95643,0.02232
5061.02769,0.02210
5059.09894,0.02231
5057.17020,0.02213
5055.24145,0.02204
5053.31270,0.02240
5051.38396,0.02257
5049.45521,0.02237
5047.52647,0.02209
5045.59772,0.02185
5043.66898,0.02183
5041.74023,0.02212
5039.81149,0.02227
5037.88274,0.02218
5035.95400,0.02235
5034.02525,0.02301
5032.09651,0.02351
5030.16776,0.02297
5028.23902,0.02215
5026.31027,0.02227
5024.38153,0.02274
5022.45278,0.02291
5020.52403,0.02292
5018.59529,0.02252
5016.66654,0.02218
5014.73780,0.02252
5012.80905,0.02275
5010.88031,0.02262
5008.95156,0.02266
5007.02282,0.02280
5005.09407,0.02283
5003.16533,0.02288
5001.23658,0.02290
4999.30784,0.02291
4997.37909,0.02318
4995.45035,0.02376
4993.52160,0.02396
4991.59286,0.02325
4989.66411,0.02222
4987.73536,0.02173
4985.80662,0.02188
4983.87787,0.02224
4981.94913,0.02234
4980.02038,0.02213
4978.09164,0.02190
4976.16289,0.02211
4974.23415,0.02278
4972.30540,0.02304
4970.37666,0.02264
4968.44791,0.02231
4966.51917,0.02245
4964.59042,0.02281
4962.66168,0.02288
4960.73293,0.02277
4958.80418,0.02281
4956.87544,0.02282
4954.94669,0.02299
4953.01795,0.02351
4951.08920,0.02369
4949.16046,0.02320
4947.23171,0.02248
4945.30297,0.02209
4943.37422,0.02237
4941.44548,0.02271
4939.51673,0.02235
4937.58799,0.02198
4935.65924,0.02232
4933.73050,0.02284
4931.80175,0.02304
4929.87301,0.02318
4927.94426,0.02328
4926.01551,0.02292
4924.08677,0.02211
4922.15802,0.02173
4920.22928,0.02220
4918.30053,0.02284
4916.37179,0.02302
4914.44304,0.02274
4912.51430,0.02237
4910.58555,0.02241
4908.65681,0.02270
4906.72806,0.02262
4904.79932,0.02257
4902.87057,0.02313
4900.94183,0.02372
4899.01308,0.02356
4897.08434,0.02288
4895.15559,0.02237
4893.22684,0.02232
4891.29810,0.02242
4889.36935,0.02246
4887.44061,0.02263
4885.51186,0.02291
4883.58312,0.02304
4881.65437,0.02303
4879.72563,0.02317
4877.79688,0.02336
4875.86814,0.02287
4873.93939,0.02187
4872.01065,0.02162
4870.08190,0.02233
4868.15316,0.02282
4866.22441,0.02259
4864.29566,0.02242
4862.36692,0.02257
4860.43817,0.02289
4858.50943,0.02343
4856.58068,0.02381
4854.65194,0.02379
4852.72319,0.02345
4850.79445,0.02277
4848.86570,0.02219
4846.93696,0.02211
4845.00821,0.02255
4843.07947,0.02318
4841.15072,0.02333
4839.22198,0.02298
4837.29323,0.02265
4835.36449,0.02261
4833.43574,0.02271
4831.50699,0.02238
4829.57825,0.02196
4827.64950,0.02225
4825.72076,0.02268
4823.79201,0.02244
4821.86327,0.02202
4819.93452,0.02220
4818.00578,0.02252
4816.07703,0.02231
4814.14829,0.02210
4812.21954,0.02232
4810.29080,0.02253
4808.36205,0.02262
4806.43331,0.02285
4804.50456,0.02323
4802.57582,0.02334
4800.64707,0.02324
4798.71832,0.02341
4796.78958,0.02353
4794.86083,0.02309
4792.93209,0.02259
4791.00334,0.02268
4789.07460,0.02280
4787.14585,0.02259
4785.21711,0.02263
4783.28836,0.02273
4781.35962,0.02239
4779.43087,0.02213
4777.50213,0.02259
4775.57338,0.02346
4773.64464,0.02401
4771.71589,0.02402
4769.78714,0.02359
4767.85840,0.02289
4765.92965,0.02245
4764.00091,0.02247
4762.07216,0.02271
4760.14342,0.02302
4758.21467,0.02326
4756.28593,0.02359
4754.35718,0.02401
4752.42844,0.02383
4750.49969,0.02297
4748.57095,0.02230
4746.64220,0.02243
4744.71346,0.02301
4742.78471,0.02325
4740.85597,0.02326
4738.92722,0.02347
4736.99847,0.02351
4735.06973,0.02333
4733.14098,0.02319
4731.21224,0.02288
4729.28349,0.02267
4727.35475,0.02284
4725.42600,0.02291
4723.49726,0.02261
4721.56851,0.02226
4719.63977,0.02189
4717.71102,0.02158
4715.78228,0.02183
4713.85353,0.02247
4711.92479,0.02289
4709.99604,0.02301
4708.06729,0.02315
4706.13855,0.02346
4704.20980,0.02374
4702.28106,0.02364
4700.35231,0.02324
4698.42357,0.02294
4696.49482,0.02293
4694.56608,0.02314
4692.63733,0.02316
4690.70859,0.02273
4688.77984,0.02259
4686.85110,0.02319
4684.92235,0.02382
4682.99361,0.02376
4681.06486,0.02302
4679.13612,0.02243
4677.20737,0.02257
4675.27862,0.02303
4673.34988,0.02312
4671.42113,0.02294
4669.49239,0.02292
4667.56364,0.02299
4665.63490,0.02293
4663.70615,0.02272
4661.77741,0.02253
4659.84866,0.02286
4657.91992,0.02380
4655.99117,0.02446
4654.06243,0.02397
4652.13368,0.02318
4650.20494,0.02312
4648.27619,0.02330
4646.34745,0.02314
4644.41870,0.02283
4642.48995,0.02250
4640.56121,0.02235
4638.63246,0.02273
4636.70372,0.02350
4634.77497,0.02401
4632.84623,0.02379
4630.91748,0.02314
4628.98874,0.02289
4627.05999,0.02295
4625.13125,0.02306
4623.20250,0.02332
4621.27376,0.02337
4619.34501,0.02324
4617.41627,0.02324
4615.48752,0.02319
4613.55877,0.02323
4611.63003,0.02337
4609.70128,0.02343
4607.77254,0.02345
4605.84379,0.02343
4603.91505,0.02345
4601.98630,0.02353
4600.05756,0.02351
4598.12881,0.02350
4596.20007,0.02343
4594.27132,0.02318
4592.34258,0.02310
4590.41383,0.02319
4588.48509,0.02312
4586.55634,0.02300
4584.62760,0.02306
4582.69885,0.02317
4580.77010,0.02314
4578.84136,0.02294
4576.91261,0.02292
4574.98387,0.02325
4573.05512,0.02337
4571.12638,0.02325
4569.19763,0.02352
4567.26889,0.02388
4565.34014,0.02372
4563.41140,0.02338
4561.48265,0.02333
4559.55391,0.02332
4557.62516,0.02301
4555.69642,0.02283
4553.76767,0.02318
4551.83893,0.02362
4549.91018,0.02365
4547.98143,0.02330
4546.05269,0.02297
4544.12394,0.02301
4542.19520,0.02322
4540.26645,0.02328
4538.33771,0.02331
4536.40896,0.02338
4534.48022,0.02329
4532.55147,0.02301
4530.62273,0.02266
4528.69398,0.02230
4526.76524,0.02217
4524.83649,0.02246
4522.90775,0.02288
4520.97900,0.02310
4519.05025,0.02288
4517.12151,0.02239
4515.19276,0.02206
4513.26402,0.02215
4511.33527,0.02259
4509.40653,0.02299
4507.47778,0.02314
4505.54904,0.02332
4503.62029,0.02354
4501.69155,0.02378
4499.76280,0.02392
4497.83406,0.02369
4495.90531,0.02328
4493.97657,0.02301
4492.04782,0.02266
4490.11908,0.02220
4488.19033,0.02197
4486.26158,0.02212
4484.33284,0.02257
4482.40409,0.02329
4480.47535,0.02393
4478.54660,0.02397
4476.61786,0.02345
4474.68911,0.02303
4472.76037,0.02316
4470.83162,0.02351
4468.90288,0.02364
4466.97413,0.02367
4465.04539,0.02353
4463.11664,0.02319
4461.18790,0.02295
4459.25915,0.02292
4457.33041,0.02293
4455.40166,0.02291
4453.47291,0.02297
4451.54417,0.02298
4449.61542,0.02279
4447.68668,0.02259
4445.75793,0.02245
4443.82919,0.02221
4441.90044,0.02192
4439.97170,0.02167
4438.04295,0.02168
4436.11421,0.02220
4434.18546,0.02283
4432.25672,0.02307
4430.32797,0.02285
4428.39923,0.02258
4426.47048,0.02280
4424.54173,0.02316
4422.61299,0.02322
4420.68424,0.02347
4418.75550,0.02397
4416.82675,0.02417
4414.89801,0.02410
4412.96926,0.02391
4411.04052,0.02352
4409.11177,0.02312
4407.18303,0.02305
4405.25428,0.02330
4403.32554,0.02325
4401.39679,0.02265
4399.46805,0.02223
4397.53930,0.02246
4395.61056,0.02272
4393.68181,0.02256
4391.75306,0.02255
4389.82432,0.02288
4387.89557,0.02275
4385.96683,0.02215
4384.03808,0.02193
4382.10934,0.02238
4380.18059,0.02322
4378.25185,0.02393
4376.32310,0.02406
4374.39436,0.02381
4372.46561,0.02362
4370.53687,0.02361
4368.60812,0.02383
4366.67938,0.02394
4364.75063,0.02364
4362.82189,0.02326
4360.89314,0.02305
4358.96439,0.02295
4357.03565,0.02278
4355.10690,0.02236
4353.17816,0.02204
4351.24941,0.02223
4349.32067,0.02249
4347.39192,0.02258
4345.46318,0.02289
4343.53443,0.02314
4341.60569,0.02286
4339.67694,0.02258
4337.74820,0.02275
4335.81945,0.02294
4333.89071,0.02280
4331.96196,0.02264
4330.03321,0.02271
4328.10447,0.02284
4326.17572,0.02300
4324.24698,0.02320
4322.31823,0.02330
4320.38949,0.02322
4318.46074,0.02313
4316.53200,0.02320
4314.60325,0.02330
4312.67451,0.02317
4310.74576,0.02302
4308.81702,0.02310
4306.88827,0.02341
4304.95953,0.02368
4303.03078,0.02366
4301.10204,0.02338
4299.17329,0.02311
4297.24454,0.02305
4295.31580,0.02314
4293.38705,0.02317
4291.45831,0.02303
4289.52956,0.02300
4287.60082,0.02334
4285.67207,0.02362
4283.74333,0.02342
4281.81458,0.02310
4279.88584,0.02313
4277.95709,0.02331
4276.02835,0.02316
4274.09960,0.02273
4272.17086,0.02262
4270.24211,0.02298
4268.31336,0.02335
4266.38462,0.02348
4264.45587,0.02342
4262.52713,0.02328
4260.59838,0.02307
4258.66964,0.02310
4256.74089,0.02353
4254.81215,0.02364
4252.88340,0.02314
4250.95466,0.02291
4249.02591,0.02318
4247.09717,0.02336
4245.16842,0.02342
4243.23968,0.02359
4241.31093,0.02364
4239.38219,0.02332
4237.45344,0.02287
4235.52469,0.02276
4233.59595,0.02303
4231.66720,0.02325
4229.73846,0.02326
4227.80971,0.02331
4225.88097,0.02355
4223.95222,0.02371
4222.02348,0.02351
4220.09473,0.02325
4218.16599,0.02319
4216.23724,0.02325
4214.30850,0.02336
4212.37975,0.02345
4210.45101,0.02344
4208.52226,0.02344
4206.59352,0.02353
4204.66477,0.02355
4202.73602,0.02355
4200.80728,0.02374
4198.87853,0.02382
4196.94979,0.02368
4195.02104,0.02352
4193.09230,0.02326
4191.16355,0.02305
4189.23481,0.02312
4187.30606,0.02329
4185.37732,0.02343
4183.44857,0.02355
4181.51983,0.02356
4179.59108,0.02343
4177.66234,0.02331
4175.73359,0.02328
4173.80484,0.02332
4171.87610,0.02333
4169.94735,0.02328
4168.01861,0.02322
4166.08986,0.02320
4164.16112,0.02318
4162.23237,0.02314
4160.30363,0.02321
4158.37488,0.02336
4156.44614,0.02335
4154.51739,0.02308
4152.58865,0.02256
4150.65990,0.02222
4148.73116,0.02259
4146.80241,0.02310
4144.87367,0.02312
4142.94492,0.02308
4141.01617,0.02323
4139.08743,0.02322
4137.15868,0.02300
4135.22994,0.02294
4133.30119,0.02315
4131.37245,0.02338
4129.44370,0.02336
4127.51496,0.02332
4125.58621,0.02341
4123.65747,0.02339
4121.72872,0.02342
4119.79998,0.02371
4117.87123,0.02408
4115.94249,0.02430
4114.01374,0.02428
4112.08500,0.02404
4110.15625,0.02371
4108.22750,0.02333
4106.29876,0.02301
4104.37001,0.02290
4102.44127,0.02289
4100.51252,0.02277
4098.58378,0.02257
4096.65503,0.02267
4094.72629,0.02316
4092.79754,0.02350
4090.86880,0.02341
4088.94005,0.02321
4087.01131,0.02313
4085.08256,0.02314
4083.15382,0.02317
4081.22507,0.02324
4079.29632,0.02340
4077.36758,0.02356
4075.43883,0.02343
4073.51009,0.02326
4071.58134,0.02347
4069.65260,0.02381
4067.72385,0.02386
4065.79511,0.02345
4063.86636,0.02287
4061.93762,0.02273
4060.00887,0.02303
4058.08013,0.02325
4056.15138,0.02320
4054.22264,0.02319
4052.29389,0.02352
4050.36515,0.02385
4048.43640,0.02364
4046.50765,0.02297
4044.57891,0.02243
4042.65016,0.02240
4040.72142,0.02273
4038.79267,0.02308
4036.86393,0.02346
4034.93518,0.02391
4033.00644,0.02417
4031.07769,0.02407
4029.14895,0.02356
4027.22020,0.02288
4025.29146,0.02255
4023.36271,0.02268
4021.43397,0.02306
4019.50522,0.02353
4017.57648,0.02382
4015.64773,0.02374
4013.71898,0.02344
4011.79024,0.02315
4009.86149,0.02308
4007.93275,0.02313
4006.00400,0.02306
4004.07526,0.02290
4002.14651,0.02276
4000.21777,0.02260
3998.28902,0.02254
3996.36028,0.02287
3994.43153,0.02332
3992.50279,0.02345
3990.57404,0.02338
3988.64530,0.02332
3986.71655,0.02331
3984.78780,0.02332
3982.85906,0.02324
3980.93031,0.02310
3979.00157,0.02309
3977.07282,0.02318
3975.14408,0.02341
3973.21533,0.02365
3971.28659,0.02365
3969.35784,0.02358
3967.42910,0.02358
3965.50035,0.02349
3963.57161,0.02333
3961.64286,0.02332
3959.71412,0.02339
3957.78537,0.02340
3955.85663,0.02343
3953.92788,0.02348
3951.99913,0.02346
3950.07039,0.02341
3948.14164,0.02329
3946.21290,0.02313
3944.28415,0.02316
3942.35541,0.02346
3940.42666,0.02369
3938.49792,0.02368
3936.56917,0.02366
3934.64043,0.02368
3932.71168,0.02363
3930.78294,0.02343
3928.85419,0.02316
3926.92545,0.02315
3924.99670,0.02335
3923.06795,0.02342
3921.13921,0.02327
3919.21046,0.02316
3917.28172,0.02323
3915.35297,0.02336
3913.42423,0.02334
3911.49548,0.02342
3909.56674,0.02373
3907.63799,0.02395
3905.70925,0.02386
3903.78050,0.02359
3901.85176,0.02339
3899.92301,0.02331
3897.99427,0.02318
3896.06552,0.02306
3894.13678,0.02321
3892.20803,0.02352
3890.27928,0.02365
3888.35054,0.02363
3886.42179,0.02374
3884.49305,0.02394
3882.56430,0.02389
3880.63556,0.02338
3878.70681,0.02289
3876.77807,0.02290
3874.84932,0.02303
3872.92058,0.02298
3870.99183,0.02295
3869.06309,0.02299
3867.13434,0.02299
3865.20560,0.02308
3863.27685,0.02339
3861.34811,0.02370
3859.41936,0.02375
3857.49061,0.02377
3855.56187,0.02402
3853.63312,0.02420
3851.70438,0.02399
3849.77563,0.02360
3847.84689,0.02335
3845.91814,0.02330
3843.98940,0.02337
3842.06065,0.02349
3840.13191,0.02355
3838.20316,0.02347
3836.27442,0.02338
3834.34567,0.02324
3832.41693,0.02310
3830.48818,0.02319
3828.55943,0.02338
3826.63069,0.02340
3824.70194,0.02333
3822.77320,0.02340
3820.84445,0.02368
3818.91571,0.02405
3816.98696,0.02421
3815.05822,0.02408
3813.12947,0.02374
3811.20073,0.02335
3809.27198,0.02311
3807.34324,0.02326
3805.41449,0.02363
3803.48575,0.02378
3801.55700,0.02371
3799.62826,0.02379
3797.69951,0.02394
3795.77076,0.02389
3793.84202,0.02371
3791.91327,0.02362
3789.98453,0.02366
3788.05578,0.02376
3786.12704,0.02392
3784.19829,0.02396
3782.26955,0.02376
3780.34080,0.02364
3778.41206,0.02379
3776.48331,0.02392
3774.55457,0.02387
3772.62582,0.02374
3770.69708,0.02348
3768.76833,0.02323
3766.83959,0.02316
3764.91084,0.02304
3762.98209,0.02277
3761.05335,0.02278
3759.12460,0.02329
3757.19586,0.02386
3755.26711,0.02395
3753.33837,0.02360
3751.40962,0.02332
3749.48088,0.02357
3747.55213,0.02395
3745.62339,0.02399
3743.69464,0.02378
3741.76590,0.02352
3739.83715,0.02328
3737.90841,0.02319
3735.97966,0.02325
3734.05091,0.02323
3732.12217,0.02298
3730.19342,0.02280
3728.26468,0.02305
3726.33593,0.02344
3724.40719,0.02347
3722.47844,0.02326
3720.54970,0.02315
3718.62095,0.02324
3716.69221,0.02324
3714.76346,0.02302
3712.83472,0.02305
3710.90597,0.02336
3708.97723,0.02338
3707.04848,0.02303
3705.11974,0.02271
3703.19099,0.02266
3701.26224,0.02282
3699.33350,0.02297
3697.40475,0.02306
3695.47601,0.02312
3693.54726,0.02304
3691.61852,0.02283
3689.68977,0.02266
3687.76103,0.02260
3685.83228,0.02265
3683.90354,0.02291
3681.97479,0.02329
3680.04605,0.02342
3678.11730,0.02318
3676.18856,0.02286
3674.25981,0.02282
3672.33107,0.02302
3670.40232,0.02303
3668.47357,0.02278
3666.54483,0.02246
3664.61608,0.02235
3662.68734,0.02255
3660.75859,0.02273
3658.82985,0.02281
3656.90110,0.02291
3654.97236,0.02292
3653.04361,0.02281
3651.11487,0.02254
3649.18612,0.02215
3647.25738,0.02198
3645.32863,0.02213
3643.39989,0.02238
3641.47114,0.02261
3639.54239,0.02267
3637.61365,0.02255
3635.68490,0.02255
3633.75616,0.02274
3631.82741,0.02288
3629.89867,0.02284
3627.96992,0.02255
3626.04118,0.02222
3624.11243,0.02221
3622.18369,0.02276
3620.25494,0.02339
3618.32620,0.02330
3616.39745,0.02276
3614.46871,0.02244
3612.53996,0.02227
3610.61122,0.02214
3608.68247,0.02236
3606.75372,0.02271
3604.82498,0.02265
3602.89623,0.02232
3600.96749,0.02211
3599.03874,0.02216
3597.11000,0.02246
3595.18125,0.02277
3593.25251,0.02288
3591.32376,0.02296
3589.39502,0.02316
3587.46627,0.02324
3585.53753,0.02300
3583.60878,0.02265
3581.68004,0.02245
3579.75129,0.02243
3577.82254,0.02235
3575.89380,0.02213
3573.96505,0.02187
3572.03631,0.02179
3570.10756,0.02207
3568.17882,0.02243
3566.25007,0.02270
3564.32133,0.02297
3562.39258,0.02307
3560.46384,0.02284
3558.53509,0.02245
3556.60635,0.02210
3554.67760,0.02182
3552.74886,0.02176
3550.82011,0.02187
3548.89137,0.02195
3546.96262,0.02198
3545.03387,0.02203
3543.10513,0.02209
3541.17638,0.02208
3539.24764,0.02186
3537.31889,0.02147
3535.39015,0.02114
3533.46140,0.02107
3531.53266,0.02125
3529.60391,0.02147
3527.67517,0.02169
3525.74642,0.02192
3523.81768,0.02193
3521.88893,0.02166
3519.96019,0.02130
3518.03144,0.02107
3516.10270,0.02120
3514.17395,0.02165
3512.24520,0.02193
3510.31646,0.02184
3508.38771,0.02174
3506.45897,0.02175
3504.53022,0.02167
3502.60148,0.02151
3500.67273,0.02153
3498.74399,0.02176
3496.81524,0.02196
3494.88650,0.02193
3492.95775,0.02172
3491.02901,0.02145
3489.10026,0.02137
3487.17152,0.02160
3485.24277,0.02189
3483.31402,0.02212
3481.38528,0.02220
3479.45653,0.02196
3477.52779,0.02166
3475.59904,0.02167
3473.67030,0.02197
3471.74155,0.02213
3469.81281,0.02204
3467.88406,0.02206
3465.95532,0.02213
3464.02657,0.02197
3462.09783,0.02182
3460.16908,0.02183
3458.24034,0.02165
3456.31159,0.02130
3454.38285,0.02105
3452.45410,0.02116
3450.52535,0.02164
3448.59661,0.02191
3446.66786,0.02156
3444.73912,0.02107
3442.81037,0.02097
3440.88163,0.02120
3438.95288,0.02143
3437.02414,0.02150
3435.09539,0.02143
3433.16665,0.02122
3431.23790,0.02101
3429.30916,0.02097
3427.38041,0.02097
3425.45167,0.02095
3423.52292,0.02099
3421.59418,0.02100
3419.66543,0.02089
3417.73668,0.02081
3415.80794,0.02080
3413.87919,0.02077
3411.95045,0.02085
3410.02170,0.02107
3408.09296,0.02105
3406.16421,0.02074
3404.23547,0.02059
3402.30672,0.02079
3400.37798,0.02110
3398.44923,0.02117
3396.52049,0.02095
3394.59174,0.02087
3392.66300,0.02091
3390.73425,0.02085
3388.80550,0.02091
3386.87676,0.02111
3384.94801,0.02113
3383.01927,0.02095
3381.09052,0.02072
3379.16178,0.02048
3377.23303,0.02034
3375.30429,0.02027
3373.37554,0.02012
3371.44680,0.02019
3369.51805,0.02049
3367.58931,0.02059
3365.66056,0.02063
3363.73182,0.02094
3361.80307,0.02130
3359.87433,0.02148
3357.94558,0.02152
3356.01683,0.02149
3354.08809,0.02147
3352.15934,0.02138
3350.23060,0.02116
3348.30185,0.02100
3346.37311,0.02088
3344.44436,0.02061
3342.51562,0.02035
3340.58687,0.02042
3338.65813,0.02072
3336.72938,0.02082
3334.80064,0.02072
3332.87189,0.02068
3330.94315,0.02063
3329.01440,0.02053
3327.08566,0.02048
3325.15691,0.02052
3323.22816,0.02060
3321.29942,0.02068
3319.37067,0.02075
3317.44193,0.02082
3315.51318,0.02075
3313.58444,0.02051
3311.65569,0.02050
3309.72695,0.02092
3307.79820,0.02112
3305.86946,0.02085
3303.94071,0.02062
3302.01197,0.02053
3300.08322,0.02049
3298.15448,0.02068
3296.22573,0.02098
3294.29698,0.02109
3292.36824,0.02107
3290.43949,0.02123
3288.51075,0.02150
3286.58200,0.02153
3284.65326,0.02127
3282.72451,0.02100
3280.79577,0.02085
3278.86702,0.02067
3276.93828,0.02057
3275.00953,0.02062
3273.08079,0.02057
3271.15204,0.02047
3269.22330,0.02061
3267.29455,0.02108
3265.36581,0.02173
3263.43706,0.02223
3261.50831,0.02217
3259.57957,0.02173
3257.65082,0.02145
3255.72208,0.02144
3253.79333,0.02150
3251.86459,0.02143
3249.93584,0.02136
3248.00710,0.02157
3246.07835,0.02175
3244.14961,0.02157
3242.22086,0.02147
3240.29212,0.02174
3238.36337,0.02196
3236.43463,0.02189
3234.50588,0.02175
3232.57713,0.02164
3230.64839,0.02149
3228.71964,0.02158
3226.79090,0.02175
3224.86215,0.02125
3222.93341,0.02037
3221.00466,0.02005
3219.07592,0.02034
3217.14717,0.02062
3215.21843,0.02081
3213.28968,0.02123
3211.36094,0.02158
3209.43219,0.02128
3207.50345,0.02077
3205.57470,0.02068
3203.64596,0.02084
3201.71721,0.02090
3199.78846,0.02082
3197.85972,0.02096
3195.93097,0.02153
3194.00223,0.02200
3192.07348,0.02195
3190.14474,0.02161
3188.21599,0.02118
3186.28725,0.02104
3184.35850,0.02129
3182.42976,0.02149
3180.50101,0.02147
3178.57227,0.02125
3176.64352,0.02094
3174.71478,0.02090
3172.78603,0.02119
3170.85729,0.02165
3168.92854,0.02211
3166.99979,0.02240
3165.07105,0.02230
3163.14230,0.02192
3161.21356,0.02159
3159.28481,0.02132
3157.35607,0.02118
3155.42732,0.02129
3153.49858,0.02137
3151.56983,0.02136
3149.64109,0.02163
3147.71234,0.02205
3145.78360,0.02200
3143.85485,0.02144
3141.92611,0.02097
3139.99736,0.02094
3138.06861,0.02113
3136.13987,0.02134
3134.21112,0.02170
3132.28238,0.02198
3130.35363,0.02190
3128.42489,0.02168
3126.49614,0.02147
3124.56740,0.02126
3122.63865,0.02132
3120.70991,0.02155
3118.78116,0.02155
3116.85242,0.02140
3114.92367,0.02126
3112.99493,0.02126
3111.06618,0.02158
3109.13744,0.02187
3107.20869,0.02181
3105.27994,0.02165
3103.35120,0.02175
3101.42245,0.02206
3099.49371,0.02206
3097.56496,0.02164
3095.63622,0.02125
3093.70747,0.02114
3091.77873,0.02133
3089.84998,0.02163
3087.92124,0.02157
3085.99249,0.02121
3084.06375,0.02114
3082.13500,0.02137
3080.20626,0.02144
3078.27751,0.02136
3076.34877,0.02127
3074.42002,0.02104
3072.49127,0.02073
3070.56253,0.02076
3068.63378,0.02117
3066.70504,0.02162
3064.77629,0.02175
3062.84755,0.02165
3060.91880,0.02151
3058.99006,0.02125
3057.06131,0.02099
3055.13257,0.02105
3053.20382,0.02139
3051.27508,0.02154
3049.34633,0.02142
3047.41759,0.02140
3045.48884,0.02158
3043.56009,0.02169
3041.63135,0.02161
3039.70260,0.02154
3037.77386,0.02160
3035.84511,0.02164
3033.91637,0.02153
3031.98762,0.02149
3030.05888,0.02167
3028.13013,0.02173
3026.20139,0.02153
3024.27264,0.02134
3022.34390,0.02120
3020.41515,0.02107
3018.48641,0.02111
3016.55766,0.02139
3014.62892,0.02192
3012.70017,0.02232
3010.77142,0.02229
3008.84268,0.02206
3006.91393,0.02184
3004.98519,0.02164
3003.05644,0.02149
3001.12770,0.02146
2999.19895,0.02142
2997.27021,0.02129
2995.34146,0.02115
2993.41272,0.02100
2991.48397,0.02069
2989.55523,0.02037
2987.62648,0.02015
2985.69774,0.02007
2983.76899,0.02016
2981.84025,0.02039
2979.91150,0.02065
2977.98275,0.02069
2976.05401,0.02052
2974.12526,0.02042
2972.19652,0.02035
2970.26777,0.02017
2968.33903,0.02003
2966.41028,0.02012
2964.48154,0.02026
2962.55279,0.02022
2960.62405,0.02015
2958.69530,0.02038
2956.76656,0.02068
2954.83781,0.02061
2952.90907,0.02040
2950.98032,0.02047
2949.05157,0.02070
2947.12283,0.02079
2945.19408,0.02067
2943.26534,0.02057
2941.33659,0.02060
2939.40785,0.02060
2937.47910,0.02044
2935.55036,0.02028
2933.62161,0.02031
2931.69287,0.02041
2929.76412,0.02039
2927.83538,0.02035
2925.90663,0.02050
2923.97789,0.02076
2922.04914,0.02100
2920.12040,0.02108
2918.19165,0.02091
2916.26290,0.02072
2914.33416,0.02077
2912.40541,0.02098
2910.47667,0.02118
2908.54792,0.02128
2906.61918,0.02127
2904.69043,0.02118
2902.76169,0.02107
2900.83294,0.02111
2898.90420,0.02139
2896.97545,0.02171
2895.04671,0.02180
2893.11796,0.02161
2891.18922,0.02136
2889.26047,0.02126
2887.33172,0.02123
2885.40298,0.02117
2883.47423,0.02113
2881.54549,0.02117
2879.61674,0.02129
2877.68800,0.02142
2875.75925,0.02140
2873.83051,0.02131
2871.90176,0.02125
2869.97302,0.02119
2868.04427,0.02118
2866.11553,0.02117
2864.18678,0.02102
2862.25804,0.02097
2860.32929,0.02108
2858.40055,0.02116
2856.47180,0.02134
2854.54305,0.02177
2852.61431,0.02222
2850.68556,0.02233
2848.75682,0.02225
2846.82807,0.02224
2844.89933,0.02222
2842.97058,0.02226
2841.04184,0.02232
2839.11309,0.02217
2837.18435,0.02206
2835.25560,0.02232
2833.32686,0.02260
2831.39811,0.02248
2829.46937,0.02207
2827.54062,0.02170
2825.61188,0.02167
2823.68313,0.02202
2821.75438,0.02231
2819.82564,0.02223
2817.89689,0.02194
2815.96815,0.02172
2814.03940,0.02181
2812.11066,0.02212
2810.18191,0.02224
2808.25317,0.02218
2806.32442,0.02234
2804.39568,0.02256
2802.46693,0.02242
2800.53819,0.02204
2798.60944,0.02190
2796.68070,0.02207
2794.75195,0.02230
2792.82320,0.02242
2790.89446,0.02233
2788.96571,0.02201
2787.03697,0.02170
2785.10822,0.02166
2783.17948,0.02190
2781.25073,0.02226
2779.32199,0.02237
2777.39324,0.02217
2775.46450,0.02213
2773.53575,0.02227
2771.60701,0.02226
2769.67826,0.02214
2767.74952,0.02210
2765.82077,0.02207
2763.89203,0.02207
2761.96328,0.02222
2760.03453,0.02236
2758.10579,0.02232
2756.17704,0.02222
2754.24830,0.02221
2752.31955,0.02220
2750.39081,0.02210
2748.46206,0.02206
2746.53332,0.02218
2744.60457,0.02235
2742.67583,0.02237
2740.74708,0.02222
2738.81834,0.02211
2736.88959,0.02211
2734.96085,0.02217
2733.03210,0.02220
2731.10336,0.02214
2729.17461,0.02223
2727.24586,0.02241
2725.31712,0.02236
2723.38837,0.02225
2721.45963,0.02220
2719.53088,0.02202
2717.60214,0.02180
2715.67339,0.02188
2713.74465,0.02219
2711.81590,0.02227
2709.88716,0.02211
2707.95841,0.02203
2706.02967,0.02209
2704.10092,0.02224
2702.17218,0.02238
2700.24343,0.02243
2698.31468,0.02246
2696.38594,0.02249
2694.45719,0.02238
2692.52845,0.02207
2690.59970,0.02186
2688.67096,0.02193
2686.74221,0.02205
2684.81347,0.02209
2682.88472,0.02212
2680.95598,0.02204
2679.02723,0.02192
2677.09849,0.02187
2675.16974,0.02176
2673.24100,0.02166
2671.31225,0.02179
2669.38351,0.02201
2667.45476,0.02206
2665.52601,0.02205
2663.59727,0.02221
2661.66852,0.02227
2659.73978,0.02205
2657.81103,0.02195
2655.88229,0.02213
2653.95354,0.02219
2652.02480,0.02196
2650.09605,0.02174
2648.16731,0.02173
2646.23856,0.02186
2644.30982,0.02190
2642.38107,0.02192
2640.45233,0.02208
2638.52358,0.02225
2636.59484,0.02223
2634.66609,0.02204
2632.73734,0.02192
2630.80860,0.02197
2628.87985,0.02208
2626.95111,0.02226
2625.02236,0.02243
2623.09362,0.02243
2621.16487,0.02240
2619.23613,0.02248
2617.30738,0.02250
2615.37864,0.02243
2613.44989,0.02238
2611.52115,0.02225
2609.59240,0.02194
2607.66366,0.02178
2605.73491,0.02199
2603.80616,0.02220
2601.87742,0.02219
2599.94867,0.02207
2598.01993,0.02195
2596.09118,0.02187
2594.16244,0.02171
2592.23369,0.02155
2590.30495,0.02174
2588.37620,0.02215
2586.44746,0.02231
2584.51871,0.02229
2582.58997,0.02231
2580.66122,0.02213
2578.73248,0.02180
2576.80373,0.02169
2574.87499,0.02173
2572.94624,0.02183
2571.01749,0.02209
2569.08875,0.02233
2567.16000,0.02233
2565.23126,0.02224
2563.30251,0.02221
2561.37377,0.02220
2559.44502,0.02219
2557.51628,0.02213
2555.58753,0.02210
2553.65879,0.02210
2551.73004,0.02205
2549.80130,0.02202
2547.87255,0.02203
2545.94381,0.02189
2544.01506,0.02174
2542.08631,0.02185
2540.15757,0.02207
2538.22882,0.02219
2536.30008,0.02223
2534.37133,0.02236
2532.44259,0.02252
2530.51384,0.02245
2528.58510,0.02216
2526.65635,0.02196
2524.72761,0.02197
2522.79886,0.02211
2520.87012,0.02216
2518.94137,0.02208
2517.01263,0.02198
2515.08388,0.02186
2513.15514,0.02180
2511.22639,0.02193
2509.29764,0.02210
2507.36890,0.02213
2505.44015,0.02213
2503.51141,0.02223
2501.58266,0.02228
2499.65392,0.02213
2497.72517,0.02195
2495.79643,0.02194
2493.86768,0.02202
2491.93894,0.02207
2490.01019,0.02211
2488.08145,0.02210
2486.15270,0.02199
2484.22396,0.02190
2482.29521,0.02191
2480.36647,0.02198
2478.43772,0.02202
2476.50897,0.02204
2474.58023,0.02220
2472.65148,0.02239
2470.72274,0.02231
2468.79399,0.02206
2466.86525,0.02196
2464.93650,0.02199
2463.00776,0.02204
2461.07901,0.02214
2459.15027,0.02232
2457.22152,0.02241
2455.29278,0.02232
2453.36403,0.02225
2451.43529,0.02240
2449.50654,0.02250
2447.57779,0.02228
2445.64905,0.02205
2443.72030,0.02209
2441.79156,0.02218
2439.86281,0.02212
2437.93407,0.02215
2436.00532,0.02235
2434.07658,0.02244
2432.14783,0.02234
2430.21909,0.02223
2428.29034,0.02219
2426.36160,0.02218
2424.43285,0.02207
2422.50411,0.02188
2420.57536,0.02180
2418.64662,0.02181
2416.71787,0.02186
2414.78912,0.02204
2412.86038,0.02223
2410.93163,0.02227
2409.00289,0.02218
2407.07414,0.02198
2405.14540,0.02176
2403.21665,0.02166
2401.28791,0.02181
2399.35916,0.02220
2397.43042,0.02254
2395.50167,0.02251
2393.57293,0.02232
2391.64418,0.02226
2389.71544,0.02229
2387.78669,0.02236
2385.85795,0.02242
2383.92920,0.02239
2382.00045,0.02225
2380.07171,0.02211
2378.14296,0.02203
2376.21422,0.02193
2374.28547,0.02180
2372.35673,0.02180
2370.42798,0.02190
2368.49924,0.02189
2366.57049,0.02177
2364.64175,0.02168
2362.71300,0.02179
2360.78426,0.02206
2358.85551,0.02217
2356.92677,0.02217
2354.99802,0.02215
2353.06927,0.02200
2351.14053,0.02183
2349.21178,0.02185
2347.28304,0.02207
2345.35429,0.02228
2343.42555,0.02240
2341.49680,0.02249
2339.56806,0.02255
2337.63931,0.02247
2335.71057,0.02222
2333.78182,0.02195
2331.85308,0.02191
2329.92433,0.02208
2327.99559,0.02223
2326.06684,0.02220
2324.13810,0.02212
2322.20935,0.02218
2320.28060,0.02233
2318.35186,0.02240
2316.42311,0.02229
2314.49437,0.02206
2312.56562,0.02194
2310.63688,0.02192
2308.70813,0.02182
2306.77939,0.02174
2304.85064,0.02182
2302.92190,0.02199
2300.99315,0.02209
2299.06441,0.02198
2297.13566,0.02182
2295.20692,0.02191
2293.27817,0.02210
2291.34943,0.02212
2289.42068,0.02198
2287.49193,0.02175
2285.56319,0.02164
2283.63444,0.02174
2281.70570,0.02193
2279.77695,0.02212
2277.84821,0.02230
2275.91946,0.02235
2273.99072,0.02221
2272.06197,0.02192
2270.13323,0.02164
2268.20448,0.02164
2266.27574,0.02194
2264.34699,0.02218
2262.41825,0.02225
2260.48950,0.02225
2258.56075,0.02215
2256.63201,0.02196
2254.70326,0.02178
2252.77452,0.02165
2250.84577,0.02159
2248.91703,0.02154
2246.98828,0.02154
2245.05954,0.02167
2243.13079,0.02186
2241.20205,0.02199
2239.27330,0.02206
2237.34456,0.02206
2235.41581,0.02206
2233.48707,0.02219
2231.55832,0.02230
2229.62958,0.02222
2227.70083,0.02203
2225.77208,0.02195
2223.84334,0.02207
2221.91459,0.02226
2219.98585,0.02224
2218.05710,0.02204
2216.12836,0.02186
2214.19961,0.02170
2212.27087,0.02167
2210.34212,0.02187
2208.41338,0.02198
2206.48463,0.02179
2204.55589,0.02158
2202.62714,0.02156
2200.69840,0.02168
2198.76965,0.02188
2196.84090,0.02201
2194.91216,0.02200
2192.98341,0.02189
2191.05467,0.02180
2189.12592,0.02183
2187.19718,0.02182
2185.26843,0.02170
2183.33969,0.02171
2181.41094,0.02186
2179.48220,0.02190
2177.55345,0.02179
2175.62471,0.02174
2173.69596,0.02187
2171.76722,0.02203
2169.83847,0.02207
2167.90973,0.02205
2165.98098,0.02195
2164.05223,0.02185
2162.12349,0.02189
2160.19474,0.02195
2158.26600,0.02185
2156.33725,0.02177
2154.40851,0.02196
2152.47976,0.02220
2150.55102,0.02226
2148.62227,0.02218
2146.69353,0.02207
2144.76478,0.02203
2142.83604,0.02206
2140.90729,0.02204
2138.97855,0.02200
2137.04980,0.02204
2135.12106,0.02215
2133.19231,0.02221
2131.26356,0.02211
2129.33482,0.02196
2127.40607,0.02196
2125.47733,0.02210
2123.54858,0.02219
2121.61984,0.02214
2119.69109,0.02205
2117.76235,0.02196
2115.83360,0.02186
2113.90486,0.02185
2111.97611,0.02193
2110.04737,0.02194
2108.11862,0.02190
2106.18988,0.02198
2104.26113,0.02212
2102.33238,0.02210
2100.40364,0.02189
2098.47489,0.02173
2096.54615,0.02170
2094.61740,0.02158
2092.68866,0.02146
2090.75991,0.02153
2088.83117,0.02159
2086.90242,0.02164
2084.97368,0.02181
2083.04493,0.02196
2081.11619,0.02187
2079.18744,0.02157
2077.25870,0.02134
2075.32995,0.02143
2073.40121,0.02166
2071.47246,0.02167
2069.54371,0.02156
2067.61497,0.02162
2065.68622,0.02175
2063.75748,0.02180
2061.82873,0.02183
2059.89999,0.02187
2057.97124,0.02193
2056.04250,0.02189
2054.11375,0.02178
2052.18501,0.02178
2050.25626,0.02184
2048.32752,0.02176
2046.39877,0.02164
2044.47003,0.02165
2042.54128,0.02169
2040.61254,0.02173
2038.68379,0.02180
2036.75504,0.02185
2034.82630,0.02187
2032.89755,0.02191
2030.96881,0.02193
2029.04006,0.02196
2027.11132,0.02194
2025.18257,0.02175
2023.25383,0.02156
2021.32508,0.02155
2019.39634,0.02156
2017.46759,0.02152
2015.53885,0.02160
2013.61010,0.02178
2011.68136,0.02184
2009.75261,0.02175
2007.82386,0.02178
2005.89512,0.02191
2003.96637,0.02180
2002.03763,0.02160
2000.10888,0.02161
1998.18014,0.02173
1996.25139,0.02187
1994.32265,0.02194
1992.39390,0.02183
1990.46516,0.02162
1988.53641,0.02146
1986.60767,0.02142
1984.67892,0.02153
1982.75018,0.02167
1980.82143,0.02173
1978.89269,0.02171
1976.96394,0.02171
1975.03519,0.02181
1973.10645,0.02188
1971.17770,0.02176
1969.24896,0.02162
1967.32021,0.02165
1965.39147,0.02170
1963.46272,0.02163
1961.53398,0.02163
1959.60523,0.02179
1957.67649,0.02197
1955.74774,0.02203
1953.81900,0.02198
1951.89025,0.02189
1949.96151,0.02184
1948.03276,0.02188
1946.10402,0.02191
1944.17527,0.02186
1942.24652,0.02178
1940.31778,0.02173
1938.38903,0.02168
1936.46029,0.02156
1934.53154,0.02138
1932.60280,0.02126
1930.67405,0.02127
1928.74531,0.02138
1926.81656,0.02150
1924.88782,0.02153
1922.95907,0.02152
1921.03033,0.02145
1919.10158,0.02129
1917.17284,0.02119
1915.24409,0.02121
1913.31534,0.02131
1911.38660,0.02148
1909.45785,0.02159
1907.52911,0.02154
1905.60036,0.02146
1903.67162,0.02147
1901.74287,0.02157
1899.81413,0.02163
1897.88538,0.02163
1895.95664,0.02163
1894.02789,0.02153
1892.09915,0.02129
1890.17040,0.02107
1888.24166,0.02099
1886.31291,0.02101
1884.38417,0.02107
1882.45542,0.02121
1880.52667,0.02126
1878.59793,0.02109
1876.66918,0.02103
1874.74044,0.02128
1872.81169,0.02155
1870.88295,0.02163
1868.95420,0.02163
1867.02546,0.02169
1865.09671,0.02176
1863.16797,0.02167
1861.23922,0.02144
1859.31048,0.02127
1857.38173,0.02123
1855.45299,0.02124
1853.52424,0.02119
1851.59549,0.02111
1849.66675,0.02108
1847.73800,0.02120
1845.80926,0.02140
1843.88051,0.02146
1841.95177,0.02131
1840.02302,0.02110
1838.09428,0.02102
1836.16553,0.02109
1834.23679,0.02119
1832.30804,0.02119
1830.37930,0.02109
1828.45055,0.02097
1826.52181,0.02095
1824.59306,0.02101
1822.66432,0.02101
1820.73557,0.02088
1818.80682,0.02066
1816.87808,0.02060
1814.94933,0.02076
1813.02059,0.02091
1811.09184,0.02087
1809.16310,0.02073
1807.23435,0.02062
1805.30561,0.02057
1803.37686,0.02062
1801.44812,0.02066
1799.51937,0.02054
1797.59063,0.02032
1795.66188,0.02016
1793.73314,0.02012
1791.80439,0.02015
1789.87565,0.02020
1787.94690,0.02027
1786.01815,0.02023
1784.08941,0.01998
1782.16066,0.01974
1780.23192,0.01975
1778.30317,0.01990
1776.37443,0.01996
1774.44568,0.01988
1772.51694,0.01965
1770.58819,0.01937
1768.65945,0.01915
1766.73070,0.01895
1764.80196,0.01881
1762.87321,0.01879
1760.94447,0.01875
1759.01572,0.01860
1757.08697,0.01836
1755.15823,0.01805
1753.22948,0.01784
1751.30074,0.01782
1749.37199,0.01795
1747.44325,0.01824
1745.51450,0.01849
1743.58576,0.01867
1741.65701,0.01894
1739.72827,0.01926
1737.79952,0.01958
1735.87078,0.01998
1733.94203,0.02037
1732.01329,0.02067
1730.08454,0.02091
1728.15580,0.02105
1726.22705,0.02108
1724.29830,0.02105
1722.36956,0.02107
1720.44081,0.02112
1718.51207,0.02110
1716.58332,0.02105
1714.65458,0.02111
1712.72583,0.02122
1710.79709,0.02124
1708.86834,0.02114
1706.93960,0.02094
1705.01085,0.02077
1703.08211,0.02071
1701.15336,0.02064
1699.22462,0.02034
1697.29587,0.01988
1695.36713,0.01957
1693.43838,0.01969
1691.50963,0.02003
1689.58089,0.02008
1687.65214,0.01975
1685.72340,0.01944
1683.79465,0.01942
1681.86591,0.01959
1679.93716,0.01968
1678.00842,0.01961
1676.07967,0.01951
1674.15093,0.01941
1672.22218,0.01934
1670.29344,0.01935
1668.36469,0.01929
1666.43595,0.01919
1664.50720,0.01922
1662.57845,0.01930
1660.64971,0.01923
1658.72096,0.01911
1656.79222,0.01904
1654.86347,0.01896
1652.93473,0.01885
1651.00598,0.01875
1649.07724,0.01870
1647.14849,0.01874
1645.21975,0.01881
1643.29100,0.01884
1641.36226,0.01883
1639.43351,0.01879
1637.50477,0.01873
1635.57602,0.01873
1633.64728,0.01887
1631.71853,0.01908
1629.78978,0.01924
1627.86104,0.01927
1625.93229,0.01915
1624.00355,0.01916
1622.07480,0.01940
1620.14606,0.01953
1618.21731,0.01946
1616.28857,0.01938
1614.35982,0.01934
1612.43108,0.01937
1610.50233,0.01945
1608.57359,0.01943
1606.64484,0.01921
1604.71610,0.01893
1602.78735,0.01881
1600.85861,0.01891
1598.92986,0.01911
1597.00111,0.01930
1595.07237,0.01938
1593.14362,0.01928
1591.21488,0.01910
1589.28613,0.01890
1587.35739,0.01870
1585.42864,0.01856
1583.49990,0.01863
1581.57115,0.01888
1579.64241,0.01910
1577.71366,0.01907
1575.78492,0.01886
1573.85617,0.01880
1571.92743,0.01882
1569.99868,0.01869
1568.06993,0.01844
1566.14119,0.01829
1564.21244,0.01825
1562.28370,0.01825
1560.35495,0.01830
1558.42621,0.01842
1556.49746,0.01853
1554.56872,0.01853
1552.63997,0.01853
1550.71123,0.01857
1548.78248,0.01863
1546.85374,0.01870
1544.92499,0.01879
1542.99625,0.01888
1541.06750,0.01889
1539.13876,0.01878
1537.21001,0.01866
1535.28126,0.01853
1533.35252,0.01843
1531.42377,0.01853
1529.49503,0.01877
1527.56628,0.01886
1525.63754,0.01885
1523.70879,0.01893
1521.78005,0.01892
1519.85130,0.01876
1517.92256,0.01872
1515.99381,0.01883
1514.06507,0.01896
1512.13632,0.01899
1510.20758,0.01896
1508.27883,0.01904
1506.35008,0.01922
1504.42134,0.01938
1502.49259,0.01946
1500.56385,0.01945
1498.63510,0.01946
1496.70636,0.01944
1494.77761,0.01935
1492.84887,0.01929
1490.92012,0.01931
1488.99138,0.01928
1487.06263,0.01920
1485.13389,0.01909
1483.20514,0.01900
1481.27640,0.01901
1479.34765,0.01894
1477.41891,0.01871
1475.49016,0.01859
1473.56141,0.01859
1471.63267,0.01847
1469.70392,0.01829
1467.77518,0.01830
1465.84643,0.01857
1463.91769,0.01889
1461.98894,0.01903
1460.06020,0.01903
1458.13145,0.01895
1456.20271,0.01889
1454.27396,0.01899
1452.34522,0.01916
1450.41647,0.01913
1448.48773,0.01884
1446.55898,0.01866
1444.63024,0.01883
1442.70149,0.01910
1440.77274,0.01927
1438.84400,0.01934
1436.91525,0.01931
1434.98651,0.01916
1433.05776,0.01899
1431.12902,0.01891
1429.20027,0.01889
1427.27153,0.01896
1425.34278,0.01911
1423.41404,0.01916
1421.48529,0.01914
1419.55655,0.01914
1417.62780,0.01913
1415.69906,0.01908
1413.77031,0.01901
1411.84156,0.01888
1409.91282,0.01882
1407.98407,0.01887
1406.05533,0.01889
1404.12658,0.01885
1402.19784,0.01877
1400.26909,0.01869
1398.34035,0.01873
1396.41160,0.01880
1394.48286,0.01868
1392.55411,0.01847
1390.62537,0.01828
1388.69662,0.01812
1386.76788,0.01807
1384.83913,0.01814
1382.91039,0.01815
1380.98164,0.01807
1379.05289,0.01809
1377.12415,0.01816
1375.19540,0.01811
1373.26666,0.01805
1371.33791,0.01825
1369.40917,0.01860
1367.48042,0.01877
1365.55168,0.01876
1363.62293,0.01866
1361.69419,0.01849
1359.76544,0.01839
1357.83670,0.01846
1355.90795,0.01852
1353.97921,0.01855
1352.05046,0.01864
1350.12172,0.01872
1348.19297,0.01857
1346.26422,0.01821
1344.33548,0.01794
1342.40673,0.01785
1340.47799,0.01782
1338.54924,0.01790
1336.62050,0.01812
1334.69175,0.01839
1332.76301,0.01857
1330.83426,0.01853
1328.90552,0.01835
1326.97677,0.01823
1325.04803,0.01810
1323.11928,0.01780
1321.19054,0.01749
1319.26179,0.01739
1317.33304,0.01743
1315.40430,0.01742
1313.47555,0.01745
1311.54681,0.01767
1309.61806,0.01786
1307.68932,0.01780
1305.76057,0.01763
1303.83183,0.01753
1301.90308,0.01755
1299.97434,0.01774
1298.04559,0.01810
1296.11685,0.01839
1294.18810,0.01848
1292.25936,0.01847
1290.33061,0.01844
1288.40187,0.01847
1286.47312,0.01863
1284.54437,0.01890
1282.61563,0.01917
1280.68688,0.01934
1278.75814,0.01946
1276.82939,0.01965
1274.90065,0.01981
1272.97190,0.01987
1271.04316,0.01998
1269.11441,0.02016
1267.18567,0.02021
1265.25692,0.02005
1263.32818,0.01992
1261.39943,0.02000
1259.47069,0.02023
1257.54194,0.02041
1255.61320,0.02049
1253.68445,0.02049
1251.75570,0.02047
1249.82696,0.02053
1247.89821,0.02064
1245.96947,0.02052
1244.04072,0.02023
1242.11198,0.02013
1240.18323,0.02034
1238.25449,0.02053
1236.32574,0.02044
1234.39700,0.02029
1232.46825,0.02021
1230.53951,0.02006
1228.61076,0.01990
1226.68202,0.01986
1224.75327,0.01978
1222.82452,0.01957
1220.89578,0.01946
1218.96703,0.01954
1217.03829,0.01974
1215.10954,0.01984
1213.18080,0.01964
1211.25205,0.01929
1209.32331,0.01905
1207.39456,0.01889
1205.46582,0.01880
1203.53707,0.01880
1201.60833,0.01879
1199.67958,0.01881
1197.75084,0.01894
1195.82209,0.01907
1193.89335,0.01907
1191.96460,0.01889
1190.03585,0.01858
1188.10711,0.01839
1186.17836,0.01846
1184.24962,0.01859
1182.32087,0.01855
1180.39213,0.01831
1178.46338,0.01809
1176.53464,0.01806
1174.60589,0.01810
1172.67715,0.01806
1170.74840,0.01805
1168.81966,0.01823
1166.89091,0.01844
1164.96217,0.01837
1163.03342,0.01805
1161.10467,0.01776
1159.17593,0.01768
1157.24718,0.01787
1155.31844,0.01811
1153.38969,0.01814
1151.46095,0.01782
1149.53220,0.01746
1147.60346,0.01752
1145.67471,0.01794
1143.74597,0.01842
1141.81722,0.01886
1139.88848,0.01906
1137.95973,0.01904
1136.03099,0.01895
1134.10224,0.01883
1132.17350,0.01874
1130.24475,0.01865
1128.31600,0.01851
1126.38726,0.01852
1124.45851,0.01869
1122.52977,0.01879
1120.60102,0.01881
1118.67228,0.01891
1116.74353,0.01908
1114.81479,0.01926
1112.88604,0.01929
1110.95730,0.01920
1109.02855,0.01914
1107.09981,0.01917
1105.17106,0.01913
1103.24232,0.01891
1101.31357,0.01874
1099.38483,0.01871
1097.45608,0.01874
1095.52733,0.01883
1093.59859,0.01884
1091.66984,0.01876
1089.74110,0.01869
1087.81235,0.01867
1085.88361,0.01881
1083.95486,0.01916
1082.02612,0.01951
1080.09737,0.01966
1078.16863,0.01960
1076.23988,0.01963
1074.31114,0.01993
1072.38239,0.02029
1070.45365,0.02046
1068.52490,0.02048
1066.59615,0.02040
1064.66741,0.02034
1062.73866,0.02028
1060.80992,0.02008
1058.88117,0.01983
1056.95243,0.01969
1055.02368,0.01968
1053.09494,0.01978
1051.16619,0.01991
1049.23745,0.02001
1047.30870,0.02009
1045.37996,0.02021
1043.45121,0.02025
1041.52247,0.02014
1039.59372,0.02012
1037.66498,0.02032
1035.73623,0.02048
1033.80748,0.02035
1031.87874,0.01992
1029.94999,0.01937
1028.02125,0.01910
1026.09250,0.01934
1024.16376,0.01969
1022.23501,0.01977
1020.30627,0.01974
1018.37752,0.01974
1016.44878,0.01972
1014.52003,0.01983
1012.59129,0.02005
1010.66254,0.02025
1008.73380,0.02057
1006.80505,0.02099
1004.87631,0.02126
1002.94756,0.02146
1001.01881,0.02176
999.09007,0.02195
997.16132,0.02191
995.23258,0.02192
993.30383,0.02221
991.37509,0.02253
989.44634,0.02230
987.51760,0.02169
985.58885,0.02151
983.66011,0.02160
981.73136,0.02135
979.80262,0.02117
977.87387,0.02132
975.94513,0.02126
974.01638,0.02086
972.08763,0.02056
970.15889,0.02064
968.23014,0.02099
966.30140,0.02111
964.37265,0.02072
962.44391,0.02023
960.51516,0.02006
958.58642,0.02020
956.65767,0.02052
954.72893,0.02077
952.80018,0.02068
950.87144,0.02039
948.94269,0.02025
947.01395,0.02026
945.08520,0.02012
943.15646,0.01993
941.22771,0.02005
939.29896,0.02023
937.37022,0.02013
935.44147,0.01993
933.51273,0.01993
931.58398,0.02001
929.65524,0.01982
927.72649,0.01948
925.79775,0.01928
923.86900,0.01925
921.94026,0.01932
920.01151,0.01943
918.08277,0.01956
916.15402,0.01966
914.22528,0.01966
912.29653,0.01975
910.36779,0.01995
908.43904,0.02001
906.51029,0.01993
904.58155,0.01977
902.65280,0.01951
900.72406,0.01928
898.79531,0.01908
896.86657,0.01886
894.93782,0.01885
893.00908,0.01891
891.08033,0.01878
889.15159,0.01858
887.22284,0.01847
885.29410,0.01862
883.36535,0.01898
881.43661,0.01929
879.50786,0.01937
877.57911,0.01921
875.65037,0.01903
873.72162,0.01894
871.79288,0.01887
869.86413,0.01884
867.93539,0.01907
866.00664,0.01958
864.07790,0.01997
862.14915,0.02001
860.22041,0.01974
858.29166,0.01926
856.36292,0.01892
854.43417,0.01889
852.50543,0.01906
850.57668,0.01923
848.64794,0.01909
846.71919,0.01883
844.79044,0.01886
842.86170,0.01909
840.93295,0.01928
839.00421,0.01915
837.07546,0.01877
835.14672,0.01875
833.21797,0.01917
831.28923,0.01937
829.36048,0.01923
827.43174,0.01911
825.50299,0.01915
823.57425,0.01929
821.64550,0.01943
819.71676,0.01930
817.78801,0.01892
815.85926,0.01892
813.93052,0.01934
812.00177,0.01936
810.07303,0.01885
808.14428,0.01842
806.21554,0.01843
804.28679,0.01871
802.35805,0.01888
800.42930,0.01890
798.50056,0.01916
796.57181,0.01941
794.64307,0.01925
792.71432,0.01919
790.78558,0.01935
788.85683,0.01923
786.92809,0.01904
784.99934,0.01906
783.07059,0.01911
781.14185,0.01926
779.21310,0.01941
777.28436,0.01926
775.35561,0.01882
773.42687,0.01835
771.49812,0.01808
769.56938,0.01810
767.64063,0.01826
765.71189,0.01838
763.78314,0.01847
761.85440,0.01861
759.92565,0.01880
757.99691,0.01874
756.06816,0.01839
754.13942,0.01780
752.21067,0.01706
750.28192,0.01701
748.35318,0.01770
746.42443,0.01815
744.49569,0.01862
742.56694,0.01938
740.63820,0.01956
738.70945,0.01917
736.78071,0.01893
734.85196,0.01890
732.92322,0.01881
730.99447,0.01860
729.06573,0.01837
727.13698,0.01827
725.20824,0.01833
723.27949,0.01845
721.35074,0.01850
719.42200,0.01863
717.49325,0.01890
715.56451,0.01896
713.63576,0.01874
711.70702,0.01846
709.77827,0.01805
707.84953,0.01762
705.92078,0.01769
703.99204,0.01812
702.06329,0.01863
700.13455,0.01924
698.20580,0.01942
696.27706,0.01872
694.34831,0.01767
692.41957,0.01708
690.49082,0.01739
688.56207,0.01816
686.63333,0.01857
684.70458,0.01827
682.77584,0.01767
680.84709,0.01734
678.91835,0.01728
676.98960,0.01735
675.06086,0.01751
673.13211,0.01746
671.20337,0.01752
669.27462,0.01819
667.34588,0.01893
665.41713,0.01896
663.48839,0.01832
661.55964,0.01791
659.63090,0.01822
657.70215,0.01832
655.77340,0.01781
653.84466,0.01702
651.91591,0.01599
649.98717,0.01544
648.05842,0.01599
646.12968,0.01670
644.20093,0.01655
642.27219,0.01582
640.34344,0.01554
638.41470,0.01644
636.48595,0.01793
634.55721,0.01842
632.62846,0.01790
630.69972,0.01733
628.77097,0.01634
626.84222,0.01520
624.91348,0.01546
622.98473,0.01672
621.05599,0.01700
619.12724,0.01624
617.19850,0.01580
615.26975,0.01597
613.34101,0.01625
611.41226,0.01666
609.48352,0.01708
607.55477,0.01642
605.62603,0.01505
603.69728,0.01462
601.76854,0.01501
599.83979,0.01484
