7497.03301,0.88091
7495.10426,0.87818
7493.17552,0.87647
7491.24677,0.88013
7489.31803,0.88551
7487.38928,0.88623
7485.46054,0.88299
7483.53179,0.87918
7481.60305,0.87726
7479.67430,0.87985
7477.74556,0.88516
7475.81681,0.88718
7473.88807,0.88575
7471.95932,0.88634
7470.03057,0.88719
7468.10183,0.88361
7466.17308,0.88049
7464.24434,0.88174
7462.31559,0.88235
7460.38685,0.87818
7458.45810,0.87096
7456.52936,0.86570
7454.60061,0.86527
7452.67187,0.86714
7450.74312,0.86828
7448.81438,0.86946
7446.88563,0.87204
7444.95689,0.87380
7443.02814,0.87278
7441.09940,0.87252
7439.17065,0.87545
7437.24190,0.87610
7435.31316,0.86984
7433.38441,0.86351
7431.45567,0.86428
7429.52692,0.86743
7427.59818,0.86780
7425.66943,0.86638
7423.74069,0.86312
7421.81194,0.85833
7419.88320,0.85660
7417.95445,0.86009
7416.02571,0.86515
7414.09696,0.86928
7412.16822,0.86976
7410.23947,0.86575
7408.31073,0.86216
7406.38198,0.86032
7404.45323,0.85859
7402.52449,0.85526
7400.59574,0.85011
7398.66700,0.84845
7396.73825,0.85230
7394.80951,0.85801
7392.88076,0.86175
7390.95202,0.85979
7389.02327,0.85229
7387.09453,0.84494
7385.16578,0.84340
7383.23704,0.84581
7381.30829,0.84695
7379.37955,0.84687
7377.45080,0.84543
7375.52205,0.84275
7373.59331,0.84422
7371.66456,0.84999
7369.73582,0.85207
7367.80707,0.84633
7365.87833,0.83904
7363.94958,0.83953
7362.02084,0.84439
7360.09209,0.84261
7358.16335,0.83664
7356.23460,0.83653
7354.30586,0.84364
7352.37711,0.85086
7350.44837,0.85178
7348.51962,0.84809
7346.59088,0.84316
7344.66213,0.83609
7342.73338,0.82798
7340.80464,0.82426
7338.87589,0.82849
7336.94715,0.83574
7335.01840,0.83853
7333.08966,0.83735
7331.16091,0.83635
7329.23217,0.83556
7327.30342,0.83397
7325.37468,0.83390
7323.44593,0.83648
7321.51719,0.83853
7319.58844,0.83827
7317.65970,0.83586
7315.73095,0.83192
7313.80221,0.83049
7311.87346,0.83304
7309.94471,0.83394
7308.01597,0.83210
7306.08722,0.83278
7304.15848,0.83475
7302.22973,0.83452
7300.30099,0.83395
7298.37224,0.83342
7296.44350,0.83144
7294.51475,0.82768
7292.58601,0.82278
7290.65726,0.82073
7288.72852,0.82304
7286.79977,0.82433
7284.87103,0.82229
7282.94228,0.82178
7281.01353,0.82492
7279.08479,0.82832
7277.15604,0.82881
7275.22730,0.82720
7273.29855,0.82727
7271.36981,0.83004
7269.44106,0.83224
7267.51232,0.83117
7265.58357,0.82846
7263.65483,0.82737
7261.72608,0.82845
7259.79734,0.82997
7257.86859,0.82922
7255.93985,0.82737
7254.01110,0.82819
7252.08236,0.82913
7250.15361,0.82666
7248.22486,0.82376
7246.29612,0.82401
7244.36737,0.82663
7242.43863,0.82964
7240.50988,0.83189
7238.58114,0.83180
7236.65239,0.82957
7234.72365,0.82687
7232.79490,0.82550
7230.86616,0.82736
7228.93741,0.82972
7227.00867,0.82908
7225.07992,0.82795
7223.15118,0.82819
7221.22243,0.82693
7219.29369,0.82279
7217.36494,0.82014
7215.43619,0.82345
7213.50745,0.82754
7211.57870,0.82511
7209.64996,0.82123
7207.72121,0.82171
7205.79247,0.82228
7203.86372,0.81932
7201.93498,0.81550
7200.00623,0.81550
7198.07749,0.81776
7196.14874,0.81559
7194.22000,0.81033
7192.29125,0.80903
7190.36251,0.81435
7188.43376,0.82254
7186.50501,0.82571
7184.57627,0.82104
7182.64752,0.81344
7180.71878,0.80880
7178.79003,0.81000
7176.86129,0.81468
7174.93254,0.81708
7173.00380,0.81582
7171.07505,0.81462
7169.14631,0.81487
7167.21756,0.81555
7165.28882,0.81487
7163.36007,0.81135
7161.43133,0.80766
7159.50258,0.80566
7157.57384,0.80387
7155.64509,0.80209
7153.71634,0.80001
7151.78760,0.79686
7149.85885,0.79402
7147.93011,0.79363
7146.00136,0.79521
7144.07262,0.79641
7142.14387,0.79702
7140.21513,0.79774
7138.28638,0.79774
7136.35764,0.79651
7134.42889,0.79493
7132.50015,0.79446
7130.57140,0.79630
7128.64266,0.79947
7126.71391,0.80073
7124.78516,0.79832
7122.85642,0.79337
7120.92767,0.78910
7118.99893,0.78713
7117.07018,0.78421
7115.14144,0.77999
7113.21269,0.77902
7111.28395,0.77993
7109.35520,0.77950
7107.42646,0.77997
7105.49771,0.78097
7103.56897,0.77856
7101.64022,0.77287
7099.71148,0.76667
7097.78273,0.76078
7095.85399,0.75823
7093.92524,0.76282
7091.99649,0.76884
7090.06775,0.77159
7088.13900,0.77398
7086.21026,0.77409
7084.28151,0.77020
7082.35277,0.76487
7080.42402,0.75926
7078.49528,0.75458
7076.56653,0.75269
7074.63779,0.75427
7072.70904,0.75565
7070.78030,0.75359
7068.85155,0.75049
7066.92281,0.74644
7064.99406,0.74017
7063.06532,0.73576
7061.13657,0.73647
7059.20782,0.73884
7057.27908,0.73914
7055.35033,0.73837
7053.42159,0.73773
7051.49284,0.73737
7049.56410,0.73688
7047.63535,0.73596
7045.70661,0.73616
7043.77786,0.73665
7041.84912,0.73506
7039.92037,0.73289
7037.99163,0.73081
7036.06288,0.72655
7034.13414,0.72186
7032.20539,0.72056
7030.27664,0.72164
7028.34790,0.72167
7026.41915,0.71929
7024.49041,0.71627
7022.56166,0.71483
7020.63292,0.71432
7018.70417,0.71367
7016.77543,0.71316
7014.84668,0.71299
7012.91794,0.71148
7010.98919,0.70818
7009.06045,0.70683
7007.13170,0.70714
7005.20296,0.70631
7003.27421,0.70684
7001.34547,0.70759
6999.41672,0.70388
6997.48797,0.69868
6995.55923,0.69687
6993.63048,0.69831
6991.70174,0.70130
6989.77299,0.70306
6987.84425,0.70221
6985.91550,0.70186
6983.98676,0.70292
6982.05801,0.70330
6980.12927,0.70245
6978.20052,0.70033
6976.27178,0.69854
6974.34303,0.69735
6972.41429,0.69287
6970.48554,0.68636
6968.55680,0.68392
6966.62805,0.68573
6964.69930,0.68836
6962.77056,0.68999
6960.84181,0.68939
6958.91307,0.68720
6956.98432,0.68604
6955.05558,0.68732
6953.12683,0.69014
6951.19809,0.69224
6949.26934,0.69283
6947.34060,0.69292
6945.41185,0.69169
6943.48311,0.68949
6941.55436,0.69002
6939.62562,0.69268
6937.69687,0.69341
6935.76812,0.69223
6933.83938,0.69061
6931.91063,0.68916
6929.98189,0.68858
6928.05314,0.68810
6926.12440,0.68783
6924.19565,0.68827
6922.26691,0.68740
6920.33816,0.68582
6918.40942,0.68646
6916.48067,0.68834
6914.55193,0.68905
6912.62318,0.68846
6910.69444,0.68673
6908.76569,0.68459
6906.83695,0.68463
6904.90820,0.68728
6902.97945,0.69021
6901.05071,0.69195
6899.12196,0.69154
6897.19322,0.68994
6895.26447,0.68945
6893.33573,0.68889
6891.40698,0.68594
6889.47824,0.68290
6887.54949,0.68277
6885.62075,0.68370
6883.69200,0.68345
6881.76326,0.68285
6879.83451,0.68357
6877.90577,0.68494
6875.97702,0.68511
6874.04828,0.68593
6872.11953,0.68859
6870.19078,0.68985
6868.26204,0.68788
6866.33329,0.68569
6864.40455,0.68593
6862.47580,0.68666
6860.54706,0.68705
6858.61831,0.68788
6856.68957,0.68693
6854.76082,0.68457
6852.83208,0.68414
6850.90333,0.68540
6848.97459,0.68621
6847.04584,0.68589
6845.11710,0.68584
6843.18835,0.68703
6841.25960,0.68716
6839.33086,0.68596
6837.40211,0.68491
6835.47337,0.68312
6833.54462,0.68162
6831.61588,0.68224
6829.68713,0.68384
6827.75839,0.68601
6825.82964,0.68872
6823.90090,0.68894
6821.97215,0.68653
6820.04341,0.68512
6818.11466,0.68411
6816.18592,0.68251
6814.25717,0.68196
6812.32843,0.68230
6810.39968,0.68323
6808.47093,0.68445
6806.54219,0.68471
6804.61344,0.68394
6802.68470,0.68375
6800.75595,0.68497
6798.82721,0.68625
6796.89846,0.68677
6794.96972,0.68769
6793.04097,0.68889
6791.11223,0.68771
6789.18348,0.68511
6787.25474,0.68460
6785.32599,0.68543
6783.39725,0.68570
6781.46850,0.68545
6779.53975,0.68560
6777.61101,0.68670
6775.68226,0.68793
6773.75352,0.68913
6771.82477,0.69087
6769.89603,0.69131
6767.96728,0.68879
6766.03854,0.68680
6764.10979,0.68850
6762.18105,0.69142
6760.25230,0.69240
6758.32356,0.69031
6756.39481,0.68581
6754.46607,0.68223
6752.53732,0.68271
6750.60858,0.68528
6748.67983,0.68577
6746.75108,0.68469
6744.82234,0.68648
6742.89359,0.69161
6740.96485,0.69418
6739.03610,0.69185
6737.10736,0.68966
6735.17861,0.69019
6733.24987,0.69090
6731.32112,0.68937
6729.39238,0.68682
6727.46363,0.68680
6725.53489,0.68925
6723.60614,0.69100
6721.67740,0.69070
6719.74865,0.68943
6717.81991,0.68928
6715.89116,0.69075
6713.96241,0.69298
6712.03367,0.69490
6710.10492,0.69462
6708.17618,0.69263
6706.24743,0.69082
6704.31869,0.68960
6702.38994,0.69071
6700.46120,0.69376
6698.53245,0.69389
6696.60371,0.69043
6694.67496,0.68810
6692.74622,0.68844
6690.81747,0.69052
6688.88873,0.69458
6686.95998,0.69819
6685.03123,0.69820
6683.10249,0.69593
6681.17374,0.69466
6679.24500,0.69518
6677.31625,0.69605
6675.38751,0.69562
6673.45876,0.69423
6671.53002,0.69433
6669.60127,0.69524
6667.67253,0.69462
6665.74378,0.69465
6663.81504,0.69669
6661.88629,0.69849
6659.95755,0.69835
6658.02880,0.69573
6656.10006,0.69263
6654.17131,0.69260
6652.24256,0.69585
6650.31382,0.69911
6648.38507,0.69969
6646.45633,0.69824
6644.52758,0.69796
6642.59884,0.69971
6640.67009,0.70032
6638.74135,0.69878
6636.81260,0.69839
6634.88386,0.69980
6632.95511,0.70022
6631.02637,0.69903
6629.09762,0.69796
6627.16888,0.69899
6625.24013,0.70228
6623.31139,0.70522
6621.38264,0.70675
6619.45389,0.70758
6617.52515,0.70704
6615.59640,0.70572
6613.66766,0.70535
6611.73891,0.70547
6609.81017,0.70609
6607.88142,0.70820
6605.95268,0.71009
6604.02393,0.71044
6602.09519,0.71006
6600.16644,0.70821
6598.23770,0.70529
6596.30895,0.70514
6594.38021,0.70869
6592.45146,0.71176
6590.52271,0.71268
6588.59397,0.71399
6586.66522,0.71506
6584.73648,0.71258
6582.80773,0.70796
6580.87899,0.70533
6578.95024,0.70579
6577.02150,0.70725
6575.09275,0.70768
6573.16401,0.70729
6571.23526,0.70648
6569.30652,0.70562
6567.37777,0.70570
6565.44903,0.70664
6563.52028,0.70823
6561.59154,0.70984
6559.66279,0.71041
6557.73404,0.71075
6555.80530,0.71166
6553.87655,0.71207
6551.94781,0.71106
6550.01906,0.70928
6548.09032,0.70770
6546.16157,0.70758
6544.23283,0.70961
6542.30408,0.71156
6540.37534,0.71140
6538.44659,0.70978
6536.51785,0.70884
6534.58910,0.71067
6532.66036,0.71348
6530.73161,0.71339
6528.80287,0.71114
6526.87412,0.70987
6524.94537,0.70979
6523.01663,0.70933
6521.08788,0.70828
6519.15914,0.70833
6517.23039,0.71044
6515.30165,0.71293
6513.37290,0.71468
6511.44416,0.71655
6509.51541,0.71749
6507.58667,0.71593
6505.65792,0.71366
6503.72918,0.71249
6501.80043,0.71229
6499.87169,0.71275
6497.94294,0.71336
6496.01419,0.71332
6494.08545,0.71229
6492.15670,0.71121
6490.22796,0.71137
6488.29921,0.71212
6486.37047,0.71254
6484.44172,0.71305
6482.51298,0.71406
6480.58423,0.71562
6478.65549,0.71700
6476.72674,0.71717
6474.79800,0.71674
6472.86925,0.71670
6470.94051,0.71673
6469.01176,0.71701
6467.08302,0.71696
6465.15427,0.71595
6463.22552,0.71580
6461.29678,0.71636
6459.36803,0.71627
6457.43929,0.71649
6455.51054,0.71742
6453.58180,0.71862
6451.65305,0.71858
6449.72431,0.71624
6447.79556,0.71476
6445.86682,0.71610
6443.93807,0.71778
6442.00933,0.71817
6440.08058,0.71754
6438.15184,0.71634
6436.22309,0.71557
6434.29434,0.71674
6432.36560,0.72007
6430.43685,0.72359
6428.50811,0.72529
6426.57936,0.72525
6424.65062,0.72380
6422.72187,0.72127
6420.79313,0.71968
6418.86438,0.71981
6416.93564,0.71951
6415.00689,0.71886
6413.07815,0.71973
6411.14940,0.72093
6409.22066,0.72187
6407.29191,0.72385
6405.36317,0.72517
6403.43442,0.72383
6401.50567,0.72168
6399.57693,0.72079
6397.64818,0.72062
6395.71944,0.72080
6393.79069,0.72184
6391.86195,0.72299
6389.93320,0.72323
6388.00446,0.72313
6386.07571,0.72347
6384.14697,0.72373
6382.21822,0.72387
6380.28948,0.72395
6378.36073,0.72229
6376.43199,0.71940
6374.50324,0.71820
6372.57450,0.71877
6370.64575,0.71981
6368.71700,0.72123
6366.78826,0.72271
6364.85951,0.72415
6362.93077,0.72563
6361.00202,0.72626
6359.07328,0.72594
6357.14453,0.72585
6355.21579,0.72637
6353.28704,0.72729
6351.35830,0.72828
6349.42955,0.72831
6347.50081,0.72672
6345.57206,0.72485
6343.64332,0.72503
6341.71457,0.72740
6339.78582,0.72895
6337.85708,0.72753
6335.92833,0.72473
6333.99959,0.72276
6332.07084,0.72230
6330.14210,0.72321
6328.21335,0.72442
6326.28461,0.72517
6324.35586,0.72578
6322.42712,0.72619
6320.49837,0.72638
6318.56963,0.72657
6316.64088,0.72634
6314.71214,0.72575
6312.78339,0.72588
6310.85465,0.72690
6308.92590,0.72737
6306.99715,0.72706
6305.06841,0.72735
6303.13966,0.72771
6301.21092,0.72716
6299.28217,0.72625
6297.35343,0.72562
6295.42468,0.72650
6293.49594,0.72851
6291.56719,0.72963
6289.63845,0.73011
6287.70970,0.73081
6285.78096,0.73111
6283.85221,0.73082
6281.92347,0.73082
6279.99472,0.73154
6278.06598,0.73238
6276.13723,0.73254
6274.20848,0.73244
6272.27974,0.73300
6270.35099,0.73310
6268.42225,0.73224
6266.49350,0.73218
6264.56476,0.73289
6262.63601,0.73336
6260.70727,0.73463
6258.77852,0.73678
6256.84978,0.73757
6254.92103,0.73675
6252.99229,0.73658
6251.06354,0.73741
6249.13480,0.73825
6247.20605,0.73959
6245.27730,0.74165
6243.34856,0.74257
6241.41981,0.74125
6239.49107,0.73977
6237.56232,0.73987
6235.63358,0.74043
6233.70483,0.74060
6231.77609,0.74164
6229.84734,0.74369
6227.91860,0.74479
6225.98985,0.74476
6224.06111,0.74572
6222.13236,0.74739
6220.20362,0.74664
6218.27487,0.74403
6216.34613,0.74307
6214.41738,0.74396
6212.48863,0.74598
6210.55989,0.74843
6208.63114,0.74851
6206.70240,0.74709
6204.77365,0.74849
6202.84491,0.75190
6200.91616,0.75287
6198.98742,0.75129
6197.05867,0.75084
6195.12993,0.75193
6193.20118,0.75200
6191.27244,0.75173
6189.34369,0.75253
6187.41495,0.75292
6185.48620,0.75249
6183.55746,0.75154
6181.62871,0.75009
6179.69996,0.75016
6177.77122,0.75216
6175.84247,0.75325
6173.91373,0.75386
6171.98498,0.75664
6170.05624,0.75903
6168.12749,0.75845
6166.19875,0.75749
6164.27000,0.75816
6162.34126,0.76039
6160.41251,0.76234
6158.48377,0.76157
6156.55502,0.75990
6154.62628,0.76005
6152.69753,0.76071
6150.76878,0.76098
6148.84004,0.76191
6146.91129,0.76232
6144.98255,0.76187
6143.05380,0.76257
6141.12506,0.76376
6139.19631,0.76363
6137.26757,0.76218
6135.33882,0.75989
6133.41008,0.75804
6131.48133,0.75866
6129.55259,0.76143
6127.62384,0.76312
6125.69510,0.76297
6123.76635,0.76309
6121.83761,0.76356
6119.90886,0.76386
6117.98011,0.76485
6116.05137,0.76569
6114.12262,0.76574
6112.19388,0.76604
6110.26513,0.76559
6108.33639,0.76427
6106.40764,0.76425
6104.47890,0.76511
6102.55015,0.76604
6100.62141,0.76725
6098.69266,0.76743
6096.76392,0.76724
6094.83517,0.76847
6092.90643,0.76932
6090.97768,0.76828
6089.04893,0.76780
6087.12019,0.76989
6085.19144,0.77259
6083.26270,0.77336
6081.33395,0.77212
6079.40521,0.76995
6077.47646,0.76817
6075.54772,0.76788
6073.61897,0.76888
6071.69023,0.76967
6069.76148,0.76902
6067.83274,0.76718
6065.90399,0.76540
6063.97525,0.76466
6062.04650,0.76394
6060.11776,0.76281
6058.18901,0.76340
6056.26026,0.76508
6054.33152,0.76474
6052.40277,0.76326
6050.47403,0.76322
6048.54528,0.76436
6046.61654,0.76554
6044.68779,0.76588
6042.75905,0.76472
6040.83030,0.76284
6038.90156,0.76086
6036.97281,0.75878
6035.04407,0.75815
6033.11532,0.75973
6031.18658,0.76133
6029.25783,0.76092
6027.32909,0.75919
6025.40034,0.75817
6023.47159,0.75839
6021.54285,0.75867
6019.61410,0.75822
6017.68536,0.75712
6015.75661,0.75611
6013.82787,0.75566
6011.89912,0.75451
6009.97038,0.75200
6008.04163,0.74976
6006.11289,0.74869
6004.18414,0.74839
6002.25540,0.74872
6000.32665,0.74919
5998.39791,0.74911
5996.46916,0.74874
5994.54041,0.74829
5992.61167,0.74750
5990.68292,0.74688
5988.75418,0.74682
5986.82543,0.74694
5984.89669,0.74679
5982.96794,0.74553
5981.03920,0.74381
5979.11045,0.74360
5977.18171,0.74455
5975.25296,0.74532
5973.32422,0.74568
5971.39547,0.74533
5969.46673,0.74462
5967.53798,0.74461
5965.60924,0.74518
5963.68049,0.74544
5961.75174,0.74523
5959.82300,0.74468
5957.89425,0.74377
5955.96551,0.74279
5954.03676,0.74186
5952.10802,0.74143
5950.17927,0.74198
5948.25053,0.74299
5946.32178,0.74383
5944.39304,0.74436
5942.46429,0.74474
5940.53555,0.74486
5938.60680,0.74459
5936.67806,0.74472
5934.74931,0.74525
5932.82057,0.74522
5930.89182,0.74411
5928.96307,0.74244
5927.03433,0.74201
5925.10558,0.74328
5923.17684,0.74410
5921.24809,0.74357
5919.31935,0.74298
5917.39060,0.74303
5915.46186,0.74306
5913.53311,0.74241
5911.60437,0.74098
5909.67562,0.73912
5907.74688,0.73792
5905.81813,0.73821
5903.88939,0.73914
5901.96064,0.73944
5900.03189,0.73871
5898.10315,0.73766
5896.17440,0.73720
5894.24566,0.73705
5892.31691,0.73668
5890.38817,0.73656
5888.45942,0.73716
5886.53068,0.73728
5884.60193,0.73569
5882.67319,0.73391
5880.74444,0.73409
5878.81570,0.73596
5876.88695,0.73768
5874.95821,0.73816
5873.02946,0.73818
5871.10072,0.73875
5869.17197,0.73921
5867.24322,0.73892
5865.31448,0.73821
5863.38573,0.73737
5861.45699,0.73696
5859.52824,0.73750
5857.59950,0.73798
5855.67075,0.73734
5853.74201,0.73692
5851.81326,0.73814
5849.88452,0.73942
5847.95577,0.73869
5846.02703,0.73668
5844.09828,0.73598
5842.16954,0.73726
5840.24079,0.73839
5838.31205,0.73798
5836.38330,0.73644
5834.45455,0.73508
5832.52581,0.73487
5830.59706,0.73561
5828.66832,0.73668
5826.73957,0.73726
5824.81083,0.73678
5822.88208,0.73599
5820.95334,0.73581
5819.02459,0.73561
5817.09585,0.73477
5815.16710,0.73425
5813.23836,0.73475
5811.30961,0.73529
5809.38087,0.73479
5807.45212,0.73391
5805.52337,0.73350
5803.59463,0.73322
5801.66588,0.73368
5799.73714,0.73534
5797.80839,0.73611
5795.87965,0.73516
5793.95090,0.73454
5792.02216,0.73437
5790.09341,0.73328
5788.16467,0.73216
5786.23592,0.73222
5784.30718,0.73315
5782.37843,0.73410
5780.44969,0.73422
5778.52094,0.73393
5776.59220,0.73395
5774.66345,0.73377
5772.73470,0.73349
5770.80596,0.73415
5768.87721,0.73577
5766.94847,0.73742
5765.01972,0.73838
5763.09098,0.73871
5761.16223,0.73878
5759.23349,0.73833
5757.30474,0.73730
5755.37600,0.73655
5753.44725,0.73609
5751.51851,0.73568
5749.58976,0.73604
5747.66102,0.73702
5745.73227,0.73748
5743.80352,0.73679
5741.87478,0.73559
5739.94603,0.73542
5738.01729,0.73637
5736.08854,0.73695
5734.15980,0.73654
5732.23105,0.73607
5730.30231,0.73673
5728.37356,0.73833
5726.44482,0.73999
5724.51607,0.74094
5722.58733,0.74051
5720.65858,0.73937
5718.72984,0.73864
5716.80109,0.73851
5714.87235,0.73851
5712.94360,0.73835
5711.01485,0.73787
5709.08611,0.73718
5707.15736,0.73700
5705.22862,0.73776
5703.29987,0.73886
5701.37113,0.73978
5699.44238,0.74028
5697.51364,0.73988
5695.58489,0.73880
5693.65615,0.73779
5691.72740,0.73679
5689.79866,0.73575
5687.86991,0.73542
5685.94117,0.73590
5684.01242,0.73658
5682.08368,0.73722
5680.15493,0.73754
5678.22618,0.73742
5676.29744,0.73701
5674.36869,0.73631
5672.43995,0.73607
5670.51120,0.73663
5668.58246,0.73695
5666.65371,0.73670
5664.72497,0.73656
5662.79622,0.73684
5660.86748,0.73753
5658.93873,0.73813
5657.00999,0.73779
5655.08124,0.73706
5653.15250,0.73707
5651.22375,0.73789
5649.29500,0.73874
5647.36626,0.73840
5645.43751,0.73719
5643.50877,0.73688
5641.58002,0.73740
5639.65128,0.73723
5637.72253,0.73656
5635.79379,0.73693
5633.86504,0.73797
5631.93630,0.73807
5630.00755,0.73709
5628.07881,0.73601
5626.15006,0.73570
5624.22132,0.73613
5622.29257,0.73662
5620.36383,0.73685
5618.43508,0.73691
5616.50633,0.73672
5614.57759,0.73687
5612.64884,0.73779
5610.72010,0.73852
5608.79135,0.73836
5606.86261,0.73780
5604.93386,0.73800
5603.00512,0.73908
5601.07637,0.73983
5599.14763,0.73970
5597.21888,0.73872
5595.29014,0.73753
5593.36139,0.73714
5591.43265,0.73744
5589.50390,0.73775
5587.57516,0.73777
5585.64641,0.73759
5583.71766,0.73734
5581.78892,0.73744
5579.86017,0.73833
5577.93143,0.73918
5576.00268,0.73916
5574.07394,0.73914
5572.14519,0.73977
5570.21645,0.73999
5568.28770,0.73964
5566.35896,0.74026
5564.43021,0.74196
5562.50147,0.74296
5560.57272,0.74291
5558.64398,0.74280
5556.71523,0.74262
5554.78648,0.74223
5552.85774,0.74213
5550.92899,0.74217
5549.00025,0.74189
5547.07150,0.74163
5545.14276,0.74214
5543.21401,0.74283
5541.28527,0.74285
5539.35652,0.74256
5537.42778,0.74265
5535.49903,0.74334
5533.57029,0.74377
5531.64154,0.74315
5529.71280,0.74211
5527.78405,0.74161
5525.85531,0.74228
5523.92656,0.74372
5521.99781,0.74484
5520.06907,0.74538
5518.14032,0.74585
5516.21158,0.74623
5514.28283,0.74547
5512.35409,0.74386
5510.42534,0.74342
5508.49660,0.74439
5506.56785,0.74527
5504.63911,0.74539
5502.71036,0.74526
5500.78162,0.74579
5498.85287,0.74681
5496.92413,0.74713
5494.99538,0.74677
5493.06664,0.74689
5491.13789,0.74799
5489.20914,0.74908
5487.28040,0.74872
5485.35165,0.74699
5483.42291,0.74564
5481.49416,0.74560
5479.56542,0.74584
5477.63667,0.74586
5475.70793,0.74655
5473.77918,0.74795
5471.85044,0.74881
5469.92169,0.74867
5467.99295,0.74811
5466.06420,0.74757
5464.13546,0.74730
5462.20671,0.74732
5460.27796,0.74738
5458.34922,0.74768
5456.42047,0.74838
5454.49173,0.74888
5452.56298,0.74903
5450.63424,0.74954
5448.70549,0.75041
5446.77675,0.75069
5444.84800,0.75016
5442.91926,0.74994
5440.99051,0.75096
5439.06177,0.75235
5437.13302,0.75283
5435.20428,0.75226
5433.27553,0.75158
5431.34679,0.75177
5429.41804,0.75278
5427.48929,0.75396
5425.56055,0.75452
5423.63180,0.75453
5421.70306,0.75503
5419.77431,0.75604
5417.84557,0.75660
5415.91682,0.75655
5413.98808,0.75625
5412.05933,0.75559
5410.13059,0.75453
5408.20184,0.75395
5406.27310,0.75451
5404.34435,0.75543
5402.41561,0.75551
5400.48686,0.75521
5398.55811,0.75568
5396.62937,0.75643
5394.70062,0.75666
5392.77188,0.75648
5390.84313,0.75617
5388.91439,0.75629
5386.98564,0.75692
5385.05690,0.75707
5383.12815,0.75665
5381.19941,0.75646
5379.27066,0.75689
5377.34192,0.75759
5375.41317,0.75757
5373.48443,0.75696
5371.55568,0.75702
5369.62694,0.75742
5367.69819,0.75727
5365.76944,0.75677
5363.84070,0.75656
5361.91195,0.75677
5359.98321,0.75685
5358.05446,0.75668
5356.12572,0.75653
5354.19697,0.75644
5352.26823,0.75636
5350.33948,0.75610
5348.41074,0.75565
5346.48199,0.75538
5344.55325,0.75552
5342.62450,0.75552
5340.69576,0.75486
5338.76701,0.75392
5336.83827,0.75338
5334.90952,0.75312
5332.98077,0.75220
5331.05203,0.75076
5329.12328,0.74987
5327.19454,0.74900
5325.26579,0.74729
5323.33705,0.74543
5321.40830,0.74403
5319.47956,0.74295
5317.55081,0.74194
5315.62207,0.74061
5313.69332,0.73927
5311.76458,0.73862
5309.83583,0.73774
5307.90709,0.73564
5305.97834,0.73303
5304.04959,0.73068
5302.12085,0.72898
5300.19210,0.72755
5298.26336,0.72540
5296.33461,0.72277
5294.40587,0.72021
5292.47712,0.71756
5290.54838,0.71473
5288.61963,0.71185
5286.69089,0.70895
5284.76214,0.70617
5282.83340,0.70362
5280.90465,0.70085
5278.97591,0.69773
5277.04716,0.69483
5275.11842,0.69206
5273.18967,0.68863
5271.26092,0.68425
5269.33218,0.67967
5267.40343,0.67595
5265.47469,0.67308
5263.54594,0.67005
5261.61720,0.66648
5259.68845,0.66282
5257.75971,0.65958
5255.83096,0.65710
5253.90222,0.65490
5251.97347,0.65217
5250.04473,0.64895
5248.11598,0.64556
5246.18724,0.64239
5244.25849,0.63983
5242.32975,0.63806
5240.40100,0.63660
5238.47225,0.63452
5236.54351,0.63185
5234.61476,0.62936
5232.68602,0.62718
5230.75727,0.62524
5228.82853,0.62392
5226.89978,0.62279
5224.97104,0.62112
5223.04229,0.61924
5221.11355,0.61759
5219.18480,0.61663
5217.25606,0.61636
5215.32731,0.61571
5213.39857,0.61438
5211.46982,0.61291
5209.54107,0.61161
5207.61233,0.61117
5205.68358,0.61140
5203.75484,0.61080
5201.82609,0.60982
5199.89735,0.60970
5197.96860,0.60983
5196.03986,0.60978
5194.11111,0.61016
5192.18237,0.61107
5190.25362,0.61167
5188.32488,0.61113
5186.39613,0.61002
5184.46739,0.60954
5182.53864,0.60992
5180.60990,0.61060
5178.68115,0.61122
5176.75240,0.61193
5174.82366,0.61260
5172.89491,0.61293
5170.96617,0.61310
5169.03742,0.61352
5167.10868,0.61451
5165.17993,0.61570
5163.25119,0.61636
5161.32244,0.61686
5159.39370,0.61765
5157.46495,0.61849
5155.53621,0.61936
5153.60746,0.62022
5151.67872,0.62070
5149.74997,0.62111
5147.82123,0.62221
5145.89248,0.62377
5143.96373,0.62511
5142.03499,0.62603
5140.10624,0.62682
5138.17750,0.62808
5136.24875,0.62982
5134.32001,0.63108
5132.39126,0.63135
5130.46252,0.63138
5128.53377,0.63197
5126.60503,0.63319
5124.67628,0.63457
5122.74754,0.63524
5120.81879,0.63525
5118.89005,0.63622
5116.96130,0.63817
5115.03255,0.63940
5113.10381,0.64018
5111.17506,0.64150
5109.24632,0.64278
5107.31757,0.64357
5105.38883,0.64395
5103.46008,0.64422
5101.53134,0.64528
5099.60259,0.64693
5097.67385,0.64829
5095.74510,0.64912
5093.81636,0.64951
5091.88761,0.65011
5089.95887,0.65102
5088.03012,0.65147
5086.10138,0.65173
5084.17263,0.65267
5082.24388,0.65424
5080.31514,0.65583
5078.38639,0.65693
5076.45765,0.65742
5074.52890,0.65770
5072.60016,0.65817
5070.67141,0.65873
5068.74267,0.65907
5066.81392,0.65942
5064.88518,0.66008
5062.95643,0.66091
5061.02769,0.66198
5059.09894,0.66309
5057.17020,0.66402
5055.24145,0.66509
5053.31270,0.66606
5051.38396,0.66656
5049.45521,0.66719
5047.52647,0.66843
5045.59772,0.66967
5043.66898,0.67006
5041.74023,0.66966
5039.81149,0.66966
5037.88274,0.67074
5035.95400,0.67191
5034.02525,0.67237
5032.09651,0.67255
5030.16776,0.67276
5028.23902,0.67309
5026.31027,0.67386
5024.38153,0.67493
5022.45278,0.67578
5020.52403,0.67653
5018.59529,0.67721
5016.66654,0.67732
5014.73780,0.67705
5012.80905,0.67688
5010.88031,0.67703
5008.95156,0.67744
5007.02282,0.67760
5005.09407,0.67752
5003.16533,0.67768
5001.23658,0.67781
4999.30784,0.67779
4997.37909,0.67800
4995.45035,0.67800
4993.52160,0.67746
4991.59286,0.67723
4989.66411,0.67747
4987.73536,0.67719
4985.80662,0.67615
4983.87787,0.67496
4981.94913,0.67397
4980.02038,0.67365
4978.09164,0.67444
4976.16289,0.67539
4974.23415,0.67486
4972.30540,0.67326
4970.37666,0.67218
4968.44791,0.67167
4966.51917,0.67106
4964.59042,0.67006
4962.66168,0.66882
4960.73293,0.66775
4958.80418,0.66686
4956.87544,0.66594
4954.94669,0.66485
4953.01795,0.66349
4951.08920,0.66220
4949.16046,0.66090
4947.23171,0.65955
4945.30297,0.65860
4943.37422,0.65776
4941.44548,0.65642
4939.51673,0.65459
4937.58799,0.65279
4935.65924,0.65155
4933.73050,0.65062
4931.80175,0.64950
4929.87301,0.64805
4927.94426,0.64640
4926.01551,0.64464
4924.08677,0.64283
4922.15802,0.64107
4920.22928,0.63929
4918.30053,0.63720
4916.37179,0.63496
4914.44304,0.63317
4912.51430,0.63198
4910.58555,0.63096
4908.65681,0.62952
4906.72806,0.62765
4904.79932,0.62598
4902.87057,0.62466
4900.94183,0.62315
4899.01308,0.62126
4897.08434,0.61948
4895.15559,0.61821
4893.22684,0.61704
4891.29810,0.61546
4889.36935,0.61380
4887.44061,0.61236
4885.51186,0.61076
4883.58312,0.60887
4881.65437,0.60727
4879.72563,0.60605
4877.79688,0.60452
4875.86814,0.60277
4873.93939,0.60127
4872.01065,0.59995
4870.08190,0.59853
4868.15316,0.59680
4866.22441,0.59488
4864.29566,0.59346
4862.36692,0.59264
4860.43817,0.59174
4858.50943,0.59056
4856.58068,0.58945
4854.65194,0.58830
4852.72319,0.58688
4850.79445,0.58523
4848.86570,0.58353
4846.93696,0.58227
4845.00821,0.58162
4843.07947,0.58099
4841.15072,0.58019
4839.22198,0.57913
4837.29323,0.57770
4835.36449,0.57640
4833.43574,0.57563
4831.50699,0.57495
4829.57825,0.57395
4827.64950,0.57273
4825.72076,0.57157
4823.79201,0.57081
4821.86327,0.57032
4819.93452,0.56953
4818.00578,0.56843
4816.07703,0.56755
4814.14829,0.56699
4812.21954,0.56642
4810.29080,0.56560
4808.36205,0.56455
4806.43331,0.56374
4804.50456,0.56336
4802.57582,0.56302
4800.64707,0.56276
4798.71832,0.56243
4796.78958,0.56161
4794.86083,0.56090
4792.93209,0.56079
4791.00334,0.56077
4789.07460,0.56056
4787.14585,0.56022
4785.21711,0.55987
4783.28836,0.55957
4781.35962,0.55904
4779.43087,0.55844
4777.50213,0.55822
4775.57338,0.55844
4773.64464,0.55893
4771.71589,0.55912
4769.78714,0.55855
4767.85840,0.55754
4765.92965,0.55648
4764.00091,0.55579
4762.07216,0.55587
4760.14342,0.55631
4758.21467,0.55636
4756.28593,0.55597
4754.35718,0.55564
4752.42844,0.55581
4750.49969,0.55647
4748.57095,0.55708
4746.64220,0.55735
4744.71346,0.55757
4742.78471,0.55789
4740.85597,0.55789
4738.92722,0.55752
4736.99847,0.55728
4735.06973,0.55727
4733.14098,0.55719
4731.21224,0.55715
4729.28349,0.55753
4727.35475,0.55813
4725.42600,0.55839
4723.49726,0.55834
4721.56851,0.55823
4719.63977,0.55825
4717.71102,0.55840
4715.78228,0.55847
4713.85353,0.55869
4711.92479,0.55905
4709.99604,0.55925
4708.06729,0.55945
4706.13855,0.55966
4704.20980,0.55980
4702.28106,0.56030
4700.35231,0.56112
4698.42357,0.56154
4696.49482,0.56151
4694.56608,0.56167
4692.63733,0.56204
4690.70859,0.56209
4688.77984,0.56193
4686.85110,0.56217
4684.92235,0.56251
4682.99361,0.56243
4681.06486,0.56251
4679.13612,0.56344
4677.20737,0.56466
4675.27862,0.56531
4673.34988,0.56551
4671.42113,0.56592
4669.49239,0.56677
4667.56364,0.56747
4665.63490,0.56773
4663.70615,0.56818
4661.77741,0.56920
4659.84866,0.57042
4657.91992,0.57122
4655.99117,0.57141
4654.06243,0.57158
4652.13368,0.57218
4650.20494,0.57293
4648.27619,0.57360
4646.34745,0.57432
4644.41870,0.57525
4642.48995,0.57625
4640.56121,0.57680
4638.63246,0.57688
4636.70372,0.57722
4634.77497,0.57815
4632.84623,0.57939
4630.91748,0.58052
4628.98874,0.58136
4627.05999,0.58222
4625.13125,0.58311
4623.20250,0.58401
4621.27376,0.58527
4619.34501,0.58664
4617.41627,0.58765
4615.48752,0.58875
4613.55877,0.59017
4611.63003,0.59111
4609.70128,0.59146
4607.77254,0.59209
4605.84379,0.59308
4603.91505,0.59403
4601.98630,0.59493
4600.05756,0.59591
4598.12881,0.59692
4596.20007,0.59777
4594.27132,0.59850
4592.34258,0.59941
4590.41383,0.60046
4588.48509,0.60122
4586.55634,0.60156
4584.62760,0.60200
4582.69885,0.60276
4580.77010,0.60350
4578.84136,0.60413
4576.91261,0.60514
4574.98387,0.60673
4573.05512,0.60808
4571.12638,0.60849
4569.19763,0.60849
4567.26889,0.60871
4565.34014,0.60899
4563.41140,0.60908
4561.48265,0.60921
4559.55391,0.60963
4557.62516,0.61035
4555.69642,0.61100
4553.76767,0.61132
4551.83893,0.61166
4549.91018,0.61204
4547.98143,0.61218
4546.05269,0.61240
4544.12394,0.61315
4542.19520,0.61403
4540.26645,0.61436
4538.33771,0.61409
4536.40896,0.61368
4534.48022,0.61383
4532.55147,0.61458
4530.62273,0.61511
4528.69398,0.61533
4526.76524,0.61562
4524.83649,0.61586
4522.90775,0.61578
4520.97900,0.61555
4519.05025,0.61558
4517.12151,0.61591
4515.19276,0.61608
4513.26402,0.61586
4511.33527,0.61549
4509.40653,0.61525
4507.47778,0.61501
4505.54904,0.61445
4503.62029,0.61380
4501.69155,0.61358
4499.76280,0.61342
4497.83406,0.61273
4495.90531,0.61149
4493.97657,0.60993
4492.04782,0.60853
4490.11908,0.60743
4488.19033,0.60612
4486.26158,0.60478
4484.33284,0.60393
4482.40409,0.60326
4480.47535,0.60207
4478.54660,0.59996
4476.61786,0.59724
4474.68911,0.59482
4472.76037,0.59301
4470.83162,0.59112
4468.90288,0.58909
4466.97413,0.58740
4465.04539,0.58552
4463.11664,0.58297
4461.18790,0.58037
4459.25915,0.57805
4457.33041,0.57598
4455.40166,0.57412
4453.47291,0.57212
4451.54417,0.56996
4449.61542,0.56792
4447.68668,0.56576
4445.75793,0.56330
4443.82919,0.56102
4441.90044,0.55908
4439.97170,0.55710
4438.04295,0.55483
4436.11421,0.55254
4434.18546,0.55050
4432.25672,0.54835
4430.32797,0.54562
4428.39923,0.54247
4426.47048,0.53944
4424.54173,0.53681
4422.61299,0.53454
4420.68424,0.53255
4418.75550,0.53049
4416.82675,0.52828
4414.89801,0.52633
4412.96926,0.52462
4411.04052,0.52289
4409.11177,0.52125
4407.18303,0.52001
4405.25428,0.51914
4403.32554,0.51831
4401.39679,0.51759
4399.46805,0.51746
4397.53930,0.51776
4395.61056,0.51799
4393.68181,0.51809
4391.75306,0.51834
4389.82432,0.51886
4387.89557,0.51943
4385.96683,0.51998
4384.03808,0.52062
4382.10934,0.52131
4380.18059,0.52186
4378.25185,0.52239
4376.32310,0.52320
4374.39436,0.52410
4372.46561,0.52475
4370.53687,0.52539
4368.60812,0.52635
4366.67938,0.52741
4364.75063,0.52835
4362.82189,0.52921
4360.89314,0.52983
4358.96439,0.53001
4357.03565,0.52985
4355.10690,0.52960
4353.17816,0.52960
4351.24941,0.52971
4349.32067,0.52950
4347.39192,0.52918
4345.46318,0.52894
4343.53443,0.52867
4341.60569,0.52847
4339.67694,0.52829
4337.74820,0.52797
4335.81945,0.52775
4333.89071,0.52751
4331.96196,0.52689
4330.03321,0.52611
4328.10447,0.52547
4326.17572,0.52490
4324.24698,0.52434
4322.31823,0.52370
4320.38949,0.52292
4318.46074,0.52202
4316.53200,0.52121
4314.60325,0.52063
4312.67451,0.52004
4310.74576,0.51930
4308.81702,0.51857
4306.88827,0.51780
4304.95953,0.51702
4303.03078,0.51640
4301.10204,0.51577
4299.17329,0.51484
4297.24454,0.51380
4295.31580,0.51310
4293.38705,0.51260
4291.45831,0.51198
4289.52956,0.51158
4287.60082,0.51156
4285.67207,0.51144
4283.74333,0.51105
4281.81458,0.51059
4279.88584,0.51021
4277.95709,0.51000
4276.02835,0.50995
4274.09960,0.51020
4272.17086,0.51091
4270.24211,0.51159
4268.31336,0.51191
4266.38462,0.51232
4264.45587,0.51295
4262.52713,0.51347
4260.59838,0.51401
4258.66964,0.51471
4256.74089,0.51523
4254.81215,0.51553
4252.88340,0.51598
4250.95466,0.51660
4249.02591,0.51705
4247.09717,0.51727
4245.16842,0.51749
4243.23968,0.51766
4241.31093,0.51769
4239.38219,0.51769
4237.45344,0.51788
4235.52469,0.51815
4233.59595,0.51817
4231.66720,0.51828
4229.73846,0.51869
4227.80971,0.51897
4225.88097,0.51885
4223.95222,0.51849
4222.02348,0.51825
4220.09473,0.51844
4218.16599,0.51859
4216.23724,0.51828
4214.30850,0.51804
4212.37975,0.51827
4210.45101,0.51867
4208.52226,0.51899
4206.59352,0.51914
4204.66477,0.51909
4202.73602,0.51906
4200.80728,0.51926
4198.87853,0.51954
4196.94979,0.51965
4195.02104,0.51971
4193.09230,0.51981
4191.16355,0.51979
4189.23481,0.51996
4187.30606,0.52053
4185.37732,0.52097
4183.44857,0.52108
4181.51983,0.52117
4179.59108,0.52142
4177.66234,0.52180
4175.73359,0.52217
4173.80484,0.52271
4171.87610,0.52362
4169.94735,0.52456
4168.01861,0.52525
4166.08986,0.52574
4164.16112,0.52597
4162.23237,0.52600
4160.30363,0.52626
4158.37488,0.52656
4156.44614,0.52626
4154.51739,0.52554
4152.58865,0.52503
4150.65990,0.52480
4148.73116,0.52457
4146.80241,0.52413
4144.87367,0.52347
4142.94492,0.52276
4141.01617,0.52215
4139.08743,0.52157
4137.15868,0.52090
4135.22994,0.52008
4133.30119,0.51913
4131.37245,0.51825
4129.44370,0.51741
4127.51496,0.51625
4125.58621,0.51473
4123.65747,0.51313
4121.72872,0.51153
4119.79998,0.51004
4117.87123,0.50900
4115.94249,0.50818
4114.01374,0.50696
4112.08500,0.50541
4110.15625,0.50385
4108.22750,0.50229
4106.29876,0.50070
4104.37001,0.49904
4102.44127,0.49750
4100.51252,0.49623
4098.58378,0.49491
4096.65503,0.49328
4094.72629,0.49134
4092.79754,0.48927
4090.86880,0.48734
4088.94005,0.48553
4087.01131,0.48364
4085.08256,0.48189
4083.15382,0.48031
4081.22507,0.47861
4079.29632,0.47675
4077.36758,0.47484
4075.43883,0.47301
4073.51009,0.47132
4071.58134,0.46950
4069.65260,0.46742
4067.72385,0.46533
4065.79511,0.46349
4063.86636,0.46178
4061.93762,0.45994
4060.00887,0.45800
4058.08013,0.45618
4056.15138,0.45457
4054.22264,0.45316
4052.29389,0.45174
4050.36515,0.44995
4048.43640,0.44793
4046.50765,0.44607
4044.57891,0.44458
4042.65016,0.44327
4040.72142,0.44191
4038.79267,0.44065
4036.86393,0.43977
4034.93518,0.43898
4033.00644,0.43790
4031.07769,0.43686
4029.14895,0.43613
4027.22020,0.43540
4025.29146,0.43454
4023.36271,0.43371
4021.43397,0.43294
4019.50522,0.43240
4017.57648,0.43233
4015.64773,0.43244
4013.71898,0.43225
4011.79024,0.43188
4009.86149,0.43157
4007.93275,0.43123
4006.00400,0.43101
4004.07526,0.43142
4002.14651,0.43236
4000.21777,0.43309
3998.28902,0.43332
3996.36028,0.43353
3994.43153,0.43384
3992.50279,0.43410
3990.57404,0.43462
3988.64530,0.43534
3986.71655,0.43608
3984.78780,0.43683
3982.85906,0.43737
3980.93031,0.43769
3979.00157,0.43812
3977.07282,0.43873
3975.14408,0.43931
3973.21533,0.43976
3971.28659,0.44035
3969.35784,0.44118
3967.42910,0.44194
3965.50035,0.44271
3963.57161,0.44380
3961.64286,0.44485
3959.71412,0.44552
3957.78537,0.44617
3955.85663,0.44693
3953.92788,0.44770
3951.99913,0.44863
3950.07039,0.44973
3948.14164,0.45077
3946.21290,0.45170
3944.28415,0.45250
3942.35541,0.45319
3940.42666,0.45405
3938.49792,0.45524
3936.56917,0.45664
3934.64043,0.45811
3932.71168,0.45937
3930.78294,0.46029
3928.85419,0.46121
3926.92545,0.46221
3924.99670,0.46299
3923.06795,0.46372
3921.13921,0.46478
3919.21046,0.46594
3917.28172,0.46667
3915.35297,0.46720
3913.42423,0.46811
3911.49548,0.46905
3909.56674,0.46967
3907.63799,0.47018
3905.70925,0.47088
3903.78050,0.47201
3901.85176,0.47332
3899.92301,0.47414
3897.99427,0.47451
3896.06552,0.47490
3894.13678,0.47551
3892.20803,0.47628
3890.27928,0.47710
3888.35054,0.47803
3886.42179,0.47908
3884.49305,0.47985
3882.56430,0.48036
3880.63556,0.48101
3878.70681,0.48163
3876.77807,0.48209
3874.84932,0.48261
3872.92058,0.48338
3870.99183,0.48427
3869.06309,0.48490
3867.13434,0.48545
3865.20560,0.48638
3863.27685,0.48757
3861.34811,0.48862
3859.41936,0.48956
3857.49061,0.49060
3855.56187,0.49186
3853.63312,0.49304
3851.70438,0.49372
3849.77563,0.49419
3847.84689,0.49478
3845.91814,0.49557
3843.98940,0.49662
3842.06065,0.49769
3840.13191,0.49854
3838.20316,0.49908
3836.27442,0.49938
3834.34567,0.49970
3832.41693,0.50003
3830.48818,0.50021
3828.55943,0.50030
3826.63069,0.50043
3824.70194,0.50069
3822.77320,0.50107
3820.84445,0.50135
3818.91571,0.50150
3816.98696,0.50160
3815.05822,0.50140
3813.12947,0.50097
3811.20073,0.50083
3809.27198,0.50117
3807.34324,0.50161
3805.41449,0.50167
3803.48575,0.50156
3801.55700,0.50152
3799.62826,0.50121
3797.69951,0.50070
3795.77076,0.50056
3793.84202,0.50092
3791.91327,0.50127
3789.98453,0.50120
3788.05578,0.50091
3786.12704,0.50066
3784.19829,0.50021
3782.26955,0.49959
3780.34080,0.49918
3778.41206,0.49892
3776.48331,0.49863
3774.55457,0.49835
3772.62582,0.49813
3770.69708,0.49801
3768.76833,0.49785
3766.83959,0.49739
3764.91084,0.49665
3762.98209,0.49597
3761.05335,0.49548
3759.12460,0.49483
3757.19586,0.49407
3755.26711,0.49366
3753.33837,0.49350
3751.40962,0.49313
3749.48088,0.49225
3747.55213,0.49121
3745.62339,0.49041
3743.69464,0.48935
3741.76590,0.48791
3739.83715,0.48673
3737.90841,0.48586
3735.97966,0.48486
3734.05091,0.48335
3732.12217,0.48138
3730.19342,0.47937
3728.26468,0.47768
3726.33593,0.47634
3724.40719,0.47489
3722.47844,0.47309
3720.54970,0.47109
3718.62095,0.46902
3716.69221,0.46708
3714.76346,0.46519
3712.83472,0.46301
3710.90597,0.46043
3708.97723,0.45752
3707.04848,0.45452
3705.11974,0.45153
3703.19099,0.44828
3701.26224,0.44453
3699.33350,0.44055
3697.40475,0.43669
3695.47601,0.43289
3693.54726,0.42897
3691.61852,0.42460
3689.68977,0.41954
3687.76103,0.41378
3685.83228,0.40782
3683.90354,0.40198
3681.97479,0.39603
3680.04605,0.38977
3678.11730,0.38327
3676.18856,0.37625
3674.25981,0.36885
3672.33107,0.36179
3670.40232,0.35460
3668.47357,0.34693
3666.54483,0.33952
3664.61608,0.33258
3662.68734,0.32575
3660.75859,0.31885
3658.82985,0.31210
3656.90110,0.30552
3654.97236,0.29905
3653.04361,0.29285
3651.11487,0.28660
3649.18612,0.28014
3647.25738,0.27403
3645.32863,0.26852
3643.39989,0.26325
3641.47114,0.25793
3639.54239,0.25274
3637.61365,0.24782
3635.68490,0.24281
3633.75616,0.23783
3631.82741,0.23322
3629.89867,0.22840
3627.96992,0.22313
3626.04118,0.21834
3624.11243,0.21402
3622.18369,0.20967
3620.25494,0.20535
3618.32620,0.20125
3616.39745,0.19730
3614.46871,0.19325
3612.53996,0.18915
3610.61122,0.18523
3608.68247,0.18131
3606.75372,0.17729
3604.82498,0.17344
3602.89623,0.16977
3600.96749,0.16610
3599.03874,0.16245
3597.11000,0.15880
3595.18125,0.15491
3593.25251,0.15091
3591.32376,0.14749
3589.39502,0.14479
3587.46627,0.14223
3585.53753,0.13952
3583.60878,0.13682
3581.68004,0.13408
3579.75129,0.13118
3577.82254,0.12834
3575.89380,0.12589
3573.96505,0.12377
3572.03631,0.12180
3570.10756,0.11991
3568.17882,0.11788
3566.25007,0.11560
3564.32133,0.11342
3562.39258,0.11151
3560.46384,0.10967
3558.53509,0.10787
3556.60635,0.10618
3554.67760,0.10446
3552.74886,0.10271
3550.82011,0.10117
3548.89137,0.10000
3546.96262,0.09900
3545.03387,0.09763
3543.10513,0.09608
3541.17638,0.09503
3539.24764,0.09422
3537.31889,0.09308
3535.39015,0.09169
3533.46140,0.09038
3531.53266,0.08925
3529.60391,0.08828
3527.67517,0.08730
3525.74642,0.08621
3523.81768,0.08514
3521.88893,0.08415
3519.96019,0.08329
3518.03144,0.08261
3516.10270,0.08198
3514.17395,0.08116
3512.24520,0.08018
3510.31646,0.07919
3508.38771,0.07824
3506.45897,0.07750
3504.53022,0.07707
3502.60148,0.07675
3500.67273,0.07630
3498.74399,0.07566
3496.81524,0.07501
3494.88650,0.07435
3492.95775,0.07354
3491.02901,0.07298
3489.10026,0.07284
3487.17152,0.07251
3485.24277,0.07171
3483.31402,0.07083
3481.38528,0.07023
3479.45653,0.06999
3477.52779,0.06981
3475.59904,0.06941
3473.67030,0.06876
3471.74155,0.06822
3469.81281,0.06800
3467.88406,0.06779
3465.95532,0.06740
3464.02657,0.06714
3462.09783,0.06722
3460.16908,0.06745
3458.24034,0.06743
3456.31159,0.06693
3454.38285,0.06633
3452.45410,0.06614
3450.52535,0.06614
3448.59661,0.06600
3446.66786,0.06569
3444.73912,0.06527
3442.81037,0.06503
3440.88163,0.06527
3438.95288,0.06580
3437.02414,0.06622
3435.09539,0.06621
3433.16665,0.06562
3431.23790,0.06487
3429.30916,0.06465
3427.38041,0.06493
3425.45167,0.06529
3423.52292,0.06550
3421.59418,0.06559
3419.66543,0.06559
3417.73668,0.06542
3415.80794,0.06525
3413.87919,0.06521
3411.95045,0.06525
3410.02170,0.06530
3408.09296,0.06522
3406.16421,0.06501
3404.23547,0.06500
3402.30672,0.06533
3400.37798,0.06565
3398.44923,0.06563
3396.52049,0.06548
3394.59174,0.06567
3392.66300,0.06612
3390.73425,0.06628
3388.80550,0.06605
3386.87676,0.06593
3384.94801,0.06609
3383.01927,0.06621
3381.09052,0.06620
3379.16178,0.06622
3377.23303,0.06620
3375.30429,0.06613
3373.37554,0.06624
3371.44680,0.06636
3369.51805,0.06630
3367.58931,0.06638
3365.66056,0.06669
3363.73182,0.06671
3361.80307,0.06652
3359.87433,0.06673
3357.94558,0.06725
3356.01683,0.06769
3354.08809,0.06813
3352.15934,0.06844
3350.23060,0.06846
3348.30185,0.06865
3346.37311,0.06916
3344.44436,0.06966
3342.51562,0.07001
3340.58687,0.07028
3338.65813,0.07066
3336.72938,0.07112
3334.80064,0.07139
3332.87189,0.07156
3330.94315,0.07204
3329.01440,0.07274
3327.08566,0.07332
3325.15691,0.07399
3323.22816,0.07493
3321.29942,0.07573
3319.37067,0.07614
3317.44193,0.07628
3315.51318,0.07649
3313.58444,0.07687
3311.65569,0.07723
3309.72695,0.07758
3307.79820,0.07812
3305.86946,0.07867
3303.94071,0.07896
3302.01197,0.07914
3300.08322,0.07958
3298.15448,0.08020
3296.22573,0.08065
3294.29698,0.08087
3292.36824,0.08128
3290.43949,0.08208
3288.51075,0.08267
3286.58200,0.08287
3284.65326,0.08326
3282.72451,0.08394
3280.79577,0.08470
3278.86702,0.08550
3276.93828,0.08614
3275.00953,0.08643
3273.08079,0.08686
3271.15204,0.08789
3269.22330,0.08903
3267.29455,0.08976
3265.36581,0.09047
3263.43706,0.09141
3261.50831,0.09238
3259.57957,0.09338
3257.65082,0.09435
3255.72208,0.09492
3253.79333,0.09514
3251.86459,0.09557
3249.93584,0.09643
3248.00710,0.09749
3246.07835,0.09844
3244.14961,0.09919
3242.22086,0.09997
3240.29212,0.10106
3238.36337,0.10220
3236.43463,0.10322
3234.50588,0.10444
3232.57713,0.10563
3230.64839,0.10640
3228.71964,0.10721
3226.79090,0.10841
3224.86215,0.10953
3222.93341,0.11043
3221.00466,0.11145
3219.07592,0.11255
3217.14717,0.11350
3215.21843,0.11444
3213.28968,0.11546
3211.36094,0.11660
3209.43219,0.11786
3207.50345,0.11907
3205.57470,0.12017
3203.64596,0.12121
3201.71721,0.12229
3199.78846,0.12352
3197.85972,0.12496
3195.93097,0.12645
3194.00223,0.12771
3192.07348,0.12881
3190.14474,0.12999
3188.21599,0.13106
3186.28725,0.13186
3184.35850,0.13274
3182.42976,0.13403
3180.50101,0.13558
3178.57227,0.13699
3176.64352,0.13811
3174.71478,0.13901
3172.78603,0.13986
3170.85729,0.14077
3168.92854,0.14169
3166.99979,0.14271
3165.07105,0.14401
3163.14230,0.14544
3161.21356,0.14672
3159.28481,0.14776
3157.35607,0.14875
3155.42732,0.15006
3153.49858,0.15177
3151.56983,0.15351
3149.64109,0.15482
3147.71234,0.15571
3145.78360,0.15661
3143.85485,0.15779
3141.92611,0.15898
3139.99736,0.16002
3138.06861,0.16121
3136.13987,0.16258
3134.21112,0.16399
3132.28238,0.16536
3130.35363,0.16650
3128.42489,0.16734
3126.49614,0.16812
3124.56740,0.16926
3122.63865,0.17089
3120.70991,0.17259
3118.78116,0.17403
3116.85242,0.17533
3114.92367,0.17653
3112.99493,0.17739
3111.06618,0.17801
3109.13744,0.17884
3107.20869,0.18003
3105.27994,0.18130
3103.35120,0.18246
3101.42245,0.18347
3099.49371,0.18442
3097.56496,0.18541
3095.63622,0.18630
3093.70747,0.18704
3091.77873,0.18771
3089.84998,0.18839
3087.92124,0.18910
3085.99249,0.18989
3084.06375,0.19073
3082.13500,0.19167
3080.20626,0.19263
3078.27751,0.19334
3076.34877,0.19378
3074.42002,0.19428
3072.49127,0.19501
3070.56253,0.19572
3068.63378,0.19624
3066.70504,0.19696
3064.77629,0.19805
3062.84755,0.19916
3060.91880,0.20019
3058.99006,0.20136
3057.06131,0.20260
3055.13257,0.20363
3053.20382,0.20452
3051.27508,0.20542
3049.34633,0.20603
3047.41759,0.20629
3045.48884,0.20670
3043.56009,0.20742
3041.63135,0.20799
3039.70260,0.20819
3037.77386,0.20833
3035.84511,0.20870
3033.91637,0.20903
3031.98762,0.20910
3030.05888,0.20917
3028.13013,0.20925
3026.20139,0.20909
3024.27264,0.20874
3022.34390,0.20835
3020.41515,0.20776
3018.48641,0.20669
3016.55766,0.20528
3014.62892,0.20382
3012.70017,0.20226
3010.77142,0.20053
3008.84268,0.19891
3006.91393,0.19751
3004.98519,0.19598
3003.05644,0.19434
3001.12770,0.19295
2999.19895,0.19184
2997.27021,0.19072
2995.34146,0.18943
2993.41272,0.18795
2991.48397,0.18603
2989.55523,0.18357
2987.62648,0.18080
2985.69774,0.17778
2983.76899,0.17442
2981.84025,0.17087
2979.91150,0.16722
2977.98275,0.16349
2976.05401,0.15947
2974.12526,0.15519
2972.19652,0.15129
2970.26777,0.14815
2968.33903,0.14545
2966.41028,0.14302
2964.48154,0.14121
2962.55279,0.13995
2960.62405,0.13857
2958.69530,0.13693
2956.76656,0.13535
2954.83781,0.13369
2952.90907,0.13174
2950.98032,0.12979
2949.05157,0.12792
2947.12283,0.12590
2945.19408,0.12386
2943.26534,0.12216
2941.33659,0.12089
2939.40785,0.11998
2937.47910,0.11928
2935.55036,0.11868
2933.62161,0.11835
2931.69287,0.11835
2929.76412,0.11845
2927.83538,0.11842
2925.90663,0.11814
2923.97789,0.11755
2922.04914,0.11687
2920.12040,0.11650
2918.19165,0.11654
2916.26290,0.11668
2914.33416,0.11679
2912.40541,0.11700
2910.47667,0.11733
2908.54792,0.11752
2906.61918,0.11747
2904.69043,0.11737
2902.76169,0.11752
2900.83294,0.11804
2898.90420,0.11877
2896.97545,0.11940
2895.04671,0.11997
2893.11796,0.12068
2891.18922,0.12142
2889.26047,0.12217
2887.33172,0.12298
2885.40298,0.12375
2883.47423,0.12437
2881.54549,0.12506
2879.61674,0.12596
2877.68800,0.12685
2875.75925,0.12759
2873.83051,0.12842
2871.90176,0.12958
2869.97302,0.13097
2868.04427,0.13242
2866.11553,0.13394
2864.18678,0.13543
2862.25804,0.13686
2860.32929,0.13839
2858.40055,0.14000
2856.47180,0.14160
2854.54305,0.14318
2852.61431,0.14471
2850.68556,0.14627
2848.75682,0.14821
2846.82807,0.15067
2844.89933,0.15340
2842.97058,0.15619
2841.04184,0.15898
2839.11309,0.16181
2837.18435,0.16486
2835.25560,0.16815
2833.32686,0.17174
2831.39811,0.17562
2829.46937,0.17954
2827.54062,0.18337
2825.61188,0.18722
2823.68313,0.19091
2821.75438,0.19443
2819.82564,0.19791
2817.89689,0.20118
2815.96815,0.20414
2814.03940,0.20687
2812.11066,0.20928
2810.18191,0.21141
2808.25317,0.21365
2806.32442,0.21614
2804.39568,0.21846
2802.46693,0.22038
2800.53819,0.22215
2798.60944,0.22389
2796.68070,0.22549
2794.75195,0.22691
2792.82320,0.22820
2790.89446,0.22950
2788.96571,0.23085
2787.03697,0.23203
2785.10822,0.23302
2783.17948,0.23392
2781.25073,0.23472
2779.32199,0.23540
2777.39324,0.23597
2775.46450,0.23655
2773.53575,0.23720
2771.60701,0.23781
2769.67826,0.23837
2767.74952,0.23888
2765.82077,0.23930
2763.89203,0.23973
2761.96328,0.24024
2760.03453,0.24080
2758.10579,0.24126
2756.17704,0.24158
2754.24830,0.24201
2752.31955,0.24253
2750.39081,0.24275
2748.46206,0.24277
2746.53332,0.24282
2744.60457,0.24276
2742.67583,0.24275
2740.74708,0.24301
2738.81834,0.24331
2736.88959,0.24359
2734.96085,0.24410
2733.03210,0.24476
2731.10336,0.24529
2729.17461,0.24586
2727.24586,0.24664
2725.31712,0.24733
2723.38837,0.24788
2721.45963,0.24863
2719.53088,0.24964
2717.60214,0.25074
2715.67339,0.25178
2713.74465,0.25277
2711.81590,0.25391
2709.88716,0.25526
2707.95841,0.25652
2706.02967,0.25755
2704.10092,0.25868
2702.17218,0.25991
2700.24343,0.26106
2698.31468,0.26211
2696.38594,0.26314
2694.45719,0.26425
2692.52845,0.26537
2690.59970,0.26642
2688.67096,0.26765
2686.74221,0.26897
2684.81347,0.27003
2682.88472,0.27091
2680.95598,0.27190
2679.02723,0.27285
2677.09849,0.27361
2675.16974,0.27433
2673.24100,0.27522
2671.31225,0.27621
2669.38351,0.27707
2667.45476,0.27778
2665.52601,0.27837
2663.59727,0.27887
2661.66852,0.27927
2659.73978,0.27960
2657.81103,0.28014
2655.88229,0.28105
2653.95354,0.28198
2652.02480,0.28253
2650.09605,0.28285
2648.16731,0.28344
2646.23856,0.28432
2644.30982,0.28511
2642.38107,0.28577
2640.45233,0.28650
2638.52358,0.28733
2636.59484,0.28810
2634.66609,0.28876
2632.73734,0.28949
2630.80860,0.29047
2628.87985,0.29160
2626.95111,0.29260
2625.02236,0.29335
2623.09362,0.29404
2621.16487,0.29490
2619.23613,0.29576
2617.30738,0.29630
2615.37864,0.29671
2613.44989,0.29740
2611.52115,0.29830
2609.59240,0.29908
2607.66366,0.29969
2605.73491,0.30030
2603.80616,0.30089
2601.87742,0.30133
2599.94867,0.30181
2598.01993,0.30254
2596.09118,0.30338
2594.16244,0.30415
2592.23369,0.30487
2590.30495,0.30556
2588.37620,0.30623
2586.44746,0.30680
2584.51871,0.30722
2582.58997,0.30773
2580.66122,0.30842
2578.73248,0.30904
2576.80373,0.30955
2574.87499,0.30996
2572.94624,0.31018
2571.01749,0.31039
2569.08875,0.31076
2567.16000,0.31107
2565.23126,0.31115
2563.30251,0.31119
2561.37377,0.31136
2559.44502,0.31170
2557.51628,0.31204
2555.58753,0.31222
2553.65879,0.31230
2551.73004,0.31245
2549.80130,0.31256
2547.87255,0.31263
2545.94381,0.31273
2544.01506,0.31286
2542.08631,0.31315
2540.15757,0.31367
2538.22882,0.31426
2536.30008,0.31488
2534.37133,0.31555
2532.44259,0.31623
2530.51384,0.31694
2528.58510,0.31780
2526.65635,0.31885
2524.72761,0.31986
2522.79886,0.32055
2520.87012,0.32101
2518.94137,0.32152
2517.01263,0.32217
2515.08388,0.32293
2513.15514,0.32382
2511.22639,0.32489
2509.29764,0.32601
2507.36890,0.32697
2505.44015,0.32792
2503.51141,0.32908
2501.58266,0.33038
2499.65392,0.33169
2497.72517,0.33292
2495.79643,0.33402
2493.86768,0.33509
2491.93894,0.33629
2490.01019,0.33747
2488.08145,0.33846
2486.15270,0.33927
2484.22396,0.34005
2482.29521,0.34097
2480.36647,0.34203
2478.43772,0.34303
2476.50897,0.34390
2474.58023,0.34482
2472.65148,0.34582
2470.72274,0.34676
2468.79399,0.34769
2466.86525,0.34856
2464.93650,0.34930
2463.00776,0.35025
2461.07901,0.35144
2459.15027,0.35249
2457.22152,0.35328
2455.29278,0.35402
2453.36403,0.35479
2451.43529,0.35570
2449.50654,0.35691
2447.57779,0.35832
2445.64905,0.35959
2443.72030,0.36052
2441.79156,0.36135
2439.86281,0.36237
2437.93407,0.36343
2436.00532,0.36434
2434.07658,0.36522
2432.14783,0.36622
2430.21909,0.36731
2428.29034,0.36851
2426.36160,0.36986
2424.43285,0.37120
2422.50411,0.37237
2420.57536,0.37350
2418.64662,0.37476
2416.71787,0.37601
2414.78912,0.37724
2412.86038,0.37854
2410.93163,0.37975
2409.00289,0.38083
2407.07414,0.38191
2405.14540,0.38306
2403.21665,0.38425
2401.28791,0.38535
2399.35916,0.38634
2397.43042,0.38741
2395.50167,0.38856
2393.57293,0.38976
2391.64418,0.39113
2389.71544,0.39252
2387.78669,0.39358
2385.85795,0.39438
2383.92920,0.39523
2382.00045,0.39625
2380.07171,0.39734
2378.14296,0.39840
2376.21422,0.39945
2374.28547,0.40042
2372.35673,0.40122
2370.42798,0.40207
2368.49924,0.40301
2366.57049,0.40380
2364.64175,0.40443
2362.71300,0.40508
2360.78426,0.40577
2358.85551,0.40645
2356.92677,0.40721
2354.99802,0.40806
2353.06927,0.40886
2351.14053,0.40947
2349.21178,0.41003
2347.28304,0.41078
2345.35429,0.41162
2343.42555,0.41229
2341.49680,0.41285
2339.56806,0.41340
2337.63931,0.41387
2335.71057,0.41422
2333.78182,0.41458
2331.85308,0.41508
2329.92433,0.41547
2327.99559,0.41559
2326.06684,0.41572
2324.13810,0.41612
2322.20935,0.41650
2320.28060,0.41657
2318.35186,0.41654
2316.42311,0.41675
2314.49437,0.41709
2312.56562,0.41742
2310.63688,0.41767
2308.70813,0.41764
2306.77939,0.41742
2304.85064,0.41733
2302.92190,0.41737
2300.99315,0.41739
2299.06441,0.41721
2297.13566,0.41686
2295.20692,0.41671
2293.27817,0.41682
2291.34943,0.41697
2289.42068,0.41700
2287.49193,0.41687
2285.56319,0.41668
2283.63444,0.41663
2281.70570,0.41677
2279.77695,0.41693
2277.84821,0.41682
2275.91946,0.41631
2273.99072,0.41563
2272.06197,0.41510
2270.13323,0.41479
2268.20448,0.41441
2266.27574,0.41389
2264.34699,0.41336
2262.41825,0.41280
2260.48950,0.41215
2258.56075,0.41152
2256.63201,0.41109
2254.70326,0.41090
2252.77452,0.41081
2250.84577,0.41071
2248.91703,0.41055
2246.98828,0.41028
2245.05954,0.40999
2243.13079,0.40979
2241.20205,0.40961
2239.27330,0.40943
2237.34456,0.40936
2235.41581,0.40935
2233.48707,0.40927
2231.55832,0.40923
2229.62958,0.40933
2227.70083,0.40954
2225.77208,0.40966
2223.84334,0.40960
2221.91459,0.40955
2219.98585,0.40974
2218.05710,0.41009
2216.12836,0.41033
2214.19961,0.41029
2212.27087,0.41008
2210.34212,0.40985
2208.41338,0.40954
2206.48463,0.40921
2204.55589,0.40898
2202.62714,0.40871
2200.69840,0.40814
2198.76965,0.40727
2196.84090,0.40641
2194.91216,0.40568
2192.98341,0.40494
2191.05467,0.40412
2189.12592,0.40317
2187.19718,0.40201
2185.26843,0.40071
2183.33969,0.39948
2181.41094,0.39827
2179.48220,0.39700
2177.55345,0.39577
2175.62471,0.39463
2173.69596,0.39354
2171.76722,0.39245
2169.83847,0.39134
2167.90973,0.39035
2165.98098,0.38948
2164.05223,0.38852
2162.12349,0.38755
2160.19474,0.38674
2158.26600,0.38592
2156.33725,0.38510
2154.40851,0.38458
2152.47976,0.38433
2150.55102,0.38401
2148.62227,0.38349
2146.69353,0.38287
2144.76478,0.38225
2142.83604,0.38178
2140.90729,0.38152
2138.97855,0.38142
2137.04980,0.38132
2135.12106,0.38113
2133.19231,0.38099
2131.26356,0.38113
2129.33482,0.38147
2127.40607,0.38174
2125.47733,0.38197
2123.54858,0.38242
2121.61984,0.38304
2119.69109,0.38355
2117.76235,0.38401
2115.83360,0.38454
2113.90486,0.38502
2111.97611,0.38543
2110.04737,0.38581
2108.11862,0.38613
2106.18988,0.38650
2104.26113,0.38697
2102.33238,0.38749
2100.40364,0.38797
2098.47489,0.38828
2096.54615,0.38856
2094.61740,0.38889
2092.68866,0.38910
2090.75991,0.38923
2088.83117,0.38942
2086.90242,0.38944
2084.97368,0.38915
2083.04493,0.38880
2081.11619,0.38855
2079.18744,0.38828
2077.25870,0.38787
2075.32995,0.38721
2073.40121,0.38649
2071.47246,0.38593
2069.54371,0.38544
2067.61497,0.38486
2065.68622,0.38440
2063.75748,0.38416
2061.82873,0.38398
2059.89999,0.38383
2057.97124,0.38377
2056.04250,0.38381
2054.11375,0.38404
2052.18501,0.38441
2050.25626,0.38467
2048.32752,0.38487
2046.39877,0.38526
2044.47003,0.38597
2042.54128,0.38686
2040.61254,0.38787
2038.68379,0.38900
2036.75504,0.39004
2034.82630,0.39089
2032.89755,0.39192
2030.96881,0.39324
2029.04006,0.39463
2027.11132,0.39595
2025.18257,0.39725
2023.25383,0.39855
2021.32508,0.39977
2019.39634,0.40099
2017.46759,0.40234
2015.53885,0.40368
2013.61010,0.40482
2011.68136,0.40575
2009.75261,0.40656
2007.82386,0.40741
2005.89512,0.40827
2003.96637,0.40911
2002.03763,0.41008
2000.10888,0.41102
1998.18014,0.41171
1996.25139,0.41235
1994.32265,0.41308
1992.39390,0.41380
1990.46516,0.41446
1988.53641,0.41515
1986.60767,0.41594
1984.67892,0.41677
1982.75018,0.41755
1980.82143,0.41819
1978.89269,0.41879
1976.96394,0.41937
1975.03519,0.41992
1973.10645,0.42050
1971.17770,0.42113
1969.24896,0.42187
1967.32021,0.42258
1965.39147,0.42314
1963.46272,0.42369
1961.53398,0.42442
1959.60523,0.42537
1957.67649,0.42648
1955.74774,0.42762
1953.81900,0.42870
1951.89025,0.42975
1949.96151,0.43096
1948.03276,0.43228
1946.10402,0.43348
1944.17527,0.43453
1942.24652,0.43552
1940.31778,0.43639
1938.38903,0.43712
1936.46029,0.43782
1934.53154,0.43855
1932.60280,0.43929
1930.67405,0.43984
1928.74531,0.44013
1926.81656,0.44047
1924.88782,0.44103
1922.95907,0.44150
1921.03033,0.44173
1919.10158,0.44187
1917.17284,0.44196
1915.24409,0.44198
1913.31534,0.44206
1911.38660,0.44227
1909.45785,0.44239
1907.52911,0.44223
1905.60036,0.44199
1903.67162,0.44180
1901.74287,0.44149
1899.81413,0.44102
1897.88538,0.44057
1895.95664,0.44023
1894.02789,0.43990
1892.09915,0.43946
1890.17040,0.43905
1888.24166,0.43872
1886.31291,0.43842
1884.38417,0.43814
1882.45542,0.43788
1880.52667,0.43756
1878.59793,0.43713
1876.66918,0.43664
1874.74044,0.43622
1872.81169,0.43588
1870.88295,0.43558
1868.95420,0.43524
1867.02546,0.43481
1865.09671,0.43436
1863.16797,0.43385
1861.23922,0.43327
1859.31048,0.43270
1857.38173,0.43223
1855.45299,0.43170
1853.52424,0.43104
1851.59549,0.43045
1849.66675,0.42993
1847.73800,0.42932
1845.80926,0.42861
1843.88051,0.42768
1841.95177,0.42651
1840.02302,0.42533
1838.09428,0.42424
1836.16553,0.42306
1834.23679,0.42183
1832.30804,0.42059
1830.37930,0.41909
1828.45055,0.41719
1826.52181,0.41512
1824.59306,0.41285
1822.66432,0.41024
1820.73557,0.40748
1818.80682,0.40456
1816.87808,0.40124
1814.94933,0.39727
1813.02059,0.39258
1811.09184,0.38724
1809.16310,0.38127
1807.23435,0.37457
1805.30561,0.36709
1803.37686,0.35899
1801.44812,0.35035
1799.51937,0.34137
1797.59063,0.33260
1795.66188,0.32437
1793.73314,0.31629
1791.80439,0.30791
1789.87565,0.29976
1787.94690,0.29251
1786.01815,0.28608
1784.08941,0.28015
1782.16066,0.27463
1780.23192,0.26952
1778.30317,0.26491
1776.37443,0.26078
1774.44568,0.25669
1772.51694,0.25195
1770.58819,0.24665
1768.65945,0.24120
1766.73070,0.23547
1764.80196,0.22947
1762.87321,0.22304
1760.94447,0.21604
1759.01572,0.20904
1757.08697,0.20225
1755.15823,0.19602
1753.22948,0.19074
1751.30074,0.18590
1749.37199,0.18143
1747.44325,0.17784
1745.51450,0.17518
1743.58576,0.17339
1741.65701,0.17234
1739.72827,0.17183
1737.79952,0.17192
1735.87078,0.17282
1733.94203,0.17444
1732.01329,0.17641
1730.08454,0.17863
1728.15580,0.18119
1726.22705,0.18396
1724.29830,0.18694
1722.36956,0.19019
1720.44081,0.19371
1718.51207,0.19771
1716.58332,0.20200
1714.65458,0.20597
1712.72583,0.20948
1710.79709,0.21272
1708.86834,0.21572
1706.93960,0.21822
1705.01085,0.21988
1703.08211,0.22085
1701.15336,0.22133
1699.22462,0.22099
1697.29587,0.21978
1695.36713,0.21801
1693.43838,0.21592
1691.50963,0.21352
1689.58089,0.21062
1687.65214,0.20753
1685.72340,0.20414
1683.79465,0.19954
1681.86591,0.19417
1679.93716,0.18890
1678.00842,0.18374
1676.07967,0.17839
1674.15093,0.17302
1672.22218,0.16826
1670.29344,0.16399
1668.36469,0.16006
1666.43595,0.15703
1664.50720,0.15500
1662.57845,0.15369
1660.64971,0.15305
1658.72096,0.15325
1656.79222,0.15432
1654.86347,0.15600
1652.93473,0.15775
1651.00598,0.15879
1649.07724,0.15941
1647.14849,0.15992
1645.21975,0.16007
1643.29100,0.15981
1641.36226,0.15943
1639.43351,0.15913
1637.50477,0.15898
1635.57602,0.15893
1633.64728,0.15888
1631.71853,0.15872
1629.78978,0.15824
1627.86104,0.15745
1625.93229,0.15649
1624.00355,0.15519
1622.07480,0.15351
1620.14606,0.15179
1618.21731,0.14998
1616.28857,0.14757
1614.35982,0.14477
1612.43108,0.14216
1610.50233,0.13976
1608.57359,0.13755
1606.64484,0.13579
1604.71610,0.13486
1602.78735,0.13471
1600.85861,0.13478
1598.92986,0.13479
1597.00111,0.13491
1595.07237,0.13534
1593.14362,0.13622
1591.21488,0.13779
1589.28613,0.14029
1587.35739,0.14370
1585.42864,0.14794
1583.49990,0.15303
1581.57115,0.15906
1579.64241,0.16595
1577.71366,0.17381
1575.78492,0.18251
1573.85617,0.19054
1571.92743,0.19766
1569.99868,0.20447
1568.06993,0.21028
1566.14119,0.21461
1564.21244,0.21785
1562.28370,0.22030
1560.35495,0.22222
1558.42621,0.22317
1556.49746,0.22262
1554.56872,0.22120
1552.63997,0.21931
1550.71123,0.21715
1548.78248,0.21491
1546.85374,0.21277
1544.92499,0.21068
1542.99625,0.20828
1541.06750,0.20489
1539.13876,0.19990
1537.21001,0.19434
1535.28126,0.18849
1533.35252,0.18095
1531.42377,0.17173
1529.49503,0.16179
1527.56628,0.15098
1525.63754,0.13932
1523.70879,0.12731
1521.78005,0.11462
1519.85130,0.10248
1517.92256,0.09314
1515.99381,0.08685
1514.06507,0.08341
1512.13632,0.08244
1510.20758,0.08327
1508.27883,0.08572
1506.35008,0.08967
1504.42134,0.09416
1502.49259,0.09884
1500.56385,0.10410
1498.63510,0.10979
1496.70636,0.11522
1494.77761,0.11949
1492.84887,0.12232
1490.92012,0.12395
1488.99138,0.12432
1487.06263,0.12352
1485.13389,0.12190
1483.20514,0.11973
1481.27640,0.11714
1479.34765,0.11398
1477.41891,0.11005
1475.49016,0.10545
1473.56141,0.10028
1471.63267,0.09502
1469.70392,0.09072
1467.77518,0.08773
1465.84643,0.08591
1463.91769,0.08507
1461.98894,0.08488
1460.06020,0.08508
1458.13145,0.08529
1456.20271,0.08510
1454.27396,0.08473
1452.34522,0.08476
1450.41647,0.08546
1448.48773,0.08675
1446.55898,0.08815
1444.63024,0.08913
1442.70149,0.08938
1440.77274,0.08876
1438.84400,0.08731
1436.91525,0.08521
1434.98651,0.08308
1433.05776,0.08149
1431.12902,0.08048
1429.20027,0.08002
1427.27153,0.08016
1425.34278,0.08085
1423.41404,0.08196
1421.48529,0.08345
1419.55655,0.08526
1417.62780,0.08716
1415.69906,0.08912
1413.77031,0.09112
1411.84156,0.09281
1409.91282,0.09403
1407.98407,0.09510
1406.05533,0.09601
1404.12658,0.09642
1402.19784,0.09643
1400.26909,0.09621
1398.34035,0.09558
1396.41160,0.09450
1394.48286,0.09314
1392.55411,0.09145
1390.62537,0.08951
1388.69662,0.08741
1386.76788,0.08523
1384.83913,0.08310
1382.91039,0.08107
1380.98164,0.07921
1379.05289,0.07784
1377.12415,0.07715
1375.19540,0.07692
1373.26666,0.07697
1371.33791,0.07737
1369.40917,0.07812
1367.48042,0.07906
1365.55168,0.08003
1363.62293,0.08095
1361.69419,0.08175
1359.76544,0.08251
1357.83670,0.08341
1355.90795,0.08441
1353.97921,0.08532
1352.05046,0.08610
1350.12172,0.08669
1348.19297,0.08670
1346.26422,0.08604
1344.33548,0.08515
1342.40673,0.08424
1340.47799,0.08336
1338.54924,0.08278
1336.62050,0.08254
1334.69175,0.08243
1332.76301,0.08256
1330.83426,0.08286
1328.90552,0.08290
1326.97677,0.08260
1325.04803,0.08208
1323.11928,0.08145
1321.19054,0.08098
1319.26179,0.08091
1317.33304,0.08125
1315.40430,0.08199
1313.47555,0.08300
1311.54681,0.08403
1309.61806,0.08497
1307.68932,0.08582
1305.76057,0.08651
1303.83183,0.08684
1301.90308,0.08683
1299.97434,0.08664
1298.04559,0.08609
1296.11685,0.08510
1294.18810,0.08390
1292.25936,0.08256
1290.33061,0.08091
1288.40187,0.07902
1286.47312,0.07718
1284.54437,0.07548
1282.61563,0.07395
1280.68688,0.07288
1278.75814,0.07224
1276.82939,0.07159
1274.90065,0.07105
1272.97190,0.07102
1271.04316,0.07144
1269.11441,0.07209
1267.18567,0.07287
1265.25692,0.07380
1263.32818,0.07487
1261.39943,0.07593
1259.47069,0.07684
1257.54194,0.07778
1255.61320,0.07894
1253.68445,0.08012
1251.75570,0.08086
1249.82696,0.08117
1247.89821,0.08138
1245.96947,0.08152
1244.04072,0.08158
1242.11198,0.08159
1240.18323,0.08142
1238.25449,0.08109
1236.32574,0.08083
1234.39700,0.08059
1232.46825,0.08043
1230.53951,0.08062
1228.61076,0.08114
1226.68202,0.08177
1224.75327,0.08239
1222.82452,0.08279
1220.89578,0.08299
1218.96703,0.08336
1217.03829,0.08391
1215.10954,0.08435
1213.18080,0.08464
1211.25205,0.08486
1209.32331,0.08507
1207.39456,0.08553
1205.46582,0.08647
1203.53707,0.08775
1201.60833,0.08889
1199.67958,0.08991
1197.75084,0.09109
1195.82209,0.09219
1193.89335,0.09269
1191.96460,0.09263
1190.03585,0.09225
1188.10711,0.09143
1186.17836,0.08988
1184.24962,0.08776
1182.32087,0.08534
1180.39213,0.08260
1178.46338,0.07962
1176.53464,0.07674
1174.60589,0.07413
1172.67715,0.07183
1170.74840,0.07004
1168.81966,0.06921
1166.89091,0.06963
1164.96217,0.07078
1163.03342,0.07198
1161.10467,0.07304
1159.17593,0.07392
1157.24718,0.07447
1155.31844,0.07467
1153.38969,0.07474
1151.46095,0.07479
1149.53220,0.07466
1147.60346,0.07424
1145.67471,0.07347
1143.74597,0.07249
1141.81722,0.07163
1139.88848,0.07086
1137.95973,0.06990
1136.03099,0.06879
1134.10224,0.06775
1132.17350,0.06682
1130.24475,0.06595
1128.31600,0.06539
1126.38726,0.06529
1124.45851,0.06545
1122.52977,0.06574
1120.60102,0.06601
1118.67228,0.06604
1116.74353,0.06594
1114.81479,0.06618
1112.88604,0.06685
1110.95730,0.06774
1109.02855,0.06886
1107.09981,0.07008
1105.17106,0.07108
1103.24232,0.07192
1101.31357,0.07275
1099.38483,0.07309
1097.45608,0.07268
1095.52733,0.07218
1093.59859,0.07213
1091.66984,0.07228
1089.74110,0.07242
1087.81235,0.07252
1085.88361,0.07261
1083.95486,0.07288
1082.02612,0.07337
1080.09737,0.07402
1078.16863,0.07497
1076.23988,0.07633
1074.31114,0.07801
1072.38239,0.07990
1070.45365,0.08189
1068.52490,0.08403
1066.59615,0.08662
1064.66741,0.08988
1062.73866,0.09354
1060.80992,0.09721
1058.88117,0.10042
1056.95243,0.10251
1055.02368,0.10324
1053.09494,0.10313
1051.16619,0.10280
1049.23745,0.10231
1047.30870,0.10156
1045.37996,0.10069
1043.45121,0.10028
1041.52247,0.10095
1039.59372,0.10267
1037.66498,0.10521
1035.73623,0.10813
1033.80748,0.11056
1031.87874,0.11231
1029.94999,0.11368
1028.02125,0.11477
1026.09250,0.11567
1024.16376,0.11666
1022.23501,0.11777
1020.30627,0.11882
1018.37752,0.11991
1016.44878,0.12132
1014.52003,0.12301
1012.59129,0.12468
1010.66254,0.12604
1008.73380,0.12685
1006.80505,0.12726
1004.87631,0.12803
1002.94756,0.12946
1001.01881,0.13113
999.09007,0.13277
997.16132,0.13447
995.23258,0.13632
993.30383,0.13834
991.37509,0.14068
989.44634,0.14355
987.51760,0.14704
985.58885,0.15111
983.66011,0.15583
981.73136,0.16116
979.80262,0.16635
977.87387,0.17064
975.94513,0.17415
974.01638,0.17716
972.08763,0.17967
970.15889,0.18199
968.23014,0.18435
966.30140,0.18696
964.37265,0.19027
962.44391,0.19405
960.51516,0.19788
958.58642,0.20181
956.65767,0.20578
954.72893,0.20964
952.80018,0.21322
950.87144,0.21627
948.94269,0.21885
947.01395,0.22121
945.08520,0.22354
943.15646,0.22591
941.22771,0.22812
939.29896,0.23004
937.37022,0.23200
935.44147,0.23425
933.51273,0.23664
931.58398,0.23893
929.65524,0.24100
927.72649,0.24291
925.79775,0.24473
923.86900,0.24617
921.94026,0.24679
920.01151,0.24668
918.08277,0.24610
916.15402,0.24487
914.22528,0.24296
912.29653,0.24061
910.36779,0.23793
908.43904,0.23491
906.51029,0.23144
904.58155,0.22761
902.65280,0.22409
900.72406,0.22164
898.79531,0.22054
896.86657,0.22093
894.93782,0.22282
893.00908,0.22582
891.08033,0.22961
889.15159,0.23390
887.22284,0.23786
885.29410,0.24091
883.36535,0.24313
881.43661,0.24465
879.50786,0.24539
877.57911,0.24550
875.65037,0.24560
873.72162,0.24626
871.79288,0.24733
869.86413,0.24823
867.93539,0.24873
866.00664,0.24933
864.07790,0.25057
862.14915,0.25235
860.22041,0.25414
858.29166,0.25577
856.36292,0.25765
854.43417,0.26007
852.50543,0.26293
850.57668,0.26626
848.64794,0.26971
846.71919,0.27248
844.79044,0.27415
842.86170,0.27470
840.93295,0.27414
839.00421,0.27267
837.07546,0.27089
835.14672,0.26920
833.21797,0.26740
831.28923,0.26527
829.36048,0.26307
827.43174,0.26112
825.50299,0.25917
823.57425,0.25668
821.64550,0.25364
819.71676,0.25044
817.78801,0.24718
815.85926,0.24397
813.93052,0.24139
812.00177,0.23987
810.07303,0.23936
808.14428,0.23991
806.21554,0.24131
804.28679,0.24302
802.35805,0.24506
800.42930,0.24755
798.50056,0.24973
796.57181,0.25132
794.64307,0.25286
792.71432,0.25432
790.78558,0.25497
788.85683,0.25447
786.92809,0.25333
784.99934,0.25207
783.07059,0.25070
781.14185,0.24885
779.21310,0.24651
777.28436,0.24411
775.35561,0.24174
773.42687,0.23944
771.49812,0.23752
769.56938,0.23603
767.64063,0.23465
765.71189,0.23326
763.78314,0.23202
761.85440,0.23080
759.92565,0.22958
757.99691,0.22848
756.06816,0.22731
754.13942,0.22573
752.21067,0.22372
750.28192,0.22153
748.35318,0.21948
746.42443,0.21771
744.49569,0.21601
742.56694,0.21426
740.63820,0.21248
738.70945,0.21057
736.78071,0.20851
734.85196,0.20622
732.92322,0.20363
730.99447,0.20112
729.06573,0.19894
727.13698,0.19688
725.20824,0.19467
723.27949,0.19239
721.35074,0.19036
719.42200,0.18859
717.49325,0.18696
715.56451,0.18545
713.63576,0.18395
711.70702,0.18233
709.77827,0.18083
707.84953,0.17952
705.92078,0.17820
703.99204,0.17698
702.06329,0.17602
700.13455,0.17487
698.20580,0.17311
696.27706,0.17122
694.34831,0.16968
692.41957,0.16815
690.49082,0.16619
688.56207,0.16385
686.63333,0.16142
684.70458,0.15872
682.77584,0.15575
680.84709,0.15273
678.91835,0.14954
676.98960,0.14653
675.06086,0.14396
673.13211,0.14162
671.20337,0.13992
669.27462,0.13973
667.34588,0.14094
665.41713,0.14217
663.48839,0.14265
661.55964,0.14287
659.63090,0.14332
657.70215,0.14387
655.77340,0.14416
653.84466,0.14395
651.91591,0.14322
649.98717,0.14244
648.05842,0.14204
646.12968,0.14143
644.20093,0.14002
642.27219,0.13849
640.34344,0.13695
638.41470,0.13438
636.48595,0.13108
634.55721,0.12901
632.62846,0.12876
630.69972,0.12862
628.77097,0.12760
626.84222,0.12609
624.91348,0.12474
622.98473,0.12401
621.05599,0.12360
619.12724,0.12320
617.19850,0.12309
615.26975,0.12381
613.34101,0.12562
611.41226,0.12799
609.48352,0.12974
607.55477,0.13049
605.62603,0.13105
603.69728,0.13121
601.76854,0.13031
599.83979,0.12954
