7497.03301,0.88212
7495.10426,0.87934
7493.17552,0.88351
7491.24677,0.89207
7489.31803,0.89288
7487.38928,0.88325
7485.46054,0.87599
7483.53179,0.87657
7481.60305,0.87914
7479.67430,0.88139
7477.74556,0.88430
7475.81681,0.88530
7473.88807,0.88373
7471.95932,0.88384
7470.03057,0.88421
7468.10183,0.88210
7466.17308,0.88182
7464.24434,0.88279
7462.31559,0.88121
7460.38685,0.87891
7458.45810,0.87713
7456.52936,0.87636
7454.60061,0.87662
7452.67187,0.87399
7450.74312,0.86825
7448.81438,0.86545
7446.88563,0.86677
7444.95689,0.86795
7443.02814,0.86764
7441.09940,0.86804
7439.17065,0.87033
7437.24190,0.87127
7435.31316,0.86947
7433.38441,0.86734
7431.45567,0.86570
7429.52692,0.86621
7427.59818,0.86824
7425.66943,0.86595
7423.74069,0.85989
7421.81194,0.85766
7419.88320,0.85881
7417.95445,0.85789
7416.02571,0.85701
7414.09696,0.85808
7412.16822,0.85700
7410.23947,0.85300
7408.31073,0.84998
7406.38198,0.85002
7404.45323,0.85060
7402.52449,0.85037
7400.59574,0.85212
7398.66700,0.85551
7396.73825,0.85747
7394.80951,0.85731
7392.88076,0.85606
7390.95202,0.85467
7389.02327,0.85144
7387.09453,0.84625
7385.16578,0.84416
7383.23704,0.84652
7381.30829,0.84807
7379.37955,0.84765
7377.45080,0.85045
7375.52205,0.85376
7373.59331,0.85036
7371.66456,0.84498
7369.73582,0.84351
7367.80707,0.84328
7365.87833,0.84196
7363.94958,0.84065
7362.02084,0.84151
7360.09209,0.84458
7358.16335,0.84663
7356.23460,0.84532
7354.30586,0.84353
7352.37711,0.84352
7350.44837,0.84211
7348.51962,0.83967
7346.59088,0.83983
7344.66213,0.84103
7342.73338,0.83978
7340.80464,0.83694
7338.87589,0.83732
7336.94715,0.83994
7335.01840,0.83928
7333.08966,0.83698
7331.16091,0.83567
7329.23217,0.83410
7327.30342,0.83348
7325.37468,0.83488
7323.44593,0.83746
7321.51719,0.84075
7319.58844,0.84145
7317.65970,0.83751
7315.73095,0.83336
7313.80221,0.83086
7311.87346,0.82779
7309.94471,0.82466
7308.01597,0.82164
7306.08722,0.82026
7304.15848,0.82311
7302.22973,0.82835
7300.30099,0.83265
7298.37224,0.83230
7296.44350,0.82867
7294.51475,0.82820
7292.58601,0.82994
7290.65726,0.83086
7288.72852,0.83285
7286.79977,0.83442
7284.87103,0.83314
7282.94228,0.83148
7281.01353,0.83226
7279.08479,0.83610
7277.15604,0.83949
7275.22730,0.83691
7273.29855,0.82945
7271.36981,0.82418
7269.44106,0.82583
7267.51232,0.83049
7265.58357,0.83216
7263.65483,0.83252
7261.72608,0.83462
7259.79734,0.83733
7257.86859,0.83618
7255.93985,0.82889
7254.01110,0.82282
7252.08236,0.82519
7250.15361,0.83171
7248.22486,0.83446
7246.29612,0.83348
7244.36737,0.83196
7242.43863,0.83093
7240.50988,0.83083
7238.58114,0.82897
7236.65239,0.82525
7234.72365,0.82296
7232.79490,0.82123
7230.86616,0.81988
7228.93741,0.81909
7227.00867,0.81851
7225.07992,0.82081
7223.15118,0.82419
7221.22243,0.82537
7219.29369,0.82647
7217.36494,0.82770
7215.43619,0.82680
7213.50745,0.82516
7211.57870,0.82473
7209.64996,0.82435
7207.72121,0.82311
7205.79247,0.82153
7203.86372,0.82040
7201.93498,0.81967
7200.00623,0.81761
7198.07749,0.81408
7196.14874,0.81191
7194.22000,0.81257
7192.29125,0.81352
7190.36251,0.81362
7188.43376,0.81417
7186.50501,0.81315
7184.57627,0.81006
7182.64752,0.80851
7180.71878,0.80950
7178.79003,0.81137
7176.86129,0.81292
7174.93254,0.81448
7173.00380,0.81537
7171.07505,0.81278
7169.14631,0.80800
7167.21756,0.80574
7165.28882,0.80677
7163.36007,0.80888
7161.43133,0.81067
7159.50258,0.81181
7157.57384,0.81137
7155.64509,0.80813
7153.71634,0.80500
7151.78760,0.80499
7149.85885,0.80561
7147.93011,0.80341
7146.00136,0.79968
7144.07262,0.79884
7142.14387,0.79997
7140.21513,0.79814
7138.28638,0.79374
7136.35764,0.79101
7134.42889,0.78954
7132.50015,0.78593
7130.57140,0.78410
7128.64266,0.78785
7126.71391,0.79184
7124.78516,0.79246
7122.85642,0.79050
7120.92767,0.78664
7118.99893,0.78359
7117.07018,0.78269
7115.14144,0.78190
7113.21269,0.78070
7111.28395,0.77933
7109.35520,0.77729
7107.42646,0.77552
7105.49771,0.77487
7103.56897,0.77576
7101.64022,0.77743
7099.71148,0.77745
7097.78273,0.77544
7095.85399,0.77223
7093.92524,0.76825
7091.99649,0.76418
7090.06775,0.76040
7088.13900,0.75821
7086.21026,0.75909
7084.28151,0.76090
7082.35277,0.76123
7080.42402,0.76089
7078.49528,0.75992
7076.56653,0.75802
7074.63779,0.75610
7072.70904,0.75482
7070.78030,0.75364
7068.85155,0.75210
7066.92281,0.75065
7064.99406,0.74848
7063.06532,0.74597
7061.13657,0.74428
7059.20782,0.74302
7057.27908,0.74149
7055.35033,0.73917
7053.42159,0.73799
7051.49284,0.73761
7049.56410,0.73447
7047.63535,0.72924
7045.70661,0.72427
7043.77786,0.72107
7041.84912,0.72159
7039.92037,0.72476
7037.99163,0.72527
7036.06288,0.72181
7034.13414,0.71939
7032.20539,0.71961
7030.27664,0.71973
7028.34790,0.71856
7026.41915,0.71711
7024.49041,0.71525
7022.56166,0.71225
7020.63292,0.70942
7018.70417,0.70657
7016.77543,0.70432
7014.84668,0.70570
7012.91794,0.70914
7010.98919,0.70970
7009.06045,0.70723
7007.13170,0.70489
7005.20296,0.70375
7003.27421,0.70389
7001.34547,0.70321
6999.41672,0.69947
6997.48797,0.69682
6995.55923,0.69805
6993.63048,0.69990
6991.70174,0.70071
6989.77299,0.70101
6987.84425,0.69969
6985.91550,0.69692
6983.98676,0.69568
6982.05801,0.69515
6980.12927,0.69309
6978.20052,0.69280
6976.27178,0.69537
6974.34303,0.69757
6972.41429,0.69925
6970.48554,0.70022
6968.55680,0.69885
6966.62805,0.69618
6964.69930,0.69296
6962.77056,0.68946
6960.84181,0.68691
6958.91307,0.68600
6956.98432,0.68745
6955.05558,0.68962
6953.12683,0.68960
6951.19809,0.68909
6949.26934,0.69064
6947.34060,0.69261
6945.41185,0.69243
6943.48311,0.69001
6941.55436,0.68690
6939.62562,0.68496
6937.69687,0.68511
6935.76812,0.68507
6933.83938,0.68296
6931.91063,0.68248
6929.98189,0.68612
6928.05314,0.68927
6926.12440,0.68845
6924.19565,0.68701
6922.26691,0.68758
6920.33816,0.68804
6918.40942,0.68747
6916.48067,0.68837
6914.55193,0.69009
6912.62318,0.68928
6910.69444,0.68727
6908.76569,0.68666
6906.83695,0.68636
6904.90820,0.68519
6902.97945,0.68403
6901.05071,0.68455
6899.12196,0.68712
6897.19322,0.68992
6895.26447,0.69086
6893.33573,0.68921
6891.40698,0.68703
6889.47824,0.68701
6887.54949,0.68918
6885.62075,0.69238
6883.69200,0.69476
6881.76326,0.69483
6879.83451,0.69327
6877.90577,0.69092
6875.97702,0.68875
6874.04828,0.68725
6872.11953,0.68591
6870.19078,0.68615
6868.26204,0.68878
6866.33329,0.69103
6864.40455,0.69016
6862.47580,0.68599
6860.54706,0.68171
6858.61831,0.68104
6856.68957,0.68251
6854.76082,0.68303
6852.83208,0.68366
6850.90333,0.68525
6848.97459,0.68558
6847.04584,0.68458
6845.11710,0.68483
6843.18835,0.68662
6841.25960,0.68894
6839.33086,0.69078
6837.40211,0.69056
6835.47337,0.68970
6833.54462,0.68921
6831.61588,0.68693
6829.68713,0.68426
6827.75839,0.68424
6825.82964,0.68655
6823.90090,0.68918
6821.97215,0.68932
6820.04341,0.68645
6818.11466,0.68356
6816.18592,0.68244
6814.25717,0.68121
6812.32843,0.67969
6810.39968,0.68098
6808.47093,0.68418
6806.54219,0.68654
6804.61344,0.68752
6802.68470,0.68585
6800.75595,0.68295
6798.82721,0.68214
6796.89846,0.68236
6794.96972,0.68252
6793.04097,0.68405
6791.11223,0.68524
6789.18348,0.68369
6787.25474,0.68305
6785.32599,0.68562
6783.39725,0.68738
6781.46850,0.68708
6779.53975,0.68727
6777.61101,0.68743
6775.68226,0.68617
6773.75352,0.68500
6771.82477,0.68494
6769.89603,0.68484
6767.96728,0.68446
6766.03854,0.68414
6764.10979,0.68358
6762.18105,0.68340
6760.25230,0.68418
6758.32356,0.68569
6756.39481,0.68764
6754.46607,0.68877
6752.53732,0.68851
6750.60858,0.68865
6748.67983,0.68929
6746.75108,0.68853
6744.82234,0.68723
6742.89359,0.68639
6740.96485,0.68558
6739.03610,0.68628
6737.10736,0.68781
6735.17861,0.68750
6733.24987,0.68715
6731.32112,0.68831
6729.39238,0.68873
6727.46363,0.68839
6725.53489,0.68944
6723.60614,0.69136
6721.67740,0.69146
6719.74865,0.68886
6717.81991,0.68651
6715.89116,0.68714
6713.96241,0.68861
6712.03367,0.68858
6710.10492,0.68869
6708.17618,0.69040
6706.24743,0.69224
6704.31869,0.69164
6702.38994,0.68937
6700.46120,0.68933
6698.53245,0.69182
6696.60371,0.69334
6694.67496,0.69286
6692.74622,0.69223
6690.81747,0.69209
6688.88873,0.69243
6686.95998,0.69351
6685.03123,0.69461
6683.10249,0.69587
6681.17374,0.69723
6679.24500,0.69681
6677.31625,0.69452
6675.38751,0.69259
6673.45876,0.69238
6671.53002,0.69296
6669.60127,0.69381
6667.67253,0.69567
6665.74378,0.69727
6663.81504,0.69692
6661.88629,0.69519
6659.95755,0.69358
6658.02880,0.69330
6656.10006,0.69433
6654.17131,0.69511
6652.24256,0.69497
6650.31382,0.69549
6648.38507,0.69669
6646.45633,0.69677
6644.52758,0.69599
6642.59884,0.69537
6640.67009,0.69565
6638.74135,0.69695
6636.81260,0.69794
6634.88386,0.69763
6632.95511,0.69587
6631.02637,0.69452
6629.09762,0.69636
6627.16888,0.70050
6625.24013,0.70347
6623.31139,0.70308
6621.38264,0.70059
6619.45389,0.69960
6617.52515,0.70085
6615.59640,0.70154
6613.66766,0.70089
6611.73891,0.70167
6609.81017,0.70400
6607.88142,0.70402
6605.95268,0.70166
6604.02393,0.70073
6602.09519,0.70179
6600.16644,0.70236
6598.23770,0.70154
6596.30895,0.70129
6594.38021,0.70283
6592.45146,0.70419
6590.52271,0.70425
6588.59397,0.70450
6586.66522,0.70621
6584.73648,0.70782
6582.80773,0.70656
6580.87899,0.70406
6578.95024,0.70368
6577.02150,0.70545
6575.09275,0.70755
6573.16401,0.70696
6571.23526,0.70463
6569.30652,0.70535
6567.37777,0.70852
6565.44903,0.70923
6563.52028,0.70726
6561.59154,0.70745
6559.66279,0.71121
6557.73404,0.71402
6555.80530,0.71344
6553.87655,0.71224
6551.94781,0.71226
6550.01906,0.71208
6548.09032,0.71145
6546.16157,0.71144
6544.23283,0.71212
6542.30408,0.71332
6540.37534,0.71338
6538.44659,0.71111
6536.51785,0.70963
6534.58910,0.71057
6532.66036,0.71060
6530.73161,0.70913
6528.80287,0.70929
6526.87412,0.71135
6524.94537,0.71186
6523.01663,0.71002
6521.08788,0.70976
6519.15914,0.71252
6517.23039,0.71593
6515.30165,0.71798
6513.37290,0.71784
6511.44416,0.71650
6509.51541,0.71546
6507.58667,0.71570
6505.65792,0.71647
6503.72918,0.71611
6501.80043,0.71537
6499.87169,0.71469
6497.94294,0.71325
6496.01419,0.71247
6494.08545,0.71299
6492.15670,0.71330
6490.22796,0.71386
6488.29921,0.71465
6486.37047,0.71421
6484.44172,0.71388
6482.51298,0.71421
6480.58423,0.71356
6478.65549,0.71258
6476.72674,0.71248
6474.79800,0.71259
6472.86925,0.71324
6470.94051,0.71497
6469.01176,0.71597
6467.08302,0.71681
6465.15427,0.71946
6463.22552,0.72121
6461.29678,0.72022
6459.36803,0.71828
6457.43929,0.71694
6455.51054,0.71767
6453.58180,0.71872
6451.65305,0.71670
6449.72431,0.71430
6447.79556,0.71464
6445.86682,0.71575
6443.93807,0.71630
6442.00933,0.71785
6440.08058,0.72013
6438.15184,0.71941
6436.22309,0.71598
6434.29434,0.71460
6432.36560,0.71522
6430.43685,0.71554
6428.50811,0.71654
6426.57936,0.71887
6424.65062,0.72096
6422.72187,0.72104
6420.79313,0.71895
6418.86438,0.71772
6416.93564,0.72008
6415.00689,0.72301
6413.07815,0.72263
6411.14940,0.72077
6409.22066,0.72100
6407.29191,0.72247
6405.36317,0.72250
6403.43442,0.72161
6401.50567,0.72089
6399.57693,0.72043
6397.64818,0.72043
6395.71944,0.72062
6393.79069,0.72143
6391.86195,0.72268
6389.93320,0.72267
6388.00446,0.72099
6386.07571,0.71950
6384.14697,0.71976
6382.21822,0.72073
6380.28948,0.72100
6378.36073,0.72159
6376.43199,0.72343
6374.50324,0.72430
6372.57450,0.72360
6370.64575,0.72387
6368.71700,0.72492
6366.78826,0.72589
6364.85951,0.72657
6362.93077,0.72591
6361.00202,0.72402
6359.07328,0.72161
6357.14453,0.72035
6355.21579,0.72138
6353.28704,0.72265
6351.35830,0.72259
6349.42955,0.72252
6347.50081,0.72392
6345.57206,0.72516
6343.64332,0.72376
6341.71457,0.72152
6339.78582,0.72116
6337.85708,0.72175
6335.92833,0.72235
6333.99959,0.72354
6332.07084,0.72530
6330.14210,0.72706
6328.21335,0.72796
6326.28461,0.72808
6324.35586,0.72808
6322.42712,0.72738
6320.49837,0.72638
6318.56963,0.72622
6316.64088,0.72649
6314.71214,0.72658
6312.78339,0.72642
6310.85465,0.72632
6308.92590,0.72577
6306.99715,0.72413
6305.06841,0.72348
6303.13966,0.72557
6301.21092,0.72836
6299.28217,0.72932
6297.35343,0.72892
6295.42468,0.72864
6293.49594,0.72815
6291.56719,0.72728
6289.63845,0.72765
6287.70970,0.72963
6285.78096,0.73085
6283.85221,0.73017
6281.92347,0.72953
6279.99472,0.73029
6278.06598,0.73134
6276.13723,0.73214
6274.20848,0.73322
6272.27974,0.73362
6270.35099,0.73322
6268.42225,0.73385
6266.49350,0.73493
6264.56476,0.73528
6262.63601,0.73555
6260.70727,0.73528
6258.77852,0.73507
6256.84978,0.73670
6254.92103,0.73815
6252.99229,0.73731
6251.06354,0.73650
6249.13480,0.73771
6247.20605,0.73950
6245.27730,0.74007
6243.34856,0.74009
6241.41981,0.74110
6239.49107,0.74225
6237.56232,0.74259
6235.63358,0.74323
6233.70483,0.74355
6231.77609,0.74271
6229.84734,0.74265
6227.91860,0.74407
6225.98985,0.74631
6224.06111,0.74900
6222.13236,0.75005
6220.20362,0.74845
6218.27487,0.74716
6216.34613,0.74792
6214.41738,0.74915
6212.48863,0.75024
6210.55989,0.75129
6208.63114,0.75062
6206.70240,0.74792
6204.77365,0.74651
6202.84491,0.74814
6200.91616,0.75008
6198.98742,0.75050
6197.05867,0.75119
6195.12993,0.75328
6193.20118,0.75434
6191.27244,0.75305
6189.34369,0.75242
6187.41495,0.75404
6185.48620,0.75602
6183.55746,0.75692
6181.62871,0.75657
6179.69996,0.75591
6177.77122,0.75622
6175.84247,0.75706
6173.91373,0.75728
6171.98498,0.75763
6170.05624,0.75897
6168.12749,0.76027
6166.19875,0.76039
6164.27000,0.75991
6162.34126,0.76037
6160.41251,0.76140
6158.48377,0.76192
6156.55502,0.76169
6154.62628,0.76062
6152.69753,0.76072
6150.76878,0.76235
6148.84004,0.76235
6146.91129,0.76107
6144.98255,0.76109
6143.05380,0.76177
6141.12506,0.76166
6139.19631,0.76073
6137.26757,0.76000
6135.33882,0.76060
6133.41008,0.76189
6131.48133,0.76290
6129.55259,0.76307
6127.62384,0.76153
6125.69510,0.76016
6123.76635,0.76113
6121.83761,0.76364
6119.90886,0.76697
6117.98011,0.76976
6116.05137,0.76957
6114.12262,0.76729
6112.19388,0.76597
6110.26513,0.76618
6108.33639,0.76685
6106.40764,0.76762
6104.47890,0.76777
6102.55015,0.76696
6100.62141,0.76651
6098.69266,0.76646
6096.76392,0.76627
6094.83517,0.76737
6092.90643,0.76937
6090.97768,0.76932
6089.04893,0.76698
6087.12019,0.76527
6085.19144,0.76510
6083.26270,0.76484
6081.33395,0.76491
6079.40521,0.76619
6077.47646,0.76732
6075.54772,0.76785
6073.61897,0.76816
6071.69023,0.76715
6069.76148,0.76440
6067.83274,0.76220
6065.90399,0.76189
6063.97525,0.76191
6062.04650,0.76180
6060.11776,0.76279
6058.18901,0.76476
6056.26026,0.76603
6054.33152,0.76564
6052.40277,0.76394
6050.47403,0.76155
6048.54528,0.76025
6046.61654,0.76136
6044.68779,0.76350
6042.75905,0.76468
6040.83030,0.76411
6038.90156,0.76246
6036.97281,0.76136
6035.04407,0.76089
6033.11532,0.75989
6031.18658,0.75874
6029.25783,0.75798
6027.32909,0.75710
6025.40034,0.75662
6023.47159,0.75732
6021.54285,0.75815
6019.61410,0.75792
6017.68536,0.75703
6015.75661,0.75563
6013.82787,0.75334
6011.89912,0.75164
6009.97038,0.75165
6008.04163,0.75109
6006.11289,0.74915
6004.18414,0.74842
6002.25540,0.74853
6000.32665,0.74742
5998.39791,0.74609
5996.46916,0.74527
5994.54041,0.74448
5992.61167,0.74432
5990.68292,0.74495
5988.75418,0.74538
5986.82543,0.74525
5984.89669,0.74522
5982.96794,0.74539
5981.03920,0.74589
5979.11045,0.74670
5977.18171,0.74597
5975.25296,0.74361
5973.32422,0.74207
5971.39547,0.74126
5969.46673,0.74006
5967.53798,0.73982
5965.60924,0.74161
5963.68049,0.74403
5961.75174,0.74491
5959.82300,0.74438
5957.89425,0.74395
5955.96551,0.74317
5954.03676,0.74132
5952.10802,0.73966
5950.17927,0.73924
5948.25053,0.74028
5946.32178,0.74237
5944.39304,0.74402
5942.46429,0.74461
5940.53555,0.74494
5938.60680,0.74486
5936.67806,0.74428
5934.74931,0.74411
5932.82057,0.74434
5930.89182,0.74469
5928.96307,0.74491
5927.03433,0.74432
5925.10558,0.74305
5923.17684,0.74157
5921.24809,0.74061
5919.31935,0.74110
5917.39060,0.74223
5915.46186,0.74212
5913.53311,0.74066
5911.60437,0.73934
5909.67562,0.73901
5907.74688,0.73915
5905.81813,0.73868
5903.88939,0.73785
5901.96064,0.73774
5900.03189,0.73752
5898.10315,0.73637
5896.17440,0.73571
5894.24566,0.73626
5892.31691,0.73665
5890.38817,0.73616
5888.45942,0.73577
5886.53068,0.73644
5884.60193,0.73779
5882.67319,0.73852
5880.74444,0.73823
5878.81570,0.73707
5876.88695,0.73518
5874.95821,0.73412
5873.02946,0.73471
5871.10072,0.73563
5869.17197,0.73598
5867.24322,0.73572
5865.31448,0.73520
5863.38573,0.73529
5861.45699,0.73609
5859.52824,0.73680
5857.59950,0.73672
5855.67075,0.73540
5853.74201,0.73377
5851.81326,0.73371
5849.88452,0.73473
5847.95577,0.73526
5846.02703,0.73580
5844.09828,0.73659
5842.16954,0.73679
5840.24079,0.73707
5838.31205,0.73781
5836.38330,0.73777
5834.45455,0.73652
5832.52581,0.73496
5830.59706,0.73414
5828.66832,0.73432
5826.73957,0.73502
5824.81083,0.73525
5822.88208,0.73453
5820.95334,0.73405
5819.02459,0.73438
5817.09585,0.73479
5815.16710,0.73445
5813.23836,0.73278
5811.30961,0.73167
5809.38087,0.73291
5807.45212,0.73434
5805.52337,0.73406
5803.59463,0.73314
5801.66588,0.73271
5799.73714,0.73269
5797.80839,0.73276
5795.87965,0.73288
5793.95090,0.73286
5792.02216,0.73253
5790.09341,0.73221
5788.16467,0.73184
5786.23592,0.73153
5784.30718,0.73243
5782.37843,0.73437
5780.44969,0.73549
5778.52094,0.73534
5776.59220,0.73466
5774.66345,0.73365
5772.73470,0.73275
5770.80596,0.73317
5768.87721,0.73495
5766.94847,0.73614
5765.01972,0.73558
5763.09098,0.73470
5761.16223,0.73481
5759.23349,0.73575
5757.30474,0.73739
5755.37600,0.73906
5753.44725,0.73938
5751.51851,0.73799
5749.58976,0.73624
5747.66102,0.73583
5745.73227,0.73660
5743.80352,0.73686
5741.87478,0.73645
5739.94603,0.73671
5738.01729,0.73742
5736.08854,0.73753
5734.15980,0.73746
5732.23105,0.73759
5730.30231,0.73760
5728.37356,0.73760
5726.44482,0.73777
5724.51607,0.73811
5722.58733,0.73852
5720.65858,0.73821
5718.72984,0.73710
5716.80109,0.73692
5714.87235,0.73801
5712.94360,0.73895
5711.01485,0.73915
5709.08611,0.73835
5707.15736,0.73658
5705.22862,0.73522
5703.29987,0.73530
5701.37113,0.73622
5699.44238,0.73708
5697.51364,0.73770
5695.58489,0.73795
5693.65615,0.73795
5691.72740,0.73841
5689.79866,0.73896
5687.86991,0.73838
5685.94117,0.73686
5684.01242,0.73555
5682.08368,0.73537
5680.15493,0.73622
5678.22618,0.73699
5676.29744,0.73707
5674.36869,0.73644
5672.43995,0.73570
5670.51120,0.73578
5668.58246,0.73614
5666.65371,0.73603
5664.72497,0.73600
5662.79622,0.73618
5660.86748,0.73626
5658.93873,0.73598
5657.00999,0.73514
5655.08124,0.73484
5653.15250,0.73576
5651.22375,0.73647
5649.29500,0.73646
5647.36626,0.73687
5645.43751,0.73775
5643.50877,0.73786
5641.58002,0.73681
5639.65128,0.73575
5637.72253,0.73555
5635.79379,0.73560
5633.86504,0.73521
5631.93630,0.73505
5630.00755,0.73551
5628.07881,0.73586
5626.15006,0.73594
5624.22132,0.73598
5622.29257,0.73607
5620.36383,0.73632
5618.43508,0.73643
5616.50633,0.73600
5614.57759,0.73520
5612.64884,0.73464
5610.72010,0.73452
5608.79135,0.73430
5606.86261,0.73433
5604.93386,0.73543
5603.00512,0.73674
5601.07637,0.73713
5599.14763,0.73709
5597.21888,0.73728
5595.29014,0.73749
5593.36139,0.73728
5591.43265,0.73695
5589.50390,0.73695
5587.57516,0.73683
5585.64641,0.73633
5583.71766,0.73622
5581.78892,0.73683
5579.86017,0.73761
5577.93143,0.73874
5576.00268,0.74000
5574.07394,0.73998
5572.14519,0.73859
5570.21645,0.73750
5568.28770,0.73749
5566.35896,0.73791
5564.43021,0.73814
5562.50147,0.73816
5560.57272,0.73848
5558.64398,0.73931
5556.71523,0.73988
5554.78648,0.74025
5552.85774,0.74101
5550.92899,0.74121
5549.00025,0.74034
5547.07150,0.73970
5545.14276,0.74010
5543.21401,0.74126
5541.28527,0.74287
5539.35652,0.74418
5537.42778,0.74427
5535.49903,0.74320
5533.57029,0.74161
5531.64154,0.74045
5529.71280,0.74051
5527.78405,0.74152
5525.85531,0.74272
5523.92656,0.74332
5521.99781,0.74334
5520.06907,0.74348
5518.14032,0.74375
5516.21158,0.74424
5514.28283,0.74481
5512.35409,0.74465
5510.42534,0.74412
5508.49660,0.74421
5506.56785,0.74463
5504.63911,0.74470
5502.71036,0.74440
5500.78162,0.74383
5498.85287,0.74331
5496.92413,0.74363
5494.99538,0.74459
5493.06664,0.74507
5491.13789,0.74476
5489.20914,0.74403
5487.28040,0.74367
5485.35165,0.74433
5483.42291,0.74525
5481.49416,0.74575
5479.56542,0.74595
5477.63667,0.74571
5475.70793,0.74532
5473.77918,0.74534
5471.85044,0.74574
5469.92169,0.74618
5467.99295,0.74593
5466.06420,0.74497
5464.13546,0.74469
5462.20671,0.74573
5460.27796,0.74676
5458.34922,0.74684
5456.42047,0.74678
5454.49173,0.74725
5452.56298,0.74834
5450.63424,0.74960
5448.70549,0.74979
5446.77675,0.74885
5444.84800,0.74831
5442.91926,0.74880
5440.99051,0.74963
5439.06177,0.75044
5437.13302,0.75138
5435.20428,0.75174
5433.27553,0.75143
5431.34679,0.75187
5429.41804,0.75283
5427.48929,0.75311
5425.56055,0.75371
5423.63180,0.75533
5421.70306,0.75617
5419.77431,0.75527
5417.84557,0.75402
5415.91682,0.75369
5413.98808,0.75404
5412.05933,0.75428
5410.13059,0.75452
5408.20184,0.75527
5406.27310,0.75579
5404.34435,0.75577
5402.41561,0.75602
5400.48686,0.75653
5398.55811,0.75692
5396.62937,0.75731
5394.70062,0.75741
5392.77188,0.75691
5390.84313,0.75644
5388.91439,0.75608
5386.98564,0.75518
5385.05690,0.75450
5383.12815,0.75517
5381.19941,0.75646
5379.27066,0.75713
5377.34192,0.75717
5375.41317,0.75693
5373.48443,0.75641
5371.55568,0.75613
5369.62694,0.75629
5367.69819,0.75612
5365.76944,0.75583
5363.84070,0.75613
5361.91195,0.75637
5359.98321,0.75594
5358.05446,0.75542
5356.12572,0.75525
5354.19697,0.75476
5352.26823,0.75346
5350.33948,0.75257
5348.41074,0.75294
5346.48199,0.75326
5344.55325,0.75275
5342.62450,0.75252
5340.69576,0.75281
5338.76701,0.75268
5336.83827,0.75210
5334.90952,0.75171
5332.98077,0.75138
5331.05203,0.75047
5329.12328,0.74891
5327.19454,0.74732
5325.26579,0.74616
5323.33705,0.74534
5321.40830,0.74458
5319.47956,0.74340
5317.55081,0.74177
5315.62207,0.74041
5313.69332,0.73952
5311.76458,0.73839
5309.83583,0.73643
5307.90709,0.73372
5305.97834,0.73134
5304.04959,0.73017
5302.12085,0.72907
5300.19210,0.72675
5298.26336,0.72389
5296.33461,0.72159
5294.40587,0.71970
5292.47712,0.71757
5290.54838,0.71534
5288.61963,0.71307
5286.69089,0.71050
5284.76214,0.70806
5282.83340,0.70557
5280.90465,0.70234
5278.97591,0.69889
5277.04716,0.69579
5275.11842,0.69253
5273.18967,0.68845
5271.26092,0.68388
5269.33218,0.68025
5267.40343,0.67789
5265.47469,0.67531
5263.54594,0.67179
5261.61720,0.66784
5259.68845,0.66413
5257.75971,0.66101
5255.83096,0.65803
5253.90222,0.65497
5251.97347,0.65238
5250.04473,0.65004
5248.11598,0.64725
5246.18724,0.64429
5244.25849,0.64150
5242.32975,0.63868
5240.40100,0.63603
5238.47225,0.63375
5236.54351,0.63183
5234.61476,0.63039
5232.68602,0.62902
5230.75727,0.62723
5228.82853,0.62562
5226.89978,0.62474
5224.97104,0.62380
5223.04229,0.62219
5221.11355,0.62028
5219.18480,0.61849
5217.25606,0.61721
5215.32731,0.61660
5213.39857,0.61640
5211.46982,0.61615
5209.54107,0.61534
5207.61233,0.61445
5205.68358,0.61419
5203.75484,0.61401
5201.82609,0.61304
5199.89735,0.61143
5197.96860,0.61059
5196.03986,0.61124
5194.11111,0.61212
5192.18237,0.61206
5190.25362,0.61150
5188.32488,0.61136
5186.39613,0.61178
5184.46739,0.61257
5182.53864,0.61349
5180.60990,0.61410
5178.68115,0.61436
5176.75240,0.61438
5174.82366,0.61425
5172.89491,0.61435
5170.96617,0.61504
5169.03742,0.61622
5167.10868,0.61733
5165.17993,0.61780
5163.25119,0.61792
5161.32244,0.61865
5159.39370,0.61986
5157.46495,0.62077
5155.53621,0.62149
5153.60746,0.62243
5151.67872,0.62372
5149.74997,0.62534
5147.82123,0.62662
5145.89248,0.62685
5143.96373,0.62665
5142.03499,0.62702
5140.10624,0.62808
5138.17750,0.62953
5136.24875,0.63103
5134.32001,0.63214
5132.39126,0.63278
5130.46252,0.63298
5128.53377,0.63297
5126.60503,0.63356
5124.67628,0.63478
5122.74754,0.63582
5120.81879,0.63688
5118.89005,0.63839
5116.96130,0.63979
5115.03255,0.64079
5113.10381,0.64181
5111.17506,0.64312
5109.24632,0.64447
5107.31757,0.64514
5105.38883,0.64497
5103.46008,0.64506
5101.53134,0.64615
5099.60259,0.64793
5097.67385,0.64969
5095.74510,0.65051
5093.81636,0.65046
5091.88761,0.65060
5089.95887,0.65158
5088.03012,0.65304
5086.10138,0.65409
5084.17263,0.65473
5082.24388,0.65556
5080.31514,0.65652
5078.38639,0.65736
5076.45765,0.65815
5074.52890,0.65881
5072.60016,0.65944
5070.67141,0.66039
5068.74267,0.66152
5066.81392,0.66234
5064.88518,0.66293
5062.95643,0.66368
5061.02769,0.66466
5059.09894,0.66567
5057.17020,0.66662
5055.24145,0.66753
5053.31270,0.66800
5051.38396,0.66795
5049.45521,0.66827
5047.52647,0.66947
5045.59772,0.67077
5043.66898,0.67153
5041.74023,0.67186
5039.81149,0.67197
5037.88274,0.67217
5035.95400,0.67245
5034.02525,0.67257
5032.09651,0.67309
5030.16776,0.67421
5028.23902,0.67531
5026.31027,0.67638
5024.38153,0.67740
5022.45278,0.67774
5020.52403,0.67744
5018.59529,0.67715
5016.66654,0.67692
5014.73780,0.67655
5012.80905,0.67633
5010.88031,0.67685
5008.95156,0.67793
5007.02282,0.67849
5005.09407,0.67838
5003.16533,0.67844
5001.23658,0.67867
4999.30784,0.67866
4997.37909,0.67852
4995.45035,0.67841
4993.52160,0.67854
4991.59286,0.67912
4989.66411,0.67954
4987.73536,0.67941
4985.80662,0.67904
4983.87787,0.67832
4981.94913,0.67719
4980.02038,0.67622
4978.09164,0.67582
4976.16289,0.67566
4974.23415,0.67521
4972.30540,0.67441
4970.37666,0.67345
4968.44791,0.67246
4966.51917,0.67151
4964.59042,0.67058
4962.66168,0.66925
4960.73293,0.66757
4958.80418,0.66621
4956.87544,0.66533
4954.94669,0.66447
4953.01795,0.66329
4951.08920,0.66195
4949.16046,0.66095
4947.23171,0.66010
4945.30297,0.65884
4943.37422,0.65716
4941.44548,0.65539
4939.51673,0.65376
4937.58799,0.65242
4935.65924,0.65114
4933.73050,0.64972
4931.80175,0.64828
4929.87301,0.64685
4927.94426,0.64532
4926.01551,0.64352
4924.08677,0.64164
4922.15802,0.64001
4920.22928,0.63832
4918.30053,0.63634
4916.37179,0.63437
4914.44304,0.63292
4912.51430,0.63190
4910.58555,0.63031
4908.65681,0.62822
4906.72806,0.62662
4904.79932,0.62549
4902.87057,0.62423
4900.94183,0.62281
4899.01308,0.62134
4897.08434,0.61936
4895.15559,0.61686
4893.22684,0.61460
4891.29810,0.61293
4889.36935,0.61168
4887.44061,0.61060
4885.51186,0.60953
4883.58312,0.60818
4881.65437,0.60638
4879.72563,0.60454
4877.79688,0.60330
4875.86814,0.60269
4873.93939,0.60192
4872.01065,0.60053
4870.08190,0.59854
4868.15316,0.59626
4866.22441,0.59434
4864.29566,0.59309
4862.36692,0.59220
4860.43817,0.59115
4858.50943,0.58975
4856.58068,0.58841
4854.65194,0.58729
4852.72319,0.58607
4850.79445,0.58494
4848.86570,0.58411
4846.93696,0.58316
4845.00821,0.58200
4843.07947,0.58096
4841.15072,0.57980
4839.22198,0.57827
4837.29323,0.57706
4835.36449,0.57625
4833.43574,0.57486
4831.50699,0.57305
4829.57825,0.57172
4827.64950,0.57095
4825.72076,0.57052
4823.79201,0.57010
4821.86327,0.56937
4819.93452,0.56846
4818.00578,0.56767
4816.07703,0.56694
4814.14829,0.56605
4812.21954,0.56492
4810.29080,0.56393
4808.36205,0.56337
4806.43331,0.56301
4804.50456,0.56263
4802.57582,0.56209
4800.64707,0.56151
4798.71832,0.56130
4796.78958,0.56126
4794.86083,0.56095
4792.93209,0.56047
4791.00334,0.55993
4789.07460,0.55913
4787.14585,0.55823
4785.21711,0.55787
4783.28836,0.55809
4781.35962,0.55816
4779.43087,0.55769
4777.50213,0.55705
4775.57338,0.55663
4773.64464,0.55641
4771.71589,0.55639
4769.78714,0.55648
4767.85840,0.55635
4765.92965,0.55590
4764.00091,0.55553
4762.07216,0.55567
4760.14342,0.55615
4758.21467,0.55653
4756.28593,0.55680
4754.35718,0.55693
4752.42844,0.55674
4750.49969,0.55623
4748.57095,0.55550
4746.64220,0.55483
4744.71346,0.55483
4742.78471,0.55564
4740.85597,0.55652
4738.92722,0.55686
4736.99847,0.55677
4735.06973,0.55674
4733.14098,0.55696
4731.21224,0.55742
4729.28349,0.55804
4727.35475,0.55853
4725.42600,0.55866
4723.49726,0.55861
4721.56851,0.55872
4719.63977,0.55905
4717.71102,0.55942
4715.78228,0.55961
4713.85353,0.55950
4711.92479,0.55962
4709.99604,0.56037
4708.06729,0.56102
4706.13855,0.56088
4704.20980,0.56033
4702.28106,0.56026
4700.35231,0.56065
4698.42357,0.56070
4696.49482,0.56055
4694.56608,0.56095
4692.63733,0.56160
4690.70859,0.56195
4688.77984,0.56233
4686.85110,0.56264
4684.92235,0.56237
4682.99361,0.56218
4681.06486,0.56270
4679.13612,0.56337
4677.20737,0.56370
4675.27862,0.56380
4673.34988,0.56408
4671.42113,0.56472
4669.49239,0.56557
4667.56364,0.56635
4665.63490,0.56705
4663.70615,0.56783
4661.77741,0.56890
4659.84866,0.57006
4657.91992,0.57088
4655.99117,0.57139
4654.06243,0.57188
4652.13368,0.57253
4650.20494,0.57326
4648.27619,0.57374
4646.34745,0.57390
4644.41870,0.57428
4642.48995,0.57543
4640.56121,0.57672
4638.63246,0.57727
4636.70372,0.57738
4634.77497,0.57758
4632.84623,0.57807
4630.91748,0.57917
4628.98874,0.58078
4627.05999,0.58228
4625.13125,0.58338
4623.20250,0.58438
4621.27376,0.58545
4619.34501,0.58635
4617.41627,0.58722
4615.48752,0.58855
4613.55877,0.58990
4611.63003,0.59059
4609.70128,0.59110
4607.77254,0.59188
4605.84379,0.59285
4603.91505,0.59411
4601.98630,0.59556
4600.05756,0.59685
4598.12881,0.59789
4596.20007,0.59868
4594.27132,0.59913
4592.34258,0.59935
4590.41383,0.59978
4588.48509,0.60049
4586.55634,0.60107
4584.62760,0.60168
4582.69885,0.60271
4580.77010,0.60378
4578.84136,0.60449
4576.91261,0.60494
4574.98387,0.60532
4573.05512,0.60594
4571.12638,0.60700
4569.19763,0.60799
4567.26889,0.60840
4565.34014,0.60855
4563.41140,0.60888
4561.48265,0.60936
4559.55391,0.60972
4557.62516,0.60981
4555.69642,0.61022
4553.76767,0.61123
4551.83893,0.61202
4549.91018,0.61216
4547.98143,0.61216
4546.05269,0.61240
4544.12394,0.61268
4542.19520,0.61280
4540.26645,0.61295
4538.33771,0.61331
4536.40896,0.61391
4534.48022,0.61478
4532.55147,0.61556
4530.62273,0.61560
4528.69398,0.61511
4526.76524,0.61498
4524.83649,0.61532
4522.90775,0.61564
4520.97900,0.61575
4519.05025,0.61559
4517.12151,0.61540
4515.19276,0.61531
4513.26402,0.61499
4511.33527,0.61455
4509.40653,0.61413
4507.47778,0.61352
4505.54904,0.61293
4503.62029,0.61251
4501.69155,0.61199
4499.76280,0.61156
4497.83406,0.61144
4495.90531,0.61123
4493.97657,0.61074
4492.04782,0.60983
4490.11908,0.60843
4488.19033,0.60676
4486.26158,0.60495
4484.33284,0.60315
4482.40409,0.60162
4480.47535,0.60018
4478.54660,0.59859
4476.61786,0.59680
4474.68911,0.59470
4472.76037,0.59237
4470.83162,0.59017
4468.90288,0.58806
4466.97413,0.58600
4465.04539,0.58427
4463.11664,0.58252
4461.18790,0.58012
4459.25915,0.57744
4457.33041,0.57527
4455.40166,0.57369
4453.47291,0.57205
4451.54417,0.57004
4449.61542,0.56790
4447.68668,0.56566
4445.75793,0.56309
4443.82919,0.56046
4441.90044,0.55816
4439.97170,0.55606
4438.04295,0.55396
4436.11421,0.55186
4434.18546,0.54968
4432.25672,0.54745
4430.32797,0.54532
4428.39923,0.54308
4426.47048,0.54045
4424.54173,0.53774
4422.61299,0.53542
4420.68424,0.53341
4418.75550,0.53132
4416.82675,0.52906
4414.89801,0.52699
4412.96926,0.52509
4411.04052,0.52296
4409.11177,0.52088
4407.18303,0.51930
4405.25428,0.51823
4403.32554,0.51757
4401.39679,0.51710
4399.46805,0.51680
4397.53930,0.51694
4395.61056,0.51733
4393.68181,0.51770
4391.75306,0.51794
4389.82432,0.51794
4387.89557,0.51813
4385.96683,0.51887
4384.03808,0.51982
4382.10934,0.52059
4380.18059,0.52124
4378.25185,0.52196
4376.32310,0.52289
4374.39436,0.52386
4372.46561,0.52471
4370.53687,0.52567
4368.60812,0.52655
4366.67938,0.52707
4364.75063,0.52748
4362.82189,0.52785
4360.89314,0.52801
4358.96439,0.52825
4357.03565,0.52863
4355.10690,0.52879
4353.17816,0.52869
4351.24941,0.52880
4349.32067,0.52906
4347.39192,0.52891
4345.46318,0.52850
4343.53443,0.52830
4341.60569,0.52832
4339.67694,0.52832
4337.74820,0.52799
4335.81945,0.52734
4333.89071,0.52657
4331.96196,0.52568
4330.03321,0.52478
4328.10447,0.52403
4326.17572,0.52354
4324.24698,0.52332
4322.31823,0.52307
4320.38949,0.52262
4318.46074,0.52201
4316.53200,0.52135
4314.60325,0.52073
4312.67451,0.51999
4310.74576,0.51917
4308.81702,0.51853
4306.88827,0.51780
4304.95953,0.51672
4303.03078,0.51569
4301.10204,0.51506
4299.17329,0.51472
4297.24454,0.51418
4295.31580,0.51336
4293.38705,0.51277
4291.45831,0.51242
4289.52956,0.51187
4287.60082,0.51125
4285.67207,0.51096
4283.74333,0.51083
4281.81458,0.51058
4279.88584,0.51023
4277.95709,0.50988
4276.02835,0.50983
4274.09960,0.51030
4272.17086,0.51091
4270.24211,0.51119
4268.31336,0.51140
4266.38462,0.51186
4264.45587,0.51249
4262.52713,0.51299
4260.59838,0.51329
4258.66964,0.51370
4256.74089,0.51446
4254.81215,0.51544
4252.88340,0.51626
4250.95466,0.51669
4249.02591,0.51683
4247.09717,0.51685
4245.16842,0.51686
4243.23968,0.51691
4241.31093,0.51704
4239.38219,0.51725
4237.45344,0.51746
4235.52469,0.51758
4233.59595,0.51759
4231.66720,0.51770
4229.73846,0.51801
4227.80971,0.51822
4225.88097,0.51808
4223.95222,0.51791
4222.02348,0.51801
4220.09473,0.51804
4218.16599,0.51779
4216.23724,0.51762
4214.30850,0.51758
4212.37975,0.51746
4210.45101,0.51759
4208.52226,0.51819
4206.59352,0.51881
4204.66477,0.51906
4202.73602,0.51913
4200.80728,0.51937
4198.87853,0.51989
4196.94979,0.52026
4195.02104,0.52004
4193.09230,0.51960
4191.16355,0.51962
4189.23481,0.52004
4187.30606,0.52045
4185.37732,0.52066
4183.44857,0.52087
4181.51983,0.52128
4179.59108,0.52179
4177.66234,0.52237
4175.73359,0.52295
4173.80484,0.52346
4171.87610,0.52394
4169.94735,0.52441
4168.01861,0.52502
4166.08986,0.52567
4164.16112,0.52615
4162.23237,0.52638
4160.30363,0.52620
4158.37488,0.52573
4156.44614,0.52553
4154.51739,0.52551
4152.58865,0.52513
4150.65990,0.52454
4148.73116,0.52413
4146.80241,0.52373
4144.87367,0.52329
4142.94492,0.52289
4141.01617,0.52233
4139.08743,0.52161
4137.15868,0.52081
4135.22994,0.51983
4133.30119,0.51890
4131.37245,0.51803
4129.44370,0.51693
4127.51496,0.51570
4125.58621,0.51438
4123.65747,0.51292
4121.72872,0.51137
4119.79998,0.50980
4117.87123,0.50823
4115.94249,0.50675
4114.01374,0.50562
4112.08500,0.50468
4110.15625,0.50342
4108.22750,0.50195
4106.29876,0.50074
4104.37001,0.49969
4102.44127,0.49827
4100.51252,0.49641
4098.58378,0.49450
4096.65503,0.49283
4094.72629,0.49122
4092.79754,0.48963
4090.86880,0.48802
4088.94005,0.48616
4087.01131,0.48423
4085.08256,0.48246
4083.15382,0.48064
4081.22507,0.47883
4079.29632,0.47718
4077.36758,0.47546
4075.43883,0.47345
4073.51009,0.47143
4071.58134,0.46943
4069.65260,0.46736
4067.72385,0.46543
4065.79511,0.46370
4063.86636,0.46187
4061.93762,0.45996
4060.00887,0.45821
4058.08013,0.45667
4056.15138,0.45502
4054.22264,0.45328
4052.29389,0.45159
4050.36515,0.44977
4048.43640,0.44790
4046.50765,0.44636
4044.57891,0.44508
4042.65016,0.44369
4040.72142,0.44217
4038.79267,0.44063
4036.86393,0.43925
4034.93518,0.43822
4033.00644,0.43750
4031.07769,0.43682
4029.14895,0.43609
4027.22020,0.43528
4025.29146,0.43433
4023.36271,0.43351
4021.43397,0.43294
4019.50522,0.43253
4017.57648,0.43225
4015.64773,0.43203
4013.71898,0.43172
4011.79024,0.43145
4009.86149,0.43131
4007.93275,0.43135
4006.00400,0.43159
4004.07526,0.43194
4002.14651,0.43225
4000.21777,0.43258
3998.28902,0.43290
3996.36028,0.43325
3994.43153,0.43379
3992.50279,0.43451
3990.57404,0.43534
3988.64530,0.43599
3986.71655,0.43622
3984.78780,0.43624
3982.85906,0.43632
3980.93031,0.43662
3979.00157,0.43720
3977.07282,0.43793
3975.14408,0.43874
3973.21533,0.43958
3971.28659,0.44031
3969.35784,0.44096
3967.42910,0.44171
3965.50035,0.44258
3963.57161,0.44351
3961.64286,0.44453
3959.71412,0.44559
3957.78537,0.44659
3955.85663,0.44745
3953.92788,0.44830
3951.99913,0.44920
3950.07039,0.45004
3948.14164,0.45089
3946.21290,0.45192
3944.28415,0.45292
3942.35541,0.45375
3940.42666,0.45457
3938.49792,0.45538
3936.56917,0.45623
3934.64043,0.45734
3932.71168,0.45861
3930.78294,0.45982
3928.85419,0.46102
3926.92545,0.46231
3924.99670,0.46367
3923.06795,0.46478
3921.13921,0.46539
3919.21046,0.46574
3917.28172,0.46622
3915.35297,0.46693
3913.42423,0.46780
3911.49548,0.46866
3909.56674,0.46957
3907.63799,0.47057
3905.70925,0.47152
3903.78050,0.47236
3901.85176,0.47312
3899.92301,0.47371
3897.99427,0.47420
3896.06552,0.47488
3894.13678,0.47588
3892.20803,0.47685
3890.27928,0.47739
3888.35054,0.47782
3886.42179,0.47858
3884.49305,0.47939
3882.56430,0.47999
3880.63556,0.48056
3878.70681,0.48111
3876.77807,0.48160
3874.84932,0.48215
3872.92058,0.48286
3870.99183,0.48378
3869.06309,0.48485
3867.13434,0.48586
3865.20560,0.48688
3863.27685,0.48791
3861.34811,0.48882
3859.41936,0.48967
3857.49061,0.49079
3855.56187,0.49262
3853.63312,0.49458
3851.70438,0.49525
3849.77563,0.49506
3847.84689,0.49538
3845.91814,0.49645
3843.98940,0.49765
3842.06065,0.49849
3840.13191,0.49900
3838.20316,0.49934
3836.27442,0.49966
3834.34567,0.50006
3832.41693,0.50048
3830.48818,0.50082
3828.55943,0.50111
3826.63069,0.50148
3824.70194,0.50188
3822.77320,0.50219
3820.84445,0.50242
3818.91571,0.50245
3816.98696,0.50216
3815.05822,0.50190
3813.12947,0.50187
3811.20073,0.50195
3809.27198,0.50217
3807.34324,0.50237
3805.41449,0.50233
3803.48575,0.50226
3801.55700,0.50219
3799.62826,0.50196
3797.69951,0.50180
3795.77076,0.50160
3793.84202,0.50120
3791.91327,0.50093
3789.98453,0.50095
3788.05578,0.50099
3786.12704,0.50091
3784.19829,0.50074
3782.26955,0.50051
3780.34080,0.50035
3778.41206,0.50017
3776.48331,0.49980
3774.55457,0.49936
3772.62582,0.49907
3770.69708,0.49884
3768.76833,0.49842
3766.83959,0.49778
3764.91084,0.49713
3762.98209,0.49651
3761.05335,0.49590
3759.12460,0.49544
3757.19586,0.49509
3755.26711,0.49454
3753.33837,0.49392
3751.40962,0.49340
3749.48088,0.49266
3747.55213,0.49174
3745.62339,0.49079
3743.69464,0.48964
3741.76590,0.48845
3739.83715,0.48743
3737.90841,0.48632
3735.97966,0.48504
3734.05091,0.48364
3732.12217,0.48218
3730.19342,0.48098
3728.26468,0.47985
3726.33593,0.47829
3724.40719,0.47648
3722.47844,0.47466
3720.54970,0.47268
3718.62095,0.47049
3716.69221,0.46838
3714.76346,0.46647
3712.83472,0.46445
3710.90597,0.46200
3708.97723,0.45909
3707.04848,0.45586
3705.11974,0.45263
3703.19099,0.44959
3701.26224,0.44648
3699.33350,0.44318
3697.40475,0.43959
3695.47601,0.43550
3693.54726,0.43118
3691.61852,0.42702
3689.68977,0.42251
3687.76103,0.41709
3685.83228,0.41129
3683.90354,0.40544
3681.97479,0.39923
3680.04605,0.39277
3678.11730,0.38643
3676.18856,0.37960
3674.25981,0.37219
3672.33107,0.36505
3670.40232,0.35767
3668.47357,0.34995
3666.54483,0.34282
3664.61608,0.33605
3662.68734,0.32908
3660.75859,0.32189
3658.82985,0.31488
3656.90110,0.30805
3654.97236,0.30125
3653.04361,0.29510
3651.11487,0.28955
3649.18612,0.28374
3647.25738,0.27763
3645.32863,0.27166
3643.39989,0.26598
3641.47114,0.26049
3639.54239,0.25523
3637.61365,0.25036
3635.68490,0.24575
3633.75616,0.24113
3631.82741,0.23656
3629.89867,0.23183
3627.96992,0.22674
3626.04118,0.22194
3624.11243,0.21766
3622.18369,0.21328
3620.25494,0.20858
3618.32620,0.20401
3616.39745,0.19990
3614.46871,0.19592
3612.53996,0.19186
3610.61122,0.18788
3608.68247,0.18377
3606.75372,0.17947
3604.82498,0.17540
3602.89623,0.17169
3600.96749,0.16821
3599.03874,0.16468
3597.11000,0.16084
3595.18125,0.15687
3593.25251,0.15307
3591.32376,0.14953
3589.39502,0.14634
3587.46627,0.14345
3585.53753,0.14065
3583.60878,0.13783
3581.68004,0.13504
3579.75129,0.13258
3577.82254,0.13029
3575.89380,0.12769
3573.96505,0.12490
3572.03631,0.12239
3570.10756,0.12023
3568.17882,0.11814
3566.25007,0.11587
3564.32133,0.11372
3562.39258,0.11195
3560.46384,0.11032
3558.53509,0.10860
3556.60635,0.10676
3554.67760,0.10509
3552.74886,0.10373
3550.82011,0.10234
3548.89137,0.10082
3546.96262,0.09938
3545.03387,0.09805
3543.10513,0.09665
3541.17638,0.09521
3539.24764,0.09403
3537.31889,0.09307
3535.39015,0.09192
3533.46140,0.09069
3531.53266,0.08982
3529.60391,0.08922
3527.67517,0.08839
3525.74642,0.08726
3523.81768,0.08618
3521.88893,0.08538
3519.96019,0.08462
3518.03144,0.08364
3516.10270,0.08253
3514.17395,0.08153
3512.24520,0.08069
3510.31646,0.07995
3508.38771,0.07921
3506.45897,0.07854
3504.53022,0.07794
3502.60148,0.07714
3500.67273,0.07634
3498.74399,0.07594
3496.81524,0.07566
3494.88650,0.07515
3492.95775,0.07456
3491.02901,0.07395
3489.10026,0.07311
3487.17152,0.07225
3485.24277,0.07170
3483.31402,0.07130
3481.38528,0.07073
3479.45653,0.07005
3477.52779,0.06965
3475.59904,0.06962
3473.67030,0.06958
3471.74155,0.06925
3469.81281,0.06877
3467.88406,0.06829
3465.95532,0.06785
3464.02657,0.06760
3462.09783,0.06741
3460.16908,0.06715
3458.24034,0.06709
3456.31159,0.06718
3454.38285,0.06700
3452.45410,0.06659
3450.52535,0.06636
3448.59661,0.06618
3446.66786,0.06580
3444.73912,0.06550
3442.81037,0.06534
3440.88163,0.06512
3438.95288,0.06504
3437.02414,0.06529
3435.09539,0.06553
3433.16665,0.06555
3431.23790,0.06552
3429.30916,0.06552
3427.38041,0.06549
3425.45167,0.06543
3423.52292,0.06531
3421.59418,0.06535
3419.66543,0.06566
3417.73668,0.06586
3415.80794,0.06574
3413.87919,0.06561
3411.95045,0.06564
3410.02170,0.06581
3408.09296,0.06607
3406.16421,0.06626
3404.23547,0.06629
3402.30672,0.06621
3400.37798,0.06625
3398.44923,0.06648
3396.52049,0.06649
3394.59174,0.06622
3392.66300,0.06600
3390.73425,0.06599
3388.80550,0.06628
3386.87676,0.06679
3384.94801,0.06694
3383.01927,0.06648
3381.09052,0.06604
3379.16178,0.06614
3377.23303,0.06636
3375.30429,0.06631
3373.37554,0.06618
3371.44680,0.06629
3369.51805,0.06656
3367.58931,0.06663
3365.66056,0.06659
3363.73182,0.06688
3361.80307,0.06736
3359.87433,0.06773
3357.94558,0.06805
3356.01683,0.06819
3354.08809,0.06822
3352.15934,0.06852
3350.23060,0.06884
3348.30185,0.06875
3346.37311,0.06864
3344.44436,0.06900
3342.51562,0.06954
3340.58687,0.06995
3338.65813,0.07035
3336.72938,0.07091
3334.80064,0.07151
3332.87189,0.07200
3330.94315,0.07254
3329.01440,0.07322
3327.08566,0.07362
3325.15691,0.07375
3323.22816,0.07423
3321.29942,0.07513
3319.37067,0.07586
3317.44193,0.07619
3315.51318,0.07649
3313.58444,0.07695
3311.65569,0.07741
3309.72695,0.07780
3307.79820,0.07802
3305.86946,0.07820
3303.94071,0.07866
3302.01197,0.07930
3300.08322,0.07991
3298.15448,0.08032
3296.22573,0.08056
3294.29698,0.08100
3292.36824,0.08168
3290.43949,0.08233
3288.51075,0.08290
3286.58200,0.08340
3284.65326,0.08382
3282.72451,0.08432
3280.79577,0.08497
3278.86702,0.08564
3276.93828,0.08624
3275.00953,0.08681
3273.08079,0.08752
3271.15204,0.08836
3269.22330,0.08918
3267.29455,0.08996
3265.36581,0.09067
3263.43706,0.09140
3261.50831,0.09228
3259.57957,0.09321
3257.65082,0.09399
3255.72208,0.09467
3253.79333,0.09541
3251.86459,0.09634
3249.93584,0.09733
3248.00710,0.09827
3246.07835,0.09921
3244.14961,0.10023
3242.22086,0.10136
3240.29212,0.10242
3238.36337,0.10336
3236.43463,0.10426
3234.50588,0.10495
3232.57713,0.10536
3230.64839,0.10599
3228.71964,0.10713
3226.79090,0.10853
3224.86215,0.10984
3222.93341,0.11116
3221.00466,0.11261
3219.07592,0.11382
3217.14717,0.11467
3215.21843,0.11557
3213.28968,0.11671
3211.36094,0.11795
3209.43219,0.11892
3207.50345,0.11967
3205.57470,0.12064
3203.64596,0.12190
3201.71721,0.12318
3199.78846,0.12438
3197.85972,0.12544
3195.93097,0.12654
3194.00223,0.12796
3192.07348,0.12946
3190.14474,0.13058
3188.21599,0.13135
3186.28725,0.13229
3184.35850,0.13362
3182.42976,0.13511
3180.50101,0.13656
3178.57227,0.13780
3176.64352,0.13895
3174.71478,0.14022
3172.78603,0.14142
3170.85729,0.14233
3168.92854,0.14316
3166.99979,0.14423
3165.07105,0.14553
3163.14230,0.14698
3161.21356,0.14845
3159.28481,0.14980
3157.35607,0.15106
3155.42732,0.15223
3153.49858,0.15331
3151.56983,0.15442
3149.64109,0.15551
3147.71234,0.15657
3145.78360,0.15775
3143.85485,0.15907
3141.92611,0.16029
3139.99736,0.16133
3138.06861,0.16245
3136.13987,0.16370
3134.21112,0.16495
3132.28238,0.16629
3130.35363,0.16763
3128.42489,0.16878
3126.49614,0.16992
3124.56740,0.17118
3122.63865,0.17244
3120.70991,0.17372
3118.78116,0.17499
3116.85242,0.17608
3114.92367,0.17697
3112.99493,0.17778
3111.06618,0.17876
3109.13744,0.17990
3107.20869,0.18107
3105.27994,0.18218
3103.35120,0.18326
3101.42245,0.18456
3099.49371,0.18594
3097.56496,0.18705
3095.63622,0.18785
3093.70747,0.18852
3091.77873,0.18925
3089.84998,0.19014
3087.92124,0.19104
3085.99249,0.19179
3084.06375,0.19246
3082.13500,0.19305
3080.20626,0.19347
3078.27751,0.19382
3076.34877,0.19445
3074.42002,0.19537
3072.49127,0.19622
3070.56253,0.19705
3068.63378,0.19803
3066.70504,0.19915
3064.77629,0.20024
3062.84755,0.20096
3060.91880,0.20144
3058.99006,0.20220
3057.06131,0.20345
3055.13257,0.20468
3053.20382,0.20541
3051.27508,0.20591
3049.34633,0.20647
3047.41759,0.20707
3045.48884,0.20773
3043.56009,0.20832
3041.63135,0.20878
3039.70260,0.20918
3037.77386,0.20947
3035.84511,0.20973
3033.91637,0.21003
3031.98762,0.21023
3030.05888,0.21026
3028.13013,0.21012
3026.20139,0.20971
3024.27264,0.20920
3022.34390,0.20877
3020.41515,0.20817
3018.48641,0.20717
3016.55766,0.20585
3014.62892,0.20435
3012.70017,0.20276
3010.77142,0.20129
3008.84268,0.19989
3006.91393,0.19846
3004.98519,0.19698
3003.05644,0.19539
3001.12770,0.19382
2999.19895,0.19244
2997.27021,0.19116
2995.34146,0.18965
2993.41272,0.18791
2991.48397,0.18609
2989.55523,0.18402
2987.62648,0.18154
2985.69774,0.17871
2983.76899,0.17550
2981.84025,0.17185
2979.91150,0.16780
2977.98275,0.16363
2976.05401,0.15948
2974.12526,0.15540
2972.19652,0.15166
2970.26777,0.14849
2968.33903,0.14587
2966.41028,0.14357
2964.48154,0.14135
2962.55279,0.13938
2960.62405,0.13789
2958.69530,0.13658
2956.76656,0.13513
2954.83781,0.13352
2952.90907,0.13191
2950.98032,0.13018
2949.05157,0.12804
2947.12283,0.12581
2945.19408,0.12401
2943.26534,0.12253
2941.33659,0.12127
2939.40785,0.12033
2937.47910,0.11973
2935.55036,0.11935
2933.62161,0.11905
2931.69287,0.11881
2929.76412,0.11849
2927.83538,0.11805
2925.90663,0.11782
2923.97789,0.11780
2922.04914,0.11770
2920.12040,0.11738
2918.19165,0.11707
2916.26290,0.11712
2914.33416,0.11729
2912.40541,0.11708
2910.47667,0.11680
2908.54792,0.11698
2906.61918,0.11728
2904.69043,0.11739
2902.76169,0.11755
2900.83294,0.11793
2898.90420,0.11835
2896.97545,0.11878
2895.04671,0.11944
2893.11796,0.12033
2891.18922,0.12118
2889.26047,0.12210
2887.33172,0.12317
2885.40298,0.12406
2883.47423,0.12461
2881.54549,0.12507
2879.61674,0.12570
2877.68800,0.12647
2875.75925,0.12737
2873.83051,0.12857
2871.90176,0.12987
2869.97302,0.13102
2868.04427,0.13206
2866.11553,0.13327
2864.18678,0.13472
2862.25804,0.13629
2860.32929,0.13795
2858.40055,0.13970
2856.47180,0.14143
2854.54305,0.14305
2852.61431,0.14465
2850.68556,0.14639
2848.75682,0.14849
2846.82807,0.15103
2844.89933,0.15375
2842.97058,0.15651
2841.04184,0.15934
2839.11309,0.16216
2837.18435,0.16509
2835.25560,0.16827
2833.32686,0.17170
2831.39811,0.17547
2829.46937,0.17947
2827.54062,0.18352
2825.61188,0.18747
2823.68313,0.19124
2821.75438,0.19484
2819.82564,0.19827
2817.89689,0.20140
2815.96815,0.20430
2814.03940,0.20710
2812.11066,0.20968
2810.18191,0.21204
2808.25317,0.21434
2806.32442,0.21650
2804.39568,0.21845
2802.46693,0.22040
2800.53819,0.22237
2798.60944,0.22410
2796.68070,0.22556
2794.75195,0.22707
2792.82320,0.22871
2790.89446,0.23021
2788.96571,0.23139
2787.03697,0.23241
2785.10822,0.23335
2783.17948,0.23412
2781.25073,0.23477
2779.32199,0.23552
2777.39324,0.23630
2775.46450,0.23688
2773.53575,0.23735
2771.60701,0.23795
2769.67826,0.23859
2767.74952,0.23910
2765.82077,0.23956
2763.89203,0.24012
2761.96328,0.24069
2760.03453,0.24124
2758.10579,0.24180
2756.17704,0.24215
2754.24830,0.24222
2752.31955,0.24235
2750.39081,0.24259
2748.46206,0.24280
2746.53332,0.24286
2744.60457,0.24279
2742.67583,0.24278
2740.74708,0.24300
2738.81834,0.24346
2736.88959,0.24400
2734.96085,0.24435
2733.03210,0.24461
2731.10336,0.24515
2729.17461,0.24598
2727.24586,0.24670
2725.31712,0.24731
2723.38837,0.24809
2721.45963,0.24905
2719.53088,0.25010
2717.60214,0.25121
2715.67339,0.25220
2713.74465,0.25303
2711.81590,0.25391
2709.88716,0.25496
2707.95841,0.25618
2706.02967,0.25746
2704.10092,0.25870
2702.17218,0.26004
2700.24343,0.26153
2698.31468,0.26291
2696.38594,0.26399
2694.45719,0.26487
2692.52845,0.26573
2690.59970,0.26678
2688.67096,0.26801
2686.74221,0.26919
2684.81347,0.27028
2682.88472,0.27135
2680.95598,0.27232
2679.02723,0.27319
2677.09849,0.27406
2675.16974,0.27490
2673.24100,0.27573
2671.31225,0.27659
2669.38351,0.27741
2667.45476,0.27801
2665.52601,0.27848
2663.59727,0.27897
2661.66852,0.27943
2659.73978,0.27987
2657.81103,0.28045
2655.88229,0.28118
2653.95354,0.28186
2652.02480,0.28246
2650.09605,0.28316
2648.16731,0.28394
2646.23856,0.28465
2644.30982,0.28522
2642.38107,0.28573
2640.45233,0.28635
2638.52358,0.28717
2636.59484,0.28807
2634.66609,0.28894
2632.73734,0.28975
2630.80860,0.29061
2628.87985,0.29158
2626.95111,0.29258
2625.02236,0.29358
2623.09362,0.29454
2621.16487,0.29528
2619.23613,0.29584
2617.30738,0.29643
2615.37864,0.29714
2613.44989,0.29797
2611.52115,0.29882
2609.59240,0.29955
2607.66366,0.30013
2605.73491,0.30070
2603.80616,0.30133
2601.87742,0.30188
2599.94867,0.30235
2598.01993,0.30288
2596.09118,0.30366
2594.16244,0.30464
2592.23369,0.30547
2590.30495,0.30603
2588.37620,0.30654
2586.44746,0.30703
2584.51871,0.30751
2582.58997,0.30805
2580.66122,0.30860
2578.73248,0.30917
2576.80373,0.30973
2574.87499,0.31009
2572.94624,0.31034
2571.01749,0.31068
2569.08875,0.31097
2567.16000,0.31118
2565.23126,0.31147
2563.30251,0.31181
2561.37377,0.31206
2559.44502,0.31225
2557.51628,0.31238
2555.58753,0.31238
2553.65879,0.31233
2551.73004,0.31230
2549.80130,0.31237
2547.87255,0.31268
2545.94381,0.31314
2544.01506,0.31347
2542.08631,0.31368
2540.15757,0.31406
2538.22882,0.31469
2536.30008,0.31532
2534.37133,0.31590
2532.44259,0.31658
2530.51384,0.31736
2528.58510,0.31810
2526.65635,0.31884
2524.72761,0.31967
2522.79886,0.32051
2520.87012,0.32122
2518.94137,0.32175
2517.01263,0.32229
2515.08388,0.32306
2513.15514,0.32393
2511.22639,0.32483
2509.29764,0.32603
2507.36890,0.32741
2505.44015,0.32861
2503.51141,0.32975
2501.58266,0.33101
2499.65392,0.33222
2497.72517,0.33326
2495.79643,0.33438
2493.86768,0.33567
2491.93894,0.33682
2490.01019,0.33772
2488.08145,0.33852
2486.15270,0.33939
2484.22396,0.34034
2482.29521,0.34126
2480.36647,0.34219
2478.43772,0.34314
2476.50897,0.34407
2474.58023,0.34508
2472.65148,0.34617
2470.72274,0.34719
2468.79399,0.34814
2466.86525,0.34905
2464.93650,0.34988
2463.00776,0.35061
2461.07901,0.35129
2459.15027,0.35208
2457.22152,0.35301
2455.29278,0.35395
2453.36403,0.35495
2451.43529,0.35615
2449.50654,0.35728
2447.57779,0.35814
2445.64905,0.35901
2443.72030,0.36005
2441.79156,0.36123
2439.86281,0.36246
2437.93407,0.36364
2436.00532,0.36473
2434.07658,0.36580
2432.14783,0.36688
2430.21909,0.36795
2428.29034,0.36905
2426.36160,0.37030
2424.43285,0.37168
2422.50411,0.37307
2420.57536,0.37429
2418.64662,0.37540
2416.71787,0.37672
2414.78912,0.37819
2412.86038,0.37947
2410.93163,0.38063
2409.00289,0.38185
2407.07414,0.38304
2405.14540,0.38400
2403.21665,0.38476
2401.28791,0.38567
2399.35916,0.38685
2397.43042,0.38806
2395.50167,0.38911
2393.57293,0.39013
2391.64418,0.39140
2389.71544,0.39275
2387.78669,0.39380
2385.85795,0.39467
2383.92920,0.39568
2382.00045,0.39682
2380.07171,0.39783
2378.14296,0.39863
2376.21422,0.39950
2374.28547,0.40052
2372.35673,0.40147
2370.42798,0.40226
2368.49924,0.40303
2366.57049,0.40383
2364.64175,0.40457
2362.71300,0.40521
2360.78426,0.40592
2358.85551,0.40677
2356.92677,0.40763
2354.99802,0.40838
2353.06927,0.40904
2351.14053,0.40978
2349.21178,0.41057
2347.28304,0.41137
2345.35429,0.41218
2343.42555,0.41289
2341.49680,0.41344
2339.56806,0.41397
2337.63931,0.41441
2335.71057,0.41473
2333.78182,0.41513
2331.85308,0.41571
2329.92433,0.41625
2327.99559,0.41660
2326.06684,0.41679
2324.13810,0.41682
2322.20935,0.41682
2320.28060,0.41706
2318.35186,0.41759
2316.42311,0.41806
2314.49437,0.41825
2312.56562,0.41824
2310.63688,0.41821
2308.70813,0.41824
2306.77939,0.41827
2304.85064,0.41824
2302.92190,0.41817
2300.99315,0.41818
2299.06441,0.41827
2297.13566,0.41819
2295.20692,0.41792
2293.27817,0.41771
2291.34943,0.41759
2289.42068,0.41753
2287.49193,0.41757
2285.56319,0.41762
2283.63444,0.41755
2281.70570,0.41736
2279.77695,0.41720
2277.84821,0.41716
2275.91946,0.41707
2273.99072,0.41677
2272.06197,0.41633
2270.13323,0.41584
2268.20448,0.41525
2266.27574,0.41466
2264.34699,0.41417
2262.41825,0.41364
2260.48950,0.41303
2258.56075,0.41254
2256.63201,0.41220
2254.70326,0.41190
2252.77452,0.41170
2250.84577,0.41162
2248.91703,0.41155
2246.98828,0.41141
2245.05954,0.41116
2243.13079,0.41089
2241.20205,0.41059
2239.27330,0.41024
2237.34456,0.41000
2235.41581,0.40995
2233.48707,0.40991
2231.55832,0.40981
2229.62958,0.40975
2227.70083,0.40983
2225.77208,0.41008
2223.84334,0.41036
2221.91459,0.41050
2219.98585,0.41056
2218.05710,0.41064
2216.12836,0.41082
2214.19961,0.41105
2212.27087,0.41112
2210.34212,0.41097
2208.41338,0.41069
2206.48463,0.41036
2204.55589,0.41002
2202.62714,0.40952
2200.69840,0.40880
2198.76965,0.40799
2196.84090,0.40724
2194.91216,0.40650
2192.98341,0.40564
2191.05467,0.40466
2189.12592,0.40375
2187.19718,0.40284
2185.26843,0.40168
2183.33969,0.40042
2181.41094,0.39932
2179.48220,0.39824
2177.55345,0.39701
2175.62471,0.39572
2173.69596,0.39446
2171.76722,0.39327
2169.83847,0.39231
2167.90973,0.39144
2165.98098,0.39052
2164.05223,0.38966
2162.12349,0.38894
2160.19474,0.38820
2158.26600,0.38732
2156.33725,0.38639
2154.40851,0.38573
2152.47976,0.38536
2150.55102,0.38495
2148.62227,0.38437
2146.69353,0.38386
2144.76478,0.38351
2142.83604,0.38310
2140.90729,0.38264
2138.97855,0.38239
2137.04980,0.38235
2135.12106,0.38232
2133.19231,0.38225
2131.26356,0.38234
2129.33482,0.38268
2127.40607,0.38311
2125.47733,0.38346
2123.54858,0.38376
2121.61984,0.38414
2119.69109,0.38464
2117.76235,0.38511
2115.83360,0.38555
2113.90486,0.38601
2111.97611,0.38647
2110.04737,0.38699
2108.11862,0.38755
2106.18988,0.38788
2104.26113,0.38808
2102.33238,0.38838
2100.40364,0.38879
2098.47489,0.38917
2096.54615,0.38956
2094.61740,0.39001
2092.68866,0.39039
2090.75991,0.39054
2088.83117,0.39047
2086.90242,0.39040
2084.97368,0.39038
2083.04493,0.39024
2081.11619,0.38986
2079.18744,0.38942
2077.25870,0.38896
2075.32995,0.38841
2073.40121,0.38783
2071.47246,0.38728
2069.54371,0.38665
2067.61497,0.38601
2065.68622,0.38562
2063.75748,0.38544
2061.82873,0.38523
2059.89999,0.38500
2057.97124,0.38490
2056.04250,0.38486
2054.11375,0.38485
2052.18501,0.38501
2050.25626,0.38540
2048.32752,0.38589
2046.39877,0.38646
2044.47003,0.38715
2042.54128,0.38794
2040.61254,0.38885
2038.68379,0.38981
2036.75504,0.39075
2034.82630,0.39182
2032.89755,0.39308
2030.96881,0.39439
2029.04006,0.39570
2027.11132,0.39707
2025.18257,0.39842
2023.25383,0.39965
2021.32508,0.40083
2019.39634,0.40208
2017.46759,0.40335
2015.53885,0.40452
2013.61010,0.40561
2011.68136,0.40659
2009.75261,0.40742
2007.82386,0.40817
2005.89512,0.40897
2003.96637,0.40983
2002.03763,0.41069
2000.10888,0.41151
1998.18014,0.41236
1996.25139,0.41319
1994.32265,0.41395
1992.39390,0.41479
1990.46516,0.41568
1988.53641,0.41640
1986.60767,0.41694
1984.67892,0.41751
1982.75018,0.41816
1980.82143,0.41879
1978.89269,0.41942
1976.96394,0.42005
1975.03519,0.42066
1973.10645,0.42122
1971.17770,0.42177
1969.24896,0.42243
1967.32021,0.42325
1965.39147,0.42402
1963.46272,0.42469
1961.53398,0.42554
1959.60523,0.42655
1957.67649,0.42746
1955.74774,0.42834
1953.81900,0.42945
1951.89025,0.43079
1949.96151,0.43212
1948.03276,0.43336
1946.10402,0.43449
1944.17527,0.43547
1942.24652,0.43632
1940.31778,0.43715
1938.38903,0.43802
1936.46029,0.43868
1934.53154,0.43914
1932.60280,0.43978
1930.67405,0.44057
1928.74531,0.44116
1926.81656,0.44154
1924.88782,0.44192
1922.95907,0.44224
1921.03033,0.44256
1919.10158,0.44293
1917.17284,0.44311
1915.24409,0.44309
1913.31534,0.44311
1911.38660,0.44313
1909.45785,0.44300
1907.52911,0.44278
1905.60036,0.44255
1903.67162,0.44227
1901.74287,0.44195
1899.81413,0.44159
1897.88538,0.44125
1895.95664,0.44092
1894.02789,0.44055
1892.09915,0.44020
1890.17040,0.43989
1888.24166,0.43954
1886.31291,0.43912
1884.38417,0.43870
1882.45542,0.43832
1880.52667,0.43794
1878.59793,0.43750
1876.66918,0.43706
1874.74044,0.43666
1872.81169,0.43639
1870.88295,0.43628
1868.95420,0.43603
1867.02546,0.43548
1865.09671,0.43485
1863.16797,0.43425
1861.23922,0.43371
1859.31048,0.43336
1857.38173,0.43303
1855.45299,0.43249
1853.52424,0.43179
1851.59549,0.43105
1849.66675,0.43035
1847.73800,0.42973
1845.80926,0.42904
1843.88051,0.42806
1841.95177,0.42676
1840.02302,0.42547
1838.09428,0.42436
1836.16553,0.42330
1834.23679,0.42210
1832.30804,0.42077
1830.37930,0.41928
1828.45055,0.41747
1826.52181,0.41538
1824.59306,0.41319
1822.66432,0.41092
1820.73557,0.40835
1818.80682,0.40516
1816.87808,0.40143
1814.94933,0.39734
1813.02059,0.39282
1811.09184,0.38762
1809.16310,0.38160
1807.23435,0.37475
1805.30561,0.36711
1803.37686,0.35891
1801.44812,0.35022
1799.51937,0.34123
1797.59063,0.33237
1795.66188,0.32400
1793.73314,0.31587
1791.80439,0.30760
1789.87565,0.29971
1787.94690,0.29266
1786.01815,0.28614
1784.08941,0.28004
1782.16066,0.27454
1780.23192,0.26952
1778.30317,0.26482
1776.37443,0.26053
1774.44568,0.25642
1772.51694,0.25182
1770.58819,0.24665
1768.65945,0.24114
1766.73070,0.23518
1764.80196,0.22895
1762.87321,0.22248
1760.94447,0.21567
1759.01572,0.20896
1757.08697,0.20234
1755.15823,0.19596
1753.22948,0.19029
1751.30074,0.18536
1749.37199,0.18125
1747.44325,0.17798
1745.51450,0.17528
1743.58576,0.17323
1741.65701,0.17202
1739.72827,0.17157
1737.79952,0.17182
1735.87078,0.17284
1733.94203,0.17462
1732.01329,0.17665
1730.08454,0.17864
1728.15580,0.18100
1726.22705,0.18396
1724.29830,0.18723
1722.36956,0.19053
1720.44081,0.19410
1718.51207,0.19821
1716.58332,0.20245
1714.65458,0.20629
1712.72583,0.20984
1710.79709,0.21313
1708.86834,0.21603
1706.93960,0.21848
1705.01085,0.22036
1703.08211,0.22167
1701.15336,0.22229
1699.22462,0.22185
1697.29587,0.22065
1695.36713,0.21894
1693.43838,0.21682
1691.50963,0.21447
1689.58089,0.21172
1687.65214,0.20863
1685.72340,0.20492
1683.79465,0.19994
1681.86591,0.19445
1679.93716,0.18924
1678.00842,0.18418
1676.07967,0.17894
1674.15093,0.17358
1672.22218,0.16882
1670.29344,0.16464
1668.36469,0.16080
1666.43595,0.15792
1664.50720,0.15614
1662.57845,0.15510
1660.64971,0.15462
1658.72096,0.15479
1656.79222,0.15571
1654.86347,0.15723
1652.93473,0.15895
1651.00598,0.16001
1649.07724,0.16057
1647.14849,0.16102
1645.21975,0.16118
1643.29100,0.16101
1641.36226,0.16076
1639.43351,0.16069
1637.50477,0.16086
1635.57602,0.16086
1633.64728,0.16046
1631.71853,0.16005
1629.78978,0.15962
1627.86104,0.15880
1625.93229,0.15756
1624.00355,0.15603
1622.07480,0.15422
1620.14606,0.15242
1618.21731,0.15062
1616.28857,0.14826
1614.35982,0.14538
1612.43108,0.14259
1610.50233,0.14001
1608.57359,0.13782
1606.64484,0.13620
1604.71610,0.13519
1602.78735,0.13483
1600.85861,0.13493
1598.92986,0.13518
1597.00111,0.13544
1595.07237,0.13574
1593.14362,0.13635
1591.21488,0.13781
1589.28613,0.14040
1587.35739,0.14395
1585.42864,0.14837
1583.49990,0.15360
1581.57115,0.15949
1579.64241,0.16599
1577.71366,0.17360
1575.78492,0.18231
1573.85617,0.19051
1571.92743,0.19776
1569.99868,0.20469
1568.06993,0.21068
1566.14119,0.21512
1564.21244,0.21827
1562.28370,0.22060
1560.35495,0.22245
1558.42621,0.22332
1556.49746,0.22278
1554.56872,0.22153
1552.63997,0.21984
1550.71123,0.21781
1548.78248,0.21561
1546.85374,0.21335
1544.92499,0.21091
1542.99625,0.20816
1541.06750,0.20476
1539.13876,0.20008
1537.21001,0.19474
1535.28126,0.18886
1533.35252,0.18127
1531.42377,0.17219
1529.49503,0.16233
1527.56628,0.15136
1525.63754,0.13947
1523.70879,0.12739
1521.78005,0.11470
1519.85130,0.10254
1517.92256,0.09329
1515.99381,0.08710
1514.06507,0.08361
1512.13632,0.08250
1510.20758,0.08315
1508.27883,0.08537
1506.35008,0.08925
1504.42134,0.09394
1502.49259,0.09886
1500.56385,0.10428
1498.63510,0.10985
1496.70636,0.11503
1494.77761,0.11937
1492.84887,0.12242
1490.92012,0.12412
1488.99138,0.12446
1487.06263,0.12360
1485.13389,0.12198
1483.20514,0.11988
1481.27640,0.11722
1479.34765,0.11392
1477.41891,0.10997
1475.49016,0.10541
1473.56141,0.10024
1471.63267,0.09500
1469.70392,0.09079
1467.77518,0.08790
1465.84643,0.08609
1463.91769,0.08528
1461.98894,0.08512
1460.06020,0.08521
1458.13145,0.08522
1456.20271,0.08497
1454.27396,0.08470
1452.34522,0.08476
1450.41647,0.08537
1448.48773,0.08661
1446.55898,0.08816
1444.63024,0.08936
1442.70149,0.08957
1440.77274,0.08867
1438.84400,0.08698
1436.91525,0.08487
1434.98651,0.08287
1433.05776,0.08131
1431.12902,0.08025
1429.20027,0.07984
1427.27153,0.08009
1425.34278,0.08083
1423.41404,0.08201
1421.48529,0.08362
1419.55655,0.08545
1417.62780,0.08726
1415.69906,0.08908
1413.77031,0.09095
1411.84156,0.09261
1409.91282,0.09389
1407.98407,0.09484
1406.05533,0.09558
1404.12658,0.09611
1402.19784,0.09626
1400.26909,0.09596
1398.34035,0.09529
1396.41160,0.09438
1394.48286,0.09317
1392.55411,0.09156
1390.62537,0.08961
1388.69662,0.08744
1386.76788,0.08515
1384.83913,0.08292
1382.91039,0.08094
1380.98164,0.07923
1379.05289,0.07794
1377.12415,0.07727
1375.19540,0.07709
1373.26666,0.07715
1371.33791,0.07743
1369.40917,0.07801
1367.48042,0.07896
1365.55168,0.08014
1363.62293,0.08126
1361.69419,0.08214
1359.76544,0.08291
1357.83670,0.08378
1355.90795,0.08466
1353.97921,0.08537
1352.05046,0.08590
1350.12172,0.08632
1348.19297,0.08642
1346.26422,0.08598
1344.33548,0.08515
1342.40673,0.08431
1340.47799,0.08358
1338.54924,0.08300
1336.62050,0.08271
1334.69175,0.08274
1332.76301,0.08288
1330.83426,0.08291
1328.90552,0.08280
1326.97677,0.08254
1325.04803,0.08210
1323.11928,0.08161
1321.19054,0.08127
1319.26179,0.08121
1317.33304,0.08153
1315.40430,0.08214
1313.47555,0.08284
1311.54681,0.08364
1309.61806,0.08451
1307.68932,0.08536
1305.76057,0.08615
1303.83183,0.08664
1301.90308,0.08670
1299.97434,0.08647
1298.04559,0.08599
1296.11685,0.08520
1294.18810,0.08413
1292.25936,0.08272
1290.33061,0.08103
1288.40187,0.07914
1286.47312,0.07713
1284.54437,0.07527
1282.61563,0.07398
1280.68688,0.07330
1278.75814,0.07270
1276.82939,0.07198
1274.90065,0.07147
1272.97190,0.07138
1271.04316,0.07167
1269.11441,0.07223
1267.18567,0.07300
1265.25692,0.07391
1263.32818,0.07490
1261.39943,0.07606
1259.47069,0.07742
1257.54194,0.07870
1255.61320,0.07959
1253.68445,0.08015
1251.75570,0.08065
1249.82696,0.08112
1247.89821,0.08142
1245.96947,0.08150
1244.04072,0.08147
1242.11198,0.08143
1240.18323,0.08126
1238.25449,0.08087
1236.32574,0.08052
1234.39700,0.08039
1232.46825,0.08040
1230.53951,0.08056
1228.61076,0.08092
1226.68202,0.08138
1224.75327,0.08191
1222.82452,0.08258
1220.89578,0.08326
1218.96703,0.08376
1217.03829,0.08410
1215.10954,0.08435
1213.18080,0.08451
1211.25205,0.08464
1209.32331,0.08497
1207.39456,0.08563
1205.46582,0.08655
1203.53707,0.08772
1201.60833,0.08909
1199.67958,0.09050
1197.75084,0.09170
1195.82209,0.09255
1193.89335,0.09288
1191.96460,0.09256
1190.03585,0.09167
1188.10711,0.09051
1186.17836,0.08918
1184.24962,0.08748
1182.32087,0.08532
1180.39213,0.08294
1178.46338,0.08047
1176.53464,0.07772
1174.60589,0.07481
1172.67715,0.07224
1170.74840,0.07051
1168.81966,0.06985
1166.89091,0.07010
1164.96217,0.07090
1163.03342,0.07202
1161.10467,0.07328
1159.17593,0.07436
1157.24718,0.07505
1155.31844,0.07530
1153.38969,0.07517
1151.46095,0.07478
1149.53220,0.07423
1147.60346,0.07353
1145.67471,0.07287
1143.74597,0.07242
1141.81722,0.07188
1139.88848,0.07104
1137.95973,0.07012
1136.03099,0.06919
1134.10224,0.06816
1132.17350,0.06723
1130.24475,0.06646
1128.31600,0.06589
1126.38726,0.06565
1124.45851,0.06571
1122.52977,0.06591
1120.60102,0.06608
1118.67228,0.06610
1116.74353,0.06619
1114.81479,0.06661
1112.88604,0.06743
1110.95730,0.06859
1109.02855,0.06982
1107.09981,0.07086
1105.17106,0.07160
1103.24232,0.07209
1101.31357,0.07237
1099.38483,0.07237
1097.45608,0.07222
1095.52733,0.07225
1093.59859,0.07250
1091.66984,0.07264
1089.74110,0.07254
1087.81235,0.07241
1085.88361,0.07260
1083.95486,0.07325
1082.02612,0.07408
1080.09737,0.07506
1078.16863,0.07641
1076.23988,0.07802
1074.31114,0.07955
1072.38239,0.08089
1070.45365,0.08233
1068.52490,0.08426
1066.59615,0.08696
1064.66741,0.09028
1062.73866,0.09359
1060.80992,0.09655
1058.88117,0.09916
1056.95243,0.10120
1055.02368,0.10238
1053.09494,0.10273
1051.16619,0.10254
1049.23745,0.10191
1047.30870,0.10104
1045.37996,0.10043
1043.45121,0.10037
1041.52247,0.10108
1039.59372,0.10284
1037.66498,0.10550
1035.73623,0.10838
1033.80748,0.11071
1031.87874,0.11223
1029.94999,0.11345
1028.02125,0.11477
1026.09250,0.11609
1024.16376,0.11712
1022.23501,0.11777
1020.30627,0.11854
1018.37752,0.11978
1016.44878,0.12129
1014.52003,0.12291
1012.59129,0.12458
1010.66254,0.12591
1008.73380,0.12666
1006.80505,0.12726
1004.87631,0.12825
1002.94756,0.12962
1001.01881,0.13106
999.09007,0.13262
997.16132,0.13453
995.23258,0.13654
993.30383,0.13850
991.37509,0.14079
989.44634,0.14361
987.51760,0.14706
985.58885,0.15132
983.66011,0.15630
981.73136,0.16177
979.80262,0.16725
977.87387,0.17182
975.94513,0.17506
974.01638,0.17750
972.08763,0.17973
970.15889,0.18193
968.23014,0.18418
966.30140,0.18662
964.37265,0.18948
962.44391,0.19302
960.51516,0.19718
958.58642,0.20155
956.65767,0.20588
954.72893,0.21006
952.80018,0.21370
950.87144,0.21660
948.94269,0.21925
947.01395,0.22177
945.08520,0.22396
943.15646,0.22606
941.22771,0.22818
939.29896,0.23015
937.37022,0.23208
935.44147,0.23417
933.51273,0.23651
931.58398,0.23905
929.65524,0.24155
927.72649,0.24374
925.79775,0.24542
923.86900,0.24656
921.94026,0.24719
920.01151,0.24725
918.08277,0.24676
916.15402,0.24551
914.22528,0.24348
912.29653,0.24113
910.36779,0.23841
908.43904,0.23511
906.51029,0.23168
904.58155,0.22820
902.65280,0.22461
900.72406,0.22179
898.79531,0.22063
896.86657,0.22117
894.93782,0.22323
893.00908,0.22656
891.08033,0.23057
889.15159,0.23466
887.22284,0.23848
885.29410,0.24148
883.36535,0.24334
881.43661,0.24441
879.50786,0.24516
877.57911,0.24594
875.65037,0.24689
873.72162,0.24785
871.79288,0.24877
869.86413,0.24965
867.93539,0.25035
866.00664,0.25093
864.07790,0.25174
862.14915,0.25291
860.22041,0.25433
858.29166,0.25595
856.36292,0.25776
854.43417,0.26002
852.50543,0.26295
850.57668,0.26643
848.64794,0.27010
846.71919,0.27338
844.79044,0.27556
842.86170,0.27649
840.93295,0.27640
839.00421,0.27530
837.07546,0.27328
835.14672,0.27071
833.21797,0.26809
831.28923,0.26579
829.36048,0.26357
827.43174,0.26122
825.50299,0.25894
823.57425,0.25646
821.64550,0.25343
819.71676,0.25025
817.78801,0.24717
815.85926,0.24427
813.93052,0.24198
812.00177,0.24060
810.07303,0.24012
808.14428,0.24061
806.21554,0.24209
804.28679,0.24418
802.35805,0.24640
800.42930,0.24853
798.50056,0.25048
796.57181,0.25221
794.64307,0.25369
792.71432,0.25479
790.78558,0.25548
788.85683,0.25589
786.92809,0.25594
784.99934,0.25504
783.07059,0.25279
781.14185,0.24992
779.21310,0.24735
777.28436,0.24527
775.35561,0.24347
773.42687,0.24186
771.49812,0.24021
769.56938,0.23828
767.64063,0.23644
765.71189,0.23493
763.78314,0.23361
761.85440,0.23235
759.92565,0.23084
757.99691,0.22899
756.06816,0.22718
754.13942,0.22561
752.21067,0.22417
750.28192,0.22264
748.35318,0.22080
746.42443,0.21870
744.49569,0.21676
742.56694,0.21542
740.63820,0.21432
738.70945,0.21267
736.78071,0.21038
734.85196,0.20784
732.92322,0.20531
730.99447,0.20280
729.06573,0.20006
727.13698,0.19730
725.20824,0.19504
723.27949,0.19320
721.35074,0.19122
719.42200,0.18906
717.49325,0.18721
715.56451,0.18601
713.63576,0.18526
711.70702,0.18422
709.77827,0.18242
707.84953,0.18051
705.92078,0.17909
703.99204,0.17787
702.06329,0.17652
700.13455,0.17528
698.20580,0.17428
696.27706,0.17307
694.34831,0.17125
692.41957,0.16905
690.49082,0.16681
688.56207,0.16469
686.63333,0.16276
684.70458,0.16039
682.77584,0.15684
680.84709,0.15278
678.91835,0.14944
676.98960,0.14708
675.06086,0.14526
673.13211,0.14379
671.20337,0.14276
669.27462,0.14209
667.34588,0.14179
665.41713,0.14232
663.48839,0.14329
661.55964,0.14362
659.63090,0.14378
657.70215,0.14464
655.77340,0.14551
653.84466,0.14544
651.91591,0.14438
649.98717,0.14305
648.05842,0.14181
646.12968,0.14046
644.20093,0.13912
642.27219,0.13821
640.34344,0.13747
638.41470,0.13602
636.48595,0.13358
634.55721,0.13083
632.62846,0.12890
630.69972,0.12829
628.77097,0.12823
626.84222,0.12757
624.91348,0.12590
622.98473,0.12404
621.05599,0.12337
619.12724,0.12401
617.19850,0.12490
615.26975,0.12610
613.34101,0.12768
611.41226,0.12834
609.48352,0.12808
607.55477,0.12831
605.62603,0.12922
603.69728,0.13019
601.76854,0.13099
599.83979,0.13148
