7497.03301,0.67420
7495.10426,0.67507
7493.17552,0.67993
7491.24677,0.69020
7489.31803,0.69680
7487.38928,0.69212
7485.46054,0.68534
7483.53179,0.68331
7481.60305,0.68145
7479.67430,0.67610
7477.74556,0.66944
7475.81681,0.66640
7473.88807,0.66840
7471.95932,0.67119
7470.03057,0.67117
7468.10183,0.67079
7466.17308,0.67437
7464.24434,0.67831
7462.31559,0.67704
7460.38685,0.67374
7458.45810,0.67294
7456.52936,0.67550
7454.60061,0.67743
7452.67187,0.67442
7450.74312,0.67096
7448.81438,0.67148
7446.88563,0.67318
7444.95689,0.67236
7443.02814,0.66970
7441.09940,0.66984
7439.17065,0.67381
7437.24190,0.67643
7435.31316,0.67570
7433.38441,0.67506
7431.45567,0.67333
7429.52692,0.66890
7427.59818,0.66728
7425.66943,0.66983
7423.74069,0.67135
7421.81194,0.67061
7419.88320,0.67031
7417.95445,0.67016
7416.02571,0.66714
7414.09696,0.66225
7412.16822,0.66197
7410.23947,0.66826
7408.31073,0.67179
7406.38198,0.66697
7404.45323,0.66326
7402.52449,0.66685
7400.59574,0.67044
7398.66700,0.66926
7396.73825,0.66638
7394.80951,0.66375
7392.88076,0.66076
7390.95202,0.65732
7389.02327,0.65528
7387.09453,0.65506
7385.16578,0.65605
7383.23704,0.65937
7381.30829,0.66335
7379.37955,0.66586
7377.45080,0.66633
7375.52205,0.66406
7373.59331,0.66216
7371.66456,0.66219
7369.73582,0.66047
7367.80707,0.65649
7365.87833,0.65487
7363.94958,0.65774
7362.02084,0.66246
7360.09209,0.66600
7358.16335,0.66748
7356.23460,0.66637
7354.30586,0.66281
7352.37711,0.66110
7350.44837,0.66271
7348.51962,0.66248
7346.59088,0.65933
7344.66213,0.65766
7342.73338,0.66008
7340.80464,0.66381
7338.87589,0.66395
7336.94715,0.66087
7335.01840,0.65745
7333.08966,0.65423
7331.16091,0.65245
7329.23217,0.65457
7327.30342,0.65799
7325.37468,0.65721
7323.44593,0.65395
7321.51719,0.65372
7319.58844,0.65648
7317.65970,0.65719
7315.73095,0.65603
7313.80221,0.65925
7311.87346,0.66537
7309.94471,0.66638
7308.01597,0.66199
7306.08722,0.65828
7304.15848,0.65864
7302.22973,0.66010
7300.30099,0.65706
7298.37224,0.65130
7296.44350,0.64924
7294.51475,0.65008
7292.58601,0.65132
7290.65726,0.65470
7288.72852,0.65961
7286.79977,0.66206
7284.87103,0.65974
7282.94228,0.65506
7281.01353,0.65139
7279.08479,0.64886
7277.15604,0.64811
7275.22730,0.65117
7273.29855,0.65530
7271.36981,0.65488
7269.44106,0.65154
7267.51232,0.65029
7265.58357,0.64956
7263.65483,0.64696
7261.72608,0.64581
7259.79734,0.64828
7257.86859,0.65070
7255.93985,0.65081
7254.01110,0.65102
7252.08236,0.65234
7250.15361,0.65238
7248.22486,0.64887
7246.29612,0.64425
7244.36737,0.64444
7242.43863,0.64958
7240.50988,0.65344
7238.58114,0.65338
7236.65239,0.65144
7234.72365,0.64862
7232.79490,0.64508
7230.86616,0.64351
7228.93741,0.64618
7227.00867,0.64946
7225.07992,0.64871
7223.15118,0.64737
7221.22243,0.64924
7219.29369,0.64821
7217.36494,0.64275
7215.43619,0.64085
7213.50745,0.64332
7211.57870,0.64405
7209.64996,0.64079
7207.72121,0.63826
7205.79247,0.64154
7203.86372,0.64804
7201.93498,0.65179
7200.00623,0.65085
7198.07749,0.64797
7196.14874,0.64599
7194.22000,0.64516
7192.29125,0.64547
7190.36251,0.64575
7188.43376,0.64517
7186.50501,0.64550
7184.57627,0.64676
7182.64752,0.64640
7180.71878,0.64457
7178.79003,0.64311
7176.86129,0.64083
7174.93254,0.63908
7173.00380,0.64159
7171.07505,0.64594
7169.14631,0.64625
7167.21756,0.64257
7165.28882,0.64093
7163.36007,0.64177
7161.43133,0.64127
7159.50258,0.64173
7157.57384,0.64460
7155.64509,0.64539
7153.71634,0.64348
7151.78760,0.64367
7149.85885,0.64610
7147.93011,0.64609
7146.00136,0.64299
7144.07262,0.64142
7142.14387,0.64436
7140.21513,0.64725
7138.28638,0.64552
7136.35764,0.64356
7134.42889,0.64563
7132.50015,0.64950
7130.57140,0.65140
7128.64266,0.65010
7126.71391,0.64680
7124.78516,0.64250
7122.85642,0.63948
7120.92767,0.64085
7118.99893,0.64510
7117.07018,0.64907
7115.14144,0.65167
7113.21269,0.65164
7111.28395,0.65011
7109.35520,0.65052
7107.42646,0.65175
7105.49771,0.65092
7103.56897,0.64991
7101.64022,0.65003
7099.71148,0.64945
7097.78273,0.64919
7095.85399,0.65114
7093.92524,0.65313
7091.99649,0.65210
7090.06775,0.64903
7088.13900,0.64700
7086.21026,0.64639
7084.28151,0.64700
7082.35277,0.64966
7080.42402,0.65394
7078.49528,0.65875
7076.56653,0.66157
7074.63779,0.65938
7072.70904,0.65435
7070.78030,0.65158
7068.85155,0.65203
7066.92281,0.65337
7064.99406,0.65425
7063.06532,0.65462
7061.13657,0.65406
7059.20782,0.65280
7057.27908,0.65282
7055.35033,0.65434
7053.42159,0.65553
7051.49284,0.65638
7049.56410,0.65757
7047.63535,0.65707
7045.70661,0.65355
7043.77786,0.65035
7041.84912,0.64975
7039.92037,0.65039
7037.99163,0.65219
7036.06288,0.65497
7034.13414,0.65731
7032.20539,0.65749
7030.27664,0.65462
7028.34790,0.65171
7026.41915,0.65155
7024.49041,0.65291
7022.56166,0.65402
7020.63292,0.65366
7018.70417,0.65279
7016.77543,0.65472
7014.84668,0.65911
7012.91794,0.66092
7010.98919,0.65729
7009.06045,0.65196
7007.13170,0.64958
7005.20296,0.64935
7003.27421,0.64977
7001.34547,0.65210
6999.41672,0.65428
6997.48797,0.65322
6995.55923,0.65129
6993.63048,0.65014
6991.70174,0.64939
6989.77299,0.65233
6987.84425,0.65771
6985.91550,0.65786
6983.98676,0.65262
6982.05801,0.64846
6980.12927,0.64777
6978.20052,0.64996
6976.27178,0.65348
6974.34303,0.65530
6972.41429,0.65486
6970.48554,0.65326
6968.55680,0.65113
6966.62805,0.65030
6964.69930,0.65195
6962.77056,0.65553
6960.84181,0.65804
6958.91307,0.65744
6956.98432,0.65617
6955.05558,0.65499
6953.12683,0.65490
6951.19809,0.65785
6949.26934,0.66055
6947.34060,0.66061
6945.41185,0.65916
6943.48311,0.65711
6941.55436,0.65655
6939.62562,0.65721
6937.69687,0.65595
6935.76812,0.65344
6933.83938,0.65227
6931.91063,0.65268
6929.98189,0.65486
6928.05314,0.65775
6926.12440,0.65898
6924.19565,0.65918
6922.26691,0.65982
6920.33816,0.65975
6918.40942,0.65848
6916.48067,0.65757
6914.55193,0.65700
6912.62318,0.65581
6910.69444,0.65512
6908.76569,0.65554
6906.83695,0.65546
6904.90820,0.65492
6902.97945,0.65543
6901.05071,0.65610
6899.12196,0.65616
6897.19322,0.65715
6895.26447,0.65873
6893.33573,0.65964
6891.40698,0.66080
6889.47824,0.66210
6887.54949,0.66216
6885.62075,0.66095
6883.69200,0.65843
6881.76326,0.65624
6879.83451,0.65725
6877.90577,0.65863
6875.97702,0.65674
6874.04828,0.65399
6872.11953,0.65251
6870.19078,0.65174
6868.26204,0.65233
6866.33329,0.65557
6864.40455,0.65969
6862.47580,0.66134
6860.54706,0.66060
6858.61831,0.65914
6856.68957,0.65733
6854.76082,0.65562
6852.83208,0.65436
6850.90333,0.65376
6848.97459,0.65381
6847.04584,0.65440
6845.11710,0.65601
6843.18835,0.65721
6841.25960,0.65689
6839.33086,0.65809
6837.40211,0.66133
6835.47337,0.66267
6833.54462,0.66115
6831.61588,0.65832
6829.68713,0.65573
6827.75839,0.65481
6825.82964,0.65530
6823.90090,0.65598
6821.97215,0.65603
6820.04341,0.65517
6818.11466,0.65415
6816.18592,0.65438
6814.25717,0.65637
6812.32843,0.65932
6810.39968,0.66121
6808.47093,0.66085
6806.54219,0.65981
6804.61344,0.66036
6802.68470,0.66245
6800.75595,0.66149
6798.82721,0.65522
6796.89846,0.65008
6794.96972,0.65084
6793.04097,0.65509
6791.11223,0.65889
6789.18348,0.66033
6787.25474,0.65922
6785.32599,0.65550
6783.39725,0.65236
6781.46850,0.65297
6779.53975,0.65412
6777.61101,0.65281
6775.68226,0.64997
6773.75352,0.64735
6771.82477,0.64767
6769.89603,0.65133
6767.96728,0.65413
6766.03854,0.65406
6764.10979,0.65377
6762.18105,0.65402
6760.25230,0.65299
6758.32356,0.65121
6756.39481,0.65048
6754.46607,0.65024
6752.53732,0.65013
6750.60858,0.65122
6748.67983,0.65131
6746.75108,0.64802
6744.82234,0.64412
6742.89359,0.64200
6740.96485,0.64049
6739.03610,0.63976
6737.10736,0.64098
6735.17861,0.64298
6733.24987,0.64465
6731.32112,0.64580
6729.39238,0.64582
6727.46363,0.64485
6725.53489,0.64303
6723.60614,0.64093
6721.67740,0.64054
6719.74865,0.64090
6717.81991,0.63997
6715.89116,0.63995
6713.96241,0.64171
6712.03367,0.64258
6710.10492,0.64131
6708.17618,0.63808
6706.24743,0.63513
6704.31869,0.63513
6702.38994,0.63671
6700.46120,0.63755
6698.53245,0.63699
6696.60371,0.63524
6694.67496,0.63370
6692.74622,0.63279
6690.81747,0.63152
6688.88873,0.63022
6686.95998,0.62892
6685.03123,0.62681
6683.10249,0.62529
6681.17374,0.62555
6679.24500,0.62622
6677.31625,0.62649
6675.38751,0.62690
6673.45876,0.62678
6671.53002,0.62571
6669.60127,0.62632
6667.67253,0.62899
6665.74378,0.62955
6663.81504,0.62693
6661.88629,0.62430
6659.95755,0.62356
6658.02880,0.62393
6656.10006,0.62454
6654.17131,0.62572
6652.24256,0.62783
6650.31382,0.62942
6648.38507,0.62864
6646.45633,0.62702
6644.52758,0.62652
6642.59884,0.62603
6640.67009,0.62558
6638.74135,0.62666
6636.81260,0.62846
6634.88386,0.62871
6632.95511,0.62715
6631.02637,0.62561
6629.09762,0.62511
6627.16888,0.62562
6625.24013,0.62733
6623.31139,0.62928
6621.38264,0.62929
6619.45389,0.62794
6617.52515,0.62851
6615.59640,0.63082
6613.66766,0.63126
6611.73891,0.62996
6609.81017,0.62932
6607.88142,0.62818
6605.95268,0.62615
6604.02393,0.62573
6602.09519,0.62713
6600.16644,0.62786
6598.23770,0.62660
6596.30895,0.62546
6594.38021,0.62641
6592.45146,0.62816
6590.52271,0.62956
6588.59397,0.63052
6586.66522,0.63000
6584.73648,0.62837
6582.80773,0.62729
6580.87899,0.62683
6578.95024,0.62777
6577.02150,0.63117
6575.09275,0.63416
6573.16401,0.63372
6571.23526,0.63105
6569.30652,0.62823
6567.37777,0.62645
6565.44903,0.62662
6563.52028,0.62793
6561.59154,0.62942
6559.66279,0.63217
6557.73404,0.63605
6555.80530,0.63892
6553.87655,0.63970
6551.94781,0.63892
6550.01906,0.63823
6548.09032,0.63843
6546.16157,0.63786
6544.23283,0.63496
6542.30408,0.63154
6540.37534,0.63144
6538.44659,0.63497
6536.51785,0.63857
6534.58910,0.63967
6532.66036,0.63889
6530.73161,0.63880
6528.80287,0.63981
6526.87412,0.64020
6524.94537,0.64065
6523.01663,0.64263
6521.08788,0.64438
6519.15914,0.64455
6517.23039,0.64470
6515.30165,0.64577
6513.37290,0.64733
6511.44416,0.64828
6509.51541,0.64713
6507.58667,0.64423
6505.65792,0.64229
6503.72918,0.64306
6501.80043,0.64467
6499.87169,0.64544
6497.94294,0.64631
6496.01419,0.64658
6494.08545,0.64527
6492.15670,0.64459
6490.22796,0.64565
6488.29921,0.64727
6486.37047,0.64920
6484.44172,0.65111
6482.51298,0.65219
6480.58423,0.65090
6478.65549,0.64755
6476.72674,0.64646
6474.79800,0.64810
6472.86925,0.64863
6470.94051,0.64765
6469.01176,0.64781
6467.08302,0.65012
6465.15427,0.65201
6463.22552,0.65165
6461.29678,0.64994
6459.36803,0.64843
6457.43929,0.64853
6455.51054,0.64959
6453.58180,0.65015
6451.65305,0.64998
6449.72431,0.64949
6447.79556,0.64969
6445.86682,0.65075
6443.93807,0.65091
6442.00933,0.64978
6440.08058,0.64919
6438.15184,0.64960
6436.22309,0.65029
6434.29434,0.65107
6432.36560,0.65211
6430.43685,0.65286
6428.50811,0.65262
6426.57936,0.65276
6424.65062,0.65352
6422.72187,0.65380
6420.79313,0.65443
6418.86438,0.65498
6416.93564,0.65458
6415.00689,0.65457
6413.07815,0.65474
6411.14940,0.65406
6409.22066,0.65375
6407.29191,0.65395
6405.36317,0.65388
6403.43442,0.65391
6401.50567,0.65363
6399.57693,0.65314
6397.64818,0.65338
6395.71944,0.65464
6393.79069,0.65613
6391.86195,0.65574
6389.93320,0.65394
6388.00446,0.65340
6386.07571,0.65445
6384.14697,0.65648
6382.21822,0.65826
6380.28948,0.65818
6378.36073,0.65653
6376.43199,0.65402
6374.50324,0.65160
6372.57450,0.65158
6370.64575,0.65447
6368.71700,0.65714
6366.78826,0.65708
6364.85951,0.65594
6362.93077,0.65546
6361.00202,0.65476
6359.07328,0.65396
6357.14453,0.65381
6355.21579,0.65303
6353.28704,0.65143
6351.35830,0.65114
6349.42955,0.65202
6347.50081,0.65180
6345.57206,0.65104
6343.64332,0.65165
6341.71457,0.65305
6339.78582,0.65354
6337.85708,0.65292
6335.92833,0.65174
6333.99959,0.65121
6332.07084,0.65251
6330.14210,0.65400
6328.21335,0.65394
6326.28461,0.65341
6324.35586,0.65357
6322.42712,0.65414
6320.49837,0.65391
6318.56963,0.65215
6316.64088,0.65076
6314.71214,0.65208
6312.78339,0.65453
6310.85465,0.65490
6308.92590,0.65285
6306.99715,0.65052
6305.06841,0.64987
6303.13966,0.65028
6301.21092,0.65021
6299.28217,0.65015
6297.35343,0.65074
6295.42468,0.65222
6293.49594,0.65433
6291.56719,0.65468
6289.63845,0.65227
6287.70970,0.64986
6285.78096,0.64921
6283.85221,0.64984
6281.92347,0.65110
6279.99472,0.65161
6278.06598,0.65143
6276.13723,0.65224
6274.20848,0.65391
6272.27974,0.65532
6270.35099,0.65557
6268.42225,0.65351
6266.49350,0.65026
6264.56476,0.64888
6262.63601,0.64983
6260.70727,0.65096
6258.77852,0.65111
6256.84978,0.65147
6254.92103,0.65249
6252.99229,0.65173
6251.06354,0.64920
6249.13480,0.64811
6247.20605,0.64859
6245.27730,0.64977
6243.34856,0.65214
6241.41981,0.65357
6239.49107,0.65277
6237.56232,0.65162
6235.63358,0.65092
6233.70483,0.65158
6231.77609,0.65405
6229.84734,0.65542
6227.91860,0.65455
6225.98985,0.65374
6224.06111,0.65404
6222.13236,0.65481
6220.20362,0.65490
6218.27487,0.65315
6216.34613,0.65079
6214.41738,0.64979
6212.48863,0.64911
6210.55989,0.64807
6208.63114,0.64898
6206.70240,0.65159
6204.77365,0.65265
6202.84491,0.65230
6200.91616,0.65285
6198.98742,0.65371
6197.05867,0.65327
6195.12993,0.65227
6193.20118,0.65187
6191.27244,0.65178
6189.34369,0.65188
6187.41495,0.65253
6185.48620,0.65267
6183.55746,0.65131
6181.62871,0.65002
6179.69996,0.64960
6177.77122,0.64886
6175.84247,0.64897
6173.91373,0.65104
6171.98498,0.65246
6170.05624,0.65113
6168.12749,0.64863
6166.19875,0.64770
6164.27000,0.64826
6162.34126,0.64835
6160.41251,0.64782
6158.48377,0.64704
6156.55502,0.64588
6154.62628,0.64534
6152.69753,0.64628
6150.76878,0.64780
6148.84004,0.64847
6146.91129,0.64727
6144.98255,0.64494
6143.05380,0.64373
6141.12506,0.64430
6139.19631,0.64526
6137.26757,0.64574
6135.33882,0.64606
6133.41008,0.64645
6131.48133,0.64560
6129.55259,0.64330
6127.62384,0.64250
6125.69510,0.64368
6123.76635,0.64364
6121.83761,0.64233
6119.90886,0.64204
6117.98011,0.64274
6116.05137,0.64337
6114.12262,0.64344
6112.19388,0.64287
6110.26513,0.64093
6108.33639,0.63783
6106.40764,0.63595
6104.47890,0.63569
6102.55015,0.63521
6100.62141,0.63523
6098.69266,0.63676
6096.76392,0.63778
6094.83517,0.63743
6092.90643,0.63751
6090.97768,0.63830
6089.04893,0.63827
6087.12019,0.63706
6085.19144,0.63607
6083.26270,0.63624
6081.33395,0.63705
6079.40521,0.63743
6077.47646,0.63662
6075.54772,0.63530
6073.61897,0.63453
6071.69023,0.63396
6069.76148,0.63292
6067.83274,0.63181
6065.90399,0.63148
6063.97525,0.63231
6062.04650,0.63381
6060.11776,0.63421
6058.18901,0.63268
6056.26026,0.63037
6054.33152,0.62828
6052.40277,0.62661
6050.47403,0.62591
6048.54528,0.62622
6046.61654,0.62621
6044.68779,0.62631
6042.75905,0.62741
6040.83030,0.62767
6038.90156,0.62660
6036.97281,0.62520
6035.04407,0.62372
6033.11532,0.62302
6031.18658,0.62277
6029.25783,0.62190
6027.32909,0.62127
6025.40034,0.62162
6023.47159,0.62170
6021.54285,0.62083
6019.61410,0.61976
6017.68536,0.61852
6015.75661,0.61687
6013.82787,0.61528
6011.89912,0.61464
6009.97038,0.61484
6008.04163,0.61488
6006.11289,0.61392
6004.18414,0.61179
6002.25540,0.60969
6000.32665,0.60851
5998.39791,0.60713
5996.46916,0.60481
5994.54041,0.60244
5992.61167,0.60106
5990.68292,0.60015
5988.75418,0.59821
5986.82543,0.59551
5984.89669,0.59348
5982.96794,0.59165
5981.03920,0.58917
5979.11045,0.58712
5977.18171,0.58554
5975.25296,0.58258
5973.32422,0.57858
5971.39547,0.57594
5969.46673,0.57395
5967.53798,0.56984
5965.60924,0.56426
5963.68049,0.55979
5961.75174,0.55693
5959.82300,0.55465
5957.89425,0.55198
5955.96551,0.54863
5954.03676,0.54506
5952.10802,0.54198
5950.17927,0.53949
5948.25053,0.53697
5946.32178,0.53427
5944.39304,0.53230
5942.46429,0.53175
5940.53555,0.53155
5938.60680,0.53095
5936.67806,0.53109
5934.74931,0.53266
5932.82057,0.53463
5930.89182,0.53626
5928.96307,0.53775
5927.03433,0.53927
5925.10558,0.54037
5923.17684,0.54013
5921.24809,0.53908
5919.31935,0.53862
5917.39060,0.53807
5915.46186,0.53578
5913.53311,0.53215
5911.60437,0.52927
5909.67562,0.52827
5907.74688,0.52761
5905.81813,0.52568
5903.88939,0.52403
5901.96064,0.52381
5900.03189,0.52339
5898.10315,0.52266
5896.17440,0.52295
5894.24566,0.52385
5892.31691,0.52490
5890.38817,0.52656
5888.45942,0.52929
5886.53068,0.53346
5884.60193,0.53810
5882.67319,0.54110
5880.74444,0.54198
5878.81570,0.54252
5876.88695,0.54411
5874.95821,0.54601
5873.02946,0.54718
5871.10072,0.54756
5869.17197,0.54745
5867.24322,0.54766
5865.31448,0.54828
5863.38573,0.54838
5861.45699,0.54778
5859.52824,0.54723
5857.59950,0.54695
5855.67075,0.54651
5853.74201,0.54636
5851.81326,0.54683
5849.88452,0.54704
5847.95577,0.54665
5846.02703,0.54576
5844.09828,0.54423
5842.16954,0.54292
5840.24079,0.54286
5838.31205,0.54272
5836.38330,0.54146
5834.45455,0.53982
5832.52581,0.53799
5830.59706,0.53664
5828.66832,0.53649
5826.73957,0.53609
5824.81083,0.53516
5822.88208,0.53490
5820.95334,0.53416
5819.02459,0.53223
5817.09585,0.53083
5815.16710,0.53022
5813.23836,0.52962
5811.30961,0.52844
5809.38087,0.52647
5807.45212,0.52445
5805.52337,0.52234
5803.59463,0.52028
5801.66588,0.51970
5799.73714,0.52041
5797.80839,0.52062
5795.87965,0.51923
5793.95090,0.51621
5792.02216,0.51317
5790.09341,0.51217
5788.16467,0.51222
5786.23592,0.51118
5784.30718,0.50986
5782.37843,0.50958
5780.44969,0.50926
5778.52094,0.50839
5776.59220,0.50822
5774.66345,0.50902
5772.73470,0.50994
5770.80596,0.51021
5768.87721,0.50968
5766.94847,0.50931
5765.01972,0.50989
5763.09098,0.51120
5761.16223,0.51232
5759.23349,0.51280
5757.30474,0.51376
5755.37600,0.51563
5753.44725,0.51722
5751.51851,0.51803
5749.58976,0.51904
5747.66102,0.52074
5745.73227,0.52236
5743.80352,0.52309
5741.87478,0.52361
5739.94603,0.52554
5738.01729,0.52849
5736.08854,0.53065
5734.15980,0.53211
5732.23105,0.53410
5730.30231,0.53656
5728.37356,0.53862
5726.44482,0.54025
5724.51607,0.54192
5722.58733,0.54339
5720.65858,0.54461
5718.72984,0.54633
5716.80109,0.54836
5714.87235,0.54997
5712.94360,0.55120
5711.01485,0.55226
5709.08611,0.55327
5707.15736,0.55396
5705.22862,0.55450
5703.29987,0.55574
5701.37113,0.55750
5699.44238,0.55914
5697.51364,0.56055
5695.58489,0.56146
5693.65615,0.56115
5691.72740,0.55999
5689.79866,0.55951
5687.86991,0.55984
5685.94117,0.56021
5684.01242,0.56079
5682.08368,0.56142
5680.15493,0.56099
5678.22618,0.55927
5676.29744,0.55789
5674.36869,0.55802
5672.43995,0.55878
5670.51120,0.55928
5668.58246,0.55953
5666.65371,0.55939
5664.72497,0.55895
5662.79622,0.55847
5660.86748,0.55822
5658.93873,0.55878
5657.00999,0.55991
5655.08124,0.56088
5653.15250,0.56146
5651.22375,0.56185
5649.29500,0.56272
5647.36626,0.56408
5645.43751,0.56511
5643.50877,0.56561
5641.58002,0.56587
5639.65128,0.56627
5637.72253,0.56731
5635.79379,0.56865
5633.86504,0.56955
5631.93630,0.57045
5630.00755,0.57180
5628.07881,0.57330
5626.15006,0.57458
5624.22132,0.57554
5622.29257,0.57637
5620.36383,0.57692
5618.43508,0.57735
5616.50633,0.57844
5614.57759,0.57988
5612.64884,0.58039
5610.72010,0.57969
5608.79135,0.57922
5606.86261,0.58031
5604.93386,0.58191
5603.00512,0.58237
5601.07637,0.58220
5599.14763,0.58235
5597.21888,0.58226
5595.29014,0.58155
5593.36139,0.58095
5591.43265,0.58138
5589.50390,0.58244
5587.57516,0.58264
5585.64641,0.58164
5583.71766,0.58070
5581.78892,0.58069
5579.86017,0.58122
5577.93143,0.58147
5576.00268,0.58107
5574.07394,0.58055
5572.14519,0.58082
5570.21645,0.58155
5568.28770,0.58144
5566.35896,0.58056
5564.43021,0.58037
5562.50147,0.58146
5560.57272,0.58280
5558.64398,0.58321
5556.71523,0.58286
5554.78648,0.58242
5552.85774,0.58220
5550.92899,0.58204
5549.00025,0.58183
5547.07150,0.58224
5545.14276,0.58297
5543.21401,0.58251
5541.28527,0.58134
5539.35652,0.58131
5537.42778,0.58250
5535.49903,0.58349
5533.57029,0.58341
5531.64154,0.58260
5529.71280,0.58231
5527.78405,0.58307
5525.85531,0.58370
5523.92656,0.58340
5521.99781,0.58274
5520.06907,0.58224
5518.14032,0.58232
5516.21158,0.58292
5514.28283,0.58315
5512.35409,0.58315
5510.42534,0.58377
5508.49660,0.58476
5506.56785,0.58546
5504.63911,0.58568
5502.71036,0.58557
5500.78162,0.58585
5498.85287,0.58664
5496.92413,0.58725
5494.99538,0.58790
5493.06664,0.58862
5491.13789,0.58874
5489.20914,0.58855
5487.28040,0.58798
5485.35165,0.58697
5483.42291,0.58689
5481.49416,0.58791
5479.56542,0.58852
5477.63667,0.58806
5475.70793,0.58735
5473.77918,0.58728
5471.85044,0.58767
5469.92169,0.58830
5467.99295,0.58970
5466.06420,0.59132
5464.13546,0.59168
5462.20671,0.59103
5460.27796,0.59044
5458.34922,0.58979
5456.42047,0.58889
5454.49173,0.58846
5452.56298,0.58901
5450.63424,0.58994
5448.70549,0.59041
5446.77675,0.59009
5444.84800,0.58982
5442.91926,0.59053
5440.99051,0.59175
5439.06177,0.59281
5437.13302,0.59358
5435.20428,0.59394
5433.27553,0.59383
5431.34679,0.59360
5429.41804,0.59405
5427.48929,0.59550
5425.56055,0.59717
5423.63180,0.59847
5421.70306,0.59957
5419.77431,0.60079
5417.84557,0.60191
5415.91682,0.60236
5413.98808,0.60244
5412.05933,0.60297
5410.13059,0.60413
5408.20184,0.60527
5406.27310,0.60620
5404.34435,0.60752
5402.41561,0.60876
5400.48686,0.60928
5398.55811,0.60995
5396.62937,0.61113
5394.70062,0.61197
5392.77188,0.61212
5390.84313,0.61182
5388.91439,0.61182
5386.98564,0.61301
5385.05690,0.61469
5383.12815,0.61520
5381.19941,0.61463
5379.27066,0.61436
5377.34192,0.61505
5375.41317,0.61606
5373.48443,0.61636
5371.55568,0.61600
5369.62694,0.61592
5367.69819,0.61648
5365.76944,0.61736
5363.84070,0.61814
5361.91195,0.61811
5359.98321,0.61716
5358.05446,0.61633
5356.12572,0.61624
5354.19697,0.61654
5352.26823,0.61698
5350.33948,0.61716
5348.41074,0.61661
5346.48199,0.61611
5344.55325,0.61652
5342.62450,0.61685
5340.69576,0.61619
5338.76701,0.61579
5336.83827,0.61669
5334.90952,0.61760
5332.98077,0.61784
5331.05203,0.61827
5329.12328,0.61882
5327.19454,0.61903
5325.26579,0.61921
5323.33705,0.61968
5321.40830,0.62025
5319.47956,0.62050
5317.55081,0.62040
5315.62207,0.62013
5313.69332,0.61996
5311.76458,0.62033
5309.83583,0.62097
5307.90709,0.62092
5305.97834,0.62037
5304.04959,0.62006
5302.12085,0.61972
5300.19210,0.61905
5298.26336,0.61844
5296.33461,0.61804
5294.40587,0.61765
5292.47712,0.61740
5290.54838,0.61770
5288.61963,0.61820
5286.69089,0.61785
5284.76214,0.61714
5282.83340,0.61766
5280.90465,0.61858
5278.97591,0.61774
5277.04716,0.61578
5275.11842,0.61490
5273.18967,0.61527
5271.26092,0.61536
5269.33218,0.61454
5267.40343,0.61377
5265.47469,0.61362
5263.54594,0.61363
5261.61720,0.61357
5259.68845,0.61375
5257.75971,0.61397
5255.83096,0.61320
5253.90222,0.61167
5251.97347,0.61112
5250.04473,0.61137
5248.11598,0.61100
5246.18724,0.61049
5244.25849,0.61057
5242.32975,0.61054
5240.40100,0.61029
5238.47225,0.61009
5236.54351,0.60970
5234.61476,0.60918
5232.68602,0.60889
5230.75727,0.60886
5228.82853,0.60848
5226.89978,0.60769
5224.97104,0.60744
5223.04229,0.60776
5221.11355,0.60765
5219.18480,0.60691
5217.25606,0.60640
5215.32731,0.60658
5213.39857,0.60690
5211.46982,0.60664
5209.54107,0.60574
5207.61233,0.60525
5205.68358,0.60593
5203.75484,0.60669
5201.82609,0.60646
5199.89735,0.60573
5197.96860,0.60538
5196.03986,0.60553
5194.11111,0.60596
5192.18237,0.60635
5190.25362,0.60640
5188.32488,0.60625
5186.39613,0.60621
5184.46739,0.60624
5182.53864,0.60629
5180.60990,0.60673
5178.68115,0.60790
5176.75240,0.60914
5174.82366,0.60951
5172.89491,0.60878
5170.96617,0.60762
5169.03742,0.60703
5167.10868,0.60698
5165.17993,0.60699
5163.25119,0.60722
5161.32244,0.60768
5159.39370,0.60812
5157.46495,0.60848
5155.53621,0.60838
5153.60746,0.60800
5151.67872,0.60801
5149.74997,0.60808
5147.82123,0.60801
5145.89248,0.60821
5143.96373,0.60851
5142.03499,0.60861
5140.10624,0.60840
5138.17750,0.60759
5136.24875,0.60651
5134.32001,0.60601
5132.39126,0.60621
5130.46252,0.60665
5128.53377,0.60688
5126.60503,0.60659
5124.67628,0.60616
5122.74754,0.60606
5120.81879,0.60617
5118.89005,0.60616
5116.96130,0.60586
5115.03255,0.60526
5113.10381,0.60461
5111.17506,0.60438
5109.24632,0.60438
5107.31757,0.60424
5105.38883,0.60407
5103.46008,0.60358
5101.53134,0.60243
5099.60259,0.60116
5097.67385,0.60062
5095.74510,0.60095
5093.81636,0.60110
5091.88761,0.59998
5089.95887,0.59849
5088.03012,0.59818
5086.10138,0.59839
5084.17263,0.59773
5082.24388,0.59626
5080.31514,0.59470
5078.38639,0.59347
5076.45765,0.59255
5074.52890,0.59200
5072.60016,0.59206
5070.67141,0.59211
5068.74267,0.59137
5066.81392,0.59031
5064.88518,0.58958
5062.95643,0.58893
5061.02769,0.58832
5059.09894,0.58815
5057.17020,0.58803
5055.24145,0.58736
5053.31270,0.58611
5051.38396,0.58477
5049.45521,0.58410
5047.52647,0.58384
5045.59772,0.58297
5043.66898,0.58183
5041.74023,0.58112
5039.81149,0.58029
5037.88274,0.57917
5035.95400,0.57840
5034.02525,0.57782
5032.09651,0.57703
5030.16776,0.57618
5028.23902,0.57535
5026.31027,0.57445
5024.38153,0.57349
5022.45278,0.57235
5020.52403,0.57095
5018.59529,0.56933
5016.66654,0.56824
5014.73780,0.56824
5012.80905,0.56873
5010.88031,0.56891
5008.95156,0.56818
5007.02282,0.56658
5005.09407,0.56482
5003.16533,0.56324
5001.23658,0.56209
4999.30784,0.56146
4997.37909,0.56085
4995.45035,0.55988
4993.52160,0.55852
4991.59286,0.55695
4989.66411,0.55548
4987.73536,0.55421
4985.80662,0.55299
4983.87787,0.55172
4981.94913,0.55038
4980.02038,0.54871
4978.09164,0.54674
4976.16289,0.54514
4974.23415,0.54380
4972.30540,0.54200
4970.37666,0.54004
4968.44791,0.53829
4966.51917,0.53648
4964.59042,0.53455
4962.66168,0.53265
4960.73293,0.53077
4958.80418,0.52867
4956.87544,0.52634
4954.94669,0.52452
4953.01795,0.52332
4951.08920,0.52159
4949.16046,0.51908
4947.23171,0.51687
4945.30297,0.51504
4943.37422,0.51281
4941.44548,0.51071
4939.51673,0.50960
4937.58799,0.50888
4935.65924,0.50749
4933.73050,0.50560
4931.80175,0.50412
4929.87301,0.50306
4927.94426,0.50179
4926.01551,0.50042
4924.08677,0.49937
4922.15802,0.49813
4920.22928,0.49644
4918.30053,0.49522
4916.37179,0.49484
4914.44304,0.49420
4912.51430,0.49257
4910.58555,0.49041
4908.65681,0.48834
4906.72806,0.48676
4904.79932,0.48549
4902.87057,0.48418
4900.94183,0.48313
4899.01308,0.48241
4897.08434,0.48143
4895.15559,0.48015
4893.22684,0.47890
4891.29810,0.47797
4889.36935,0.47737
4887.44061,0.47655
4885.51186,0.47574
4883.58312,0.47544
4881.65437,0.47493
4879.72563,0.47395
4877.79688,0.47303
4875.86814,0.47212
4873.93939,0.47126
4872.01065,0.47062
4870.08190,0.46985
4868.15316,0.46851
4866.22441,0.46680
4864.29566,0.46554
4862.36692,0.46491
4860.43817,0.46417
4858.50943,0.46337
4856.58068,0.46281
4854.65194,0.46177
4852.72319,0.46056
4850.79445,0.46014
4848.86570,0.45989
4846.93696,0.45932
4845.00821,0.45923
4843.07947,0.45959
4841.15072,0.45998
4839.22198,0.46049
4837.29323,0.46104
4835.36449,0.46162
4833.43574,0.46235
4831.50699,0.46304
4829.57825,0.46354
4827.64950,0.46407
4825.72076,0.46502
4823.79201,0.46609
4821.86327,0.46684
4819.93452,0.46777
4818.00578,0.46929
4816.07703,0.47090
4814.14829,0.47216
4812.21954,0.47313
4810.29080,0.47403
4808.36205,0.47480
4806.43331,0.47538
4804.50456,0.47632
4802.57582,0.47788
4800.64707,0.47979
4798.71832,0.48160
4796.78958,0.48293
4794.86083,0.48407
4792.93209,0.48558
4791.00334,0.48731
4789.07460,0.48851
4787.14585,0.48914
4785.21711,0.48999
4783.28836,0.49108
4781.35962,0.49204
4779.43087,0.49296
4777.50213,0.49394
4775.57338,0.49512
4773.64464,0.49650
4771.71589,0.49769
4769.78714,0.49868
4767.85840,0.49967
4765.92965,0.50052
4764.00091,0.50130
4762.07216,0.50222
4760.14342,0.50312
4758.21467,0.50386
4756.28593,0.50457
4754.35718,0.50514
4752.42844,0.50514
4750.49969,0.50498
4748.57095,0.50539
4746.64220,0.50588
4744.71346,0.50582
4742.78471,0.50581
4740.85597,0.50629
4738.92722,0.50672
4736.99847,0.50682
4735.06973,0.50678
4733.14098,0.50658
4731.21224,0.50632
4729.28349,0.50597
4727.35475,0.50548
4725.42600,0.50516
4723.49726,0.50505
4721.56851,0.50482
4719.63977,0.50459
4717.71102,0.50453
4715.78228,0.50427
4713.85353,0.50368
4711.92479,0.50302
4709.99604,0.50242
4708.06729,0.50194
4706.13855,0.50150
4704.20980,0.50112
4702.28106,0.50061
4700.35231,0.49959
4698.42357,0.49818
4696.49482,0.49729
4694.56608,0.49734
4692.63733,0.49732
4690.70859,0.49640
4688.77984,0.49488
4686.85110,0.49322
4684.92235,0.49167
4682.99361,0.49029
4681.06486,0.48901
4679.13612,0.48792
4677.20737,0.48695
4675.27862,0.48581
4673.34988,0.48436
4671.42113,0.48265
4669.49239,0.48112
4667.56364,0.48007
4665.63490,0.47907
4663.70615,0.47821
4661.77741,0.47769
4659.84866,0.47688
4657.91992,0.47585
4655.99117,0.47519
4654.06243,0.47455
4652.13368,0.47357
4650.20494,0.47277
4648.27619,0.47250
4646.34745,0.47246
4644.41870,0.47240
4642.48995,0.47231
4640.56121,0.47216
4638.63246,0.47169
4636.70372,0.47086
4634.77497,0.47023
4632.84623,0.47014
4630.91748,0.47013
4628.98874,0.46980
4627.05999,0.46911
4625.13125,0.46840
4623.20250,0.46806
4621.27376,0.46812
4619.34501,0.46827
4617.41627,0.46814
4615.48752,0.46783
4613.55877,0.46768
4611.63003,0.46766
4609.70128,0.46781
4607.77254,0.46813
4605.84379,0.46831
4603.91505,0.46826
4601.98630,0.46825
4600.05756,0.46835
4598.12881,0.46832
4596.20007,0.46819
4594.27132,0.46807
4592.34258,0.46798
4590.41383,0.46812
4588.48509,0.46856
4586.55634,0.46918
4584.62760,0.46952
4582.69885,0.46943
4580.77010,0.46959
4578.84136,0.47001
4576.91261,0.46990
4574.98387,0.46922
4573.05512,0.46850
4571.12638,0.46813
4569.19763,0.46795
4567.26889,0.46756
4565.34014,0.46725
4563.41140,0.46732
4561.48265,0.46715
4559.55391,0.46638
4557.62516,0.46549
4555.69642,0.46469
4553.76767,0.46393
4551.83893,0.46353
4549.91018,0.46379
4547.98143,0.46423
4546.05269,0.46421
4544.12394,0.46364
4542.19520,0.46295
4540.26645,0.46250
4538.33771,0.46225
4536.40896,0.46207
4534.48022,0.46194
4532.55147,0.46200
4530.62273,0.46233
4528.69398,0.46256
4526.76524,0.46231
4524.83649,0.46186
4522.90775,0.46179
4520.97900,0.46193
4519.05025,0.46151
4517.12151,0.46051
4515.19276,0.45965
4513.26402,0.45933
4511.33527,0.45921
4509.40653,0.45872
4507.47778,0.45795
4505.54904,0.45728
4503.62029,0.45686
4501.69155,0.45665
4499.76280,0.45643
4497.83406,0.45603
4495.90531,0.45544
4493.97657,0.45467
4492.04782,0.45369
4490.11908,0.45246
4488.19033,0.45111
4486.26158,0.44994
4484.33284,0.44894
4482.40409,0.44773
4480.47535,0.44624
4478.54660,0.44479
4476.61786,0.44344
4474.68911,0.44177
4472.76037,0.43941
4470.83162,0.43669
4468.90288,0.43420
4466.97413,0.43193
4465.04539,0.42922
4463.11664,0.42572
4461.18790,0.42182
4459.25915,0.41798
4457.33041,0.41412
4455.40166,0.40969
4453.47291,0.40453
4451.54417,0.39906
4449.61542,0.39339
4447.68668,0.38752
4445.75793,0.38168
4443.82919,0.37565
4441.90044,0.36903
4439.97170,0.36206
4438.04295,0.35513
4436.11421,0.34814
4434.18546,0.34109
4432.25672,0.33430
4430.32797,0.32788
4428.39923,0.32174
4426.47048,0.31597
4424.54173,0.31064
4422.61299,0.30568
4420.68424,0.30097
4418.75550,0.29660
4416.82675,0.29300
4414.89801,0.29057
4412.96926,0.28929
4411.04052,0.28895
4409.11177,0.28942
4407.18303,0.29068
4405.25428,0.29273
4403.32554,0.29521
4401.39679,0.29763
4399.46805,0.29995
4397.53930,0.30195
4395.61056,0.30335
4393.68181,0.30402
4391.75306,0.30378
4389.82432,0.30291
4387.89557,0.30188
4385.96683,0.30069
4384.03808,0.29896
4382.10934,0.29649
4380.18059,0.29380
4378.25185,0.29144
4376.32310,0.28920
4374.39436,0.28682
4372.46561,0.28417
4370.53687,0.28115
4368.60812,0.27786
4366.67938,0.27432
4364.75063,0.27063
4362.82189,0.26695
4360.89314,0.26319
4358.96439,0.25954
4357.03565,0.25606
4355.10690,0.25232
4353.17816,0.24845
4351.24941,0.24505
4349.32067,0.24240
4347.39192,0.24029
4345.46318,0.23848
4343.53443,0.23692
4341.60569,0.23550
4339.67694,0.23393
4337.74820,0.23255
4335.81945,0.23196
4333.89071,0.23184
4331.96196,0.23171
4330.03321,0.23184
4328.10447,0.23227
4326.17572,0.23282
4324.24698,0.23378
4322.31823,0.23550
4320.38949,0.23774
4318.46074,0.24006
4316.53200,0.24249
4314.60325,0.24523
4312.67451,0.24831
4310.74576,0.25168
4308.81702,0.25557
4306.88827,0.25999
4304.95953,0.26423
4303.03078,0.26784
4301.10204,0.27114
4299.17329,0.27441
4297.24454,0.27745
4295.31580,0.27997
4293.38705,0.28217
4291.45831,0.28440
4289.52956,0.28624
4287.60082,0.28711
4285.67207,0.28748
4283.74333,0.28795
4281.81458,0.28844
4279.88584,0.28856
4277.95709,0.28843
4276.02835,0.28859
4274.09960,0.28891
4272.17086,0.28893
4270.24211,0.28890
4268.31336,0.28937
4266.38462,0.29042
4264.45587,0.29195
4262.52713,0.29375
4260.59838,0.29542
4258.66964,0.29693
4256.74089,0.29859
4254.81215,0.30044
4252.88340,0.30212
4250.95466,0.30320
4249.02591,0.30367
4247.09717,0.30401
4245.16842,0.30464
4243.23968,0.30541
4241.31093,0.30614
4239.38219,0.30674
4237.45344,0.30724
4235.52469,0.30796
4233.59595,0.30889
4231.66720,0.30978
4229.73846,0.31079
4227.80971,0.31215
4225.88097,0.31377
4223.95222,0.31551
4222.02348,0.31733
4220.09473,0.31918
4218.16599,0.32086
4216.23724,0.32245
4214.30850,0.32421
4212.37975,0.32609
4210.45101,0.32781
4208.52226,0.32944
4206.59352,0.33124
4204.66477,0.33307
4202.73602,0.33455
4200.80728,0.33552
4198.87853,0.33616
4196.94979,0.33677
4195.02104,0.33732
4193.09230,0.33766
4191.16355,0.33785
4189.23481,0.33767
4187.30606,0.33695
4185.37732,0.33604
4183.44857,0.33532
4181.51983,0.33473
4179.59108,0.33396
4177.66234,0.33295
4175.73359,0.33196
4173.80484,0.33097
4171.87610,0.32983
4169.94735,0.32878
4168.01861,0.32794
4166.08986,0.32692
4164.16112,0.32569
4162.23237,0.32469
4160.30363,0.32389
4158.37488,0.32317
4156.44614,0.32256
4154.51739,0.32185
4152.58865,0.32102
4150.65990,0.32025
4148.73116,0.31952
4146.80241,0.31903
4144.87367,0.31893
4142.94492,0.31881
4141.01617,0.31841
4139.08743,0.31789
4137.15868,0.31746
4135.22994,0.31732
4133.30119,0.31726
4131.37245,0.31694
4129.44370,0.31653
4127.51496,0.31622
4125.58621,0.31582
4123.65747,0.31535
4121.72872,0.31476
4119.79998,0.31384
4117.87123,0.31265
4115.94249,0.31145
4114.01374,0.31060
4112.08500,0.31013
4110.15625,0.30944
4108.22750,0.30828
4106.29876,0.30689
4104.37001,0.30537
4102.44127,0.30397
4100.51252,0.30282
4098.58378,0.30141
4096.65503,0.29944
4094.72629,0.29751
4092.79754,0.29612
4090.86880,0.29477
4088.94005,0.29304
4087.01131,0.29109
4085.08256,0.28887
4083.15382,0.28664
4081.22507,0.28485
4079.29632,0.28320
4077.36758,0.28147
4075.43883,0.27998
4073.51009,0.27887
4071.58134,0.27790
4069.65260,0.27668
4067.72385,0.27513
4065.79511,0.27367
4063.86636,0.27261
4061.93762,0.27169
4060.00887,0.27054
4058.08013,0.26924
4056.15138,0.26824
4054.22264,0.26774
4052.29389,0.26728
4050.36515,0.26644
4048.43640,0.26552
4046.50765,0.26488
4044.57891,0.26445
4042.65016,0.26395
4040.72142,0.26329
4038.79267,0.26267
4036.86393,0.26230
4034.93518,0.26203
4033.00644,0.26173
4031.07769,0.26163
4029.14895,0.26177
4027.22020,0.26191
4025.29146,0.26196
4023.36271,0.26195
4021.43397,0.26199
4019.50522,0.26227
4017.57648,0.26266
4015.64773,0.26311
4013.71898,0.26361
4011.79024,0.26402
4009.86149,0.26434
4007.93275,0.26456
4006.00400,0.26458
4004.07526,0.26464
4002.14651,0.26509
4000.21777,0.26592
3998.28902,0.26685
3996.36028,0.26764
3994.43153,0.26821
3992.50279,0.26885
3990.57404,0.26990
3988.64530,0.27125
3986.71655,0.27256
3984.78780,0.27376
3982.85906,0.27515
3980.93031,0.27679
3979.00157,0.27841
3977.07282,0.27999
3975.14408,0.28162
3973.21533,0.28314
3971.28659,0.28445
3969.35784,0.28586
3967.42910,0.28761
3965.50035,0.28950
3963.57161,0.29128
3961.64286,0.29294
3959.71412,0.29473
3957.78537,0.29664
3955.85663,0.29847
3953.92788,0.30029
3951.99913,0.30240
3950.07039,0.30484
3948.14164,0.30724
3946.21290,0.30944
3944.28415,0.31178
3942.35541,0.31431
3940.42666,0.31678
3938.49792,0.31935
3936.56917,0.32206
3934.64043,0.32454
3932.71168,0.32699
3930.78294,0.32970
3928.85419,0.33227
3926.92545,0.33432
3924.99670,0.33608
3923.06795,0.33787
3921.13921,0.33957
3919.21046,0.34108
3917.28172,0.34263
3915.35297,0.34415
3913.42423,0.34546
3911.49548,0.34672
3909.56674,0.34800
3907.63799,0.34917
3905.70925,0.35019
3903.78050,0.35106
3901.85176,0.35192
3899.92301,0.35261
3897.99427,0.35303
3896.06552,0.35355
3894.13678,0.35420
3892.20803,0.35470
3890.27928,0.35500
3888.35054,0.35536
3886.42179,0.35590
3884.49305,0.35638
3882.56430,0.35668
3880.63556,0.35702
3878.70681,0.35750
3876.77807,0.35788
3874.84932,0.35811
3872.92058,0.35841
3870.99183,0.35876
3869.06309,0.35910
3867.13434,0.35957
3865.20560,0.36000
3863.27685,0.36008
3861.34811,0.36003
3859.41936,0.36018
3857.49061,0.36025
3855.56187,0.35994
3853.63312,0.35983
3851.70438,0.36040
3849.77563,0.36095
3847.84689,0.36149
3845.91814,0.36240
3843.98940,0.36345
3842.06065,0.36439
3840.13191,0.36532
3838.20316,0.36645
3836.27442,0.36761
3834.34567,0.36864
3832.41693,0.36973
3830.48818,0.37093
3828.55943,0.37210
3826.63069,0.37312
3824.70194,0.37383
3822.77320,0.37442
3820.84445,0.37514
3818.91571,0.37578
3816.98696,0.37623
3815.05822,0.37652
3813.12947,0.37659
3811.20073,0.37669
3809.27198,0.37700
3807.34324,0.37746
3805.41449,0.37776
3803.48575,0.37782
3801.55700,0.37789
3799.62826,0.37799
3797.69951,0.37808
3795.77076,0.37834
3793.84202,0.37883
3791.91327,0.37929
3789.98453,0.37966
3788.05578,0.38037
3786.12704,0.38162
3784.19829,0.38308
3782.26955,0.38446
3780.34080,0.38592
3778.41206,0.38755
3776.48331,0.38915
3774.55457,0.39062
3772.62582,0.39211
3770.69708,0.39397
3768.76833,0.39601
3766.83959,0.39787
3764.91084,0.39980
3762.98209,0.40194
3761.05335,0.40420
3759.12460,0.40639
3757.19586,0.40833
3755.26711,0.41025
3753.33837,0.41233
3751.40962,0.41460
3749.48088,0.41676
3747.55213,0.41843
3745.62339,0.41995
3743.69464,0.42165
3741.76590,0.42298
3739.83715,0.42404
3737.90841,0.42534
3735.97966,0.42676
3734.05091,0.42810
3732.12217,0.42932
3730.19342,0.43025
3728.26468,0.43106
3726.33593,0.43211
3724.40719,0.43310
3722.47844,0.43381
3720.54970,0.43453
3718.62095,0.43525
3716.69221,0.43597
3714.76346,0.43689
3712.83472,0.43795
3710.90597,0.43888
3708.97723,0.43954
3707.04848,0.43999
3705.11974,0.44021
3703.19099,0.44035
3701.26224,0.44058
3699.33350,0.44068
3697.40475,0.44036
3695.47601,0.43975
3693.54726,0.43904
3691.61852,0.43824
3689.68977,0.43730
3687.76103,0.43621
3685.83228,0.43512
3683.90354,0.43416
3681.97479,0.43313
3680.04605,0.43185
3678.11730,0.43029
3676.18856,0.42858
3674.25981,0.42689
3672.33107,0.42524
3670.40232,0.42346
3668.47357,0.42163
3666.54483,0.41974
3664.61608,0.41766
3662.68734,0.41550
3660.75859,0.41336
3658.82985,0.41122
3656.90110,0.40890
3654.97236,0.40646
3653.04361,0.40446
3651.11487,0.40267
3649.18612,0.40018
3647.25738,0.39727
3645.32863,0.39464
3643.39989,0.39218
3641.47114,0.38982
3639.54239,0.38760
3637.61365,0.38534
3635.68490,0.38298
3633.75616,0.38085
3631.82741,0.37896
3629.89867,0.37677
3627.96992,0.37432
3626.04118,0.37228
3624.11243,0.37031
3622.18369,0.36812
3620.25494,0.36588
3618.32620,0.36362
3616.39745,0.36157
3614.46871,0.35989
3612.53996,0.35823
3610.61122,0.35623
3608.68247,0.35393
3606.75372,0.35167
3604.82498,0.34967
3602.89623,0.34787
3600.96749,0.34641
3599.03874,0.34520
3597.11000,0.34382
3595.18125,0.34224
3593.25251,0.34073
3591.32376,0.33943
3589.39502,0.33809
3587.46627,0.33674
3585.53753,0.33562
3583.60878,0.33440
3581.68004,0.33292
3579.75129,0.33145
3577.82254,0.33004
3575.89380,0.32855
3573.96505,0.32691
3572.03631,0.32517
3570.10756,0.32344
3568.17882,0.32192
3566.25007,0.32039
3564.32133,0.31864
3562.39258,0.31695
3560.46384,0.31535
3558.53509,0.31360
3556.60635,0.31176
3554.67760,0.30987
3552.74886,0.30779
3550.82011,0.30565
3548.89137,0.30382
3546.96262,0.30227
3545.03387,0.30062
3543.10513,0.29869
3541.17638,0.29660
3539.24764,0.29437
3537.31889,0.29206
3535.39015,0.28973
3533.46140,0.28746
3531.53266,0.28523
3529.60391,0.28313
3527.67517,0.28146
3525.74642,0.27998
3523.81768,0.27801
3521.88893,0.27546
3519.96019,0.27291
3518.03144,0.27094
3516.10270,0.26951
3514.17395,0.26811
3512.24520,0.26642
3510.31646,0.26453
3508.38771,0.26251
3506.45897,0.26057
3504.53022,0.25884
3502.60148,0.25716
3500.67273,0.25547
3498.74399,0.25353
3496.81524,0.25108
3494.88650,0.24851
3492.95775,0.24629
3491.02901,0.24390
3489.10026,0.24084
3487.17152,0.23756
3485.24277,0.23449
3483.31402,0.23137
3481.38528,0.22798
3479.45653,0.22452
3477.52779,0.22100
3475.59904,0.21734
3473.67030,0.21364
3471.74155,0.20964
3469.81281,0.20495
3467.88406,0.19966
3465.95532,0.19430
3464.02657,0.18936
3462.09783,0.18502
3460.16908,0.18139
3458.24034,0.17831
3456.31159,0.17550
3454.38285,0.17300
3452.45410,0.17091
3450.52535,0.16905
3448.59661,0.16702
3446.66786,0.16451
3444.73912,0.16183
3442.81037,0.15919
3440.88163,0.15621
3438.95288,0.15262
3437.02414,0.14844
3435.09539,0.14393
3433.16665,0.13929
3431.23790,0.13429
3429.30916,0.12847
3427.38041,0.12193
3425.45167,0.11530
3423.52292,0.10905
3421.59418,0.10351
3419.66543,0.09892
3417.73668,0.09530
3415.80794,0.09237
3413.87919,0.08996
3411.95045,0.08834
3410.02170,0.08757
3408.09296,0.08695
3406.16421,0.08593
3404.23547,0.08477
3402.30672,0.08372
3400.37798,0.08251
3398.44923,0.08097
3396.52049,0.07909
3394.59174,0.07701
3392.66300,0.07504
3390.73425,0.07322
3388.80550,0.07132
3386.87676,0.06918
3384.94801,0.06706
3383.01927,0.06527
3381.09052,0.06371
3379.16178,0.06234
3377.23303,0.06118
3375.30429,0.06006
3373.37554,0.05907
3371.44680,0.05834
3369.51805,0.05773
3367.58931,0.05718
3365.66056,0.05648
3363.73182,0.05564
3361.80307,0.05501
3359.87433,0.05452
3357.94558,0.05394
3356.01683,0.05349
3354.08809,0.05333
3352.15934,0.05295
3350.23060,0.05210
3348.30185,0.05116
3346.37311,0.05051
3344.44436,0.05022
3342.51562,0.05015
3340.58687,0.05000
3338.65813,0.04952
3336.72938,0.04883
3334.80064,0.04821
3332.87189,0.04786
3330.94315,0.04782
3329.01440,0.04768
3327.08566,0.04719
3325.15691,0.04661
3323.22816,0.04614
3321.29942,0.04604
3319.37067,0.04637
3317.44193,0.04644
3315.51318,0.04591
3313.58444,0.04529
3311.65569,0.04493
3309.72695,0.04486
3307.79820,0.04497
3305.86946,0.04503
3303.94071,0.04491
3302.01197,0.04477
3300.08322,0.04472
3298.15448,0.04457
3296.22573,0.04435
3294.29698,0.04418
3292.36824,0.04418
3290.43949,0.04437
3288.51075,0.04461
3286.58200,0.04479
3284.65326,0.04489
3282.72451,0.04509
3280.79577,0.04531
3278.86702,0.04540
3276.93828,0.04545
3275.00953,0.04544
3273.08079,0.04537
3271.15204,0.04550
3269.22330,0.04581
3267.29455,0.04609
3265.36581,0.04632
3263.43706,0.04656
3261.50831,0.04682
3259.57957,0.04706
3257.65082,0.04730
3255.72208,0.04764
3253.79333,0.04815
3251.86459,0.04866
3249.93584,0.04889
3248.00710,0.04884
3246.07835,0.04889
3244.14961,0.04925
3242.22086,0.04981
3240.29212,0.05050
3238.36337,0.05129
3236.43463,0.05213
3234.50588,0.05305
3232.57713,0.05373
3230.64839,0.05379
3228.71964,0.05378
3226.79090,0.05443
3224.86215,0.05544
3222.93341,0.05609
3221.00466,0.05627
3219.07592,0.05654
3217.14717,0.05708
3215.21843,0.05748
3213.28968,0.05786
3211.36094,0.05845
3209.43219,0.05882
3207.50345,0.05889
3205.57470,0.05917
3203.64596,0.05965
3201.71721,0.06000
3199.78846,0.06031
3197.85972,0.06075
3195.93097,0.06118
3194.00223,0.06160
3192.07348,0.06208
3190.14474,0.06236
3188.21599,0.06258
3186.28725,0.06329
3184.35850,0.06433
3182.42976,0.06516
3180.50101,0.06572
3178.57227,0.06628
3176.64352,0.06668
3174.71478,0.06678
3172.78603,0.06701
3170.85729,0.06769
3168.92854,0.06846
3166.99979,0.06893
3165.07105,0.06917
3163.14230,0.06955
3161.21356,0.07024
3159.28481,0.07109
3157.35607,0.07185
3155.42732,0.07227
3153.49858,0.07239
3151.56983,0.07259
3149.64109,0.07302
3147.71234,0.07347
3145.78360,0.07395
3143.85485,0.07440
3141.92611,0.07466
3139.99736,0.07486
3138.06861,0.07518
3136.13987,0.07549
3134.21112,0.07561
3132.28238,0.07562
3130.35363,0.07581
3128.42489,0.07626
3126.49614,0.07674
3124.56740,0.07715
3122.63865,0.07753
3120.70991,0.07789
3118.78116,0.07814
3116.85242,0.07819
3114.92367,0.07802
3112.99493,0.07780
3111.06618,0.07776
3109.13744,0.07791
3107.20869,0.07801
3105.27994,0.07813
3103.35120,0.07842
3101.42245,0.07860
3099.49371,0.07848
3097.56496,0.07817
3095.63622,0.07781
3093.70747,0.07749
3091.77873,0.07722
3089.84998,0.07700
3087.92124,0.07685
3085.99249,0.07664
3084.06375,0.07626
3082.13500,0.07581
3080.20626,0.07535
3078.27751,0.07492
3076.34877,0.07466
3074.42002,0.07452
3072.49127,0.07447
3070.56253,0.07455
3068.63378,0.07455
3066.70504,0.07438
3064.77629,0.07430
3062.84755,0.07450
3060.91880,0.07490
3058.99006,0.07536
3057.06131,0.07575
3055.13257,0.07593
3053.20382,0.07597
3051.27508,0.07617
3049.34633,0.07660
3047.41759,0.07701
3045.48884,0.07715
3043.56009,0.07683
3041.63135,0.07617
3039.70260,0.07540
3037.77386,0.07469
3035.84511,0.07426
3033.91637,0.07430
3031.98762,0.07464
3030.05888,0.07488
3028.13013,0.07484
3026.20139,0.07476
3024.27264,0.07484
3022.34390,0.07487
3020.41515,0.07475
3018.48641,0.07446
3016.55766,0.07391
3014.62892,0.07309
3012.70017,0.07203
3010.77142,0.07053
3008.84268,0.06852
3006.91393,0.06635
3004.98519,0.06423
3003.05644,0.06199
3001.12770,0.05934
2999.19895,0.05640
2997.27021,0.05352
2995.34146,0.05082
2993.41272,0.04832
2991.48397,0.04616
2989.55523,0.04456
2987.62648,0.04341
2985.69774,0.04240
2983.76899,0.04140
2981.84025,0.04051
2979.91150,0.04003
2977.98275,0.03989
2976.05401,0.03984
2974.12526,0.03983
2972.19652,0.03999
2970.26777,0.04048
2968.33903,0.04120
2966.41028,0.04205
2964.48154,0.04306
2962.55279,0.04409
2960.62405,0.04498
2958.69530,0.04569
2956.76656,0.04615
2954.83781,0.04639
2952.90907,0.04644
2950.98032,0.04631
2949.05157,0.04600
2947.12283,0.04534
2945.19408,0.04436
2943.26534,0.04343
2941.33659,0.04281
2939.40785,0.04223
2937.47910,0.04155
2935.55036,0.04104
2933.62161,0.04076
2931.69287,0.04059
2929.76412,0.04062
2927.83538,0.04080
2925.90663,0.04106
2923.97789,0.04132
2922.04914,0.04148
2920.12040,0.04163
2918.19165,0.04190
2916.26290,0.04226
2914.33416,0.04245
2912.40541,0.04227
2910.47667,0.04194
2908.54792,0.04188
2906.61918,0.04201
2904.69043,0.04194
2902.76169,0.04176
2900.83294,0.04184
2898.90420,0.04203
2896.97545,0.04204
2895.04671,0.04198
2893.11796,0.04198
2891.18922,0.04202
2889.26047,0.04207
2887.33172,0.04210
2885.40298,0.04220
2883.47423,0.04227
2881.54549,0.04210
2879.61674,0.04188
2877.68800,0.04190
2875.75925,0.04205
2873.83051,0.04215
2871.90176,0.04222
2869.97302,0.04235
2868.04427,0.04257
2866.11553,0.04277
2864.18678,0.04296
2862.25804,0.04346
2860.32929,0.04424
2858.40055,0.04500
2856.47180,0.04571
2854.54305,0.04638
2852.61431,0.04695
2850.68556,0.04758
2848.75682,0.04852
2846.82807,0.04979
2844.89933,0.05125
2842.97058,0.05286
2841.04184,0.05463
2839.11309,0.05637
2837.18435,0.05809
2835.25560,0.06009
2833.32686,0.06228
2831.39811,0.06439
2829.46937,0.06642
2827.54062,0.06825
2825.61188,0.06980
2823.68313,0.07123
2821.75438,0.07263
2819.82564,0.07388
2817.89689,0.07496
2815.96815,0.07597
2814.03940,0.07685
2812.11066,0.07745
2810.18191,0.07781
2808.25317,0.07815
2806.32442,0.07846
2804.39568,0.07877
2802.46693,0.07928
2800.53819,0.07981
2798.60944,0.08018
2796.68070,0.08066
2794.75195,0.08133
2792.82320,0.08197
2790.89446,0.08256
2788.96571,0.08311
2787.03697,0.08373
2785.10822,0.08453
2783.17948,0.08534
2781.25073,0.08606
2779.32199,0.08688
2777.39324,0.08781
2775.46450,0.08864
2773.53575,0.08949
2771.60701,0.09060
2769.67826,0.09191
2767.74952,0.09330
2765.82077,0.09465
2763.89203,0.09577
2761.96328,0.09666
2760.03453,0.09750
2758.10579,0.09840
2756.17704,0.09931
2754.24830,0.10031
2752.31955,0.10154
2750.39081,0.10278
2748.46206,0.10375
2746.53332,0.10452
2744.60457,0.10524
2742.67583,0.10596
2740.74708,0.10677
2738.81834,0.10768
2736.88959,0.10869
2734.96085,0.10987
2733.03210,0.11130
2731.10336,0.11296
2729.17461,0.11468
2727.24586,0.11647
2725.31712,0.11853
2723.38837,0.12084
2721.45963,0.12306
2719.53088,0.12507
2717.60214,0.12717
2715.67339,0.12946
2713.74465,0.13166
2711.81590,0.13355
2709.88716,0.13535
2707.95841,0.13719
2706.02967,0.13896
2704.10092,0.14053
2702.17218,0.14207
2700.24343,0.14384
2698.31468,0.14581
2696.38594,0.14786
2694.45719,0.15002
2692.52845,0.15215
2690.59970,0.15408
2688.67096,0.15573
2686.74221,0.15712
2684.81347,0.15827
2682.88472,0.15916
2680.95598,0.15984
2679.02723,0.16047
2677.09849,0.16109
2675.16974,0.16161
2673.24100,0.16215
2671.31225,0.16295
2669.38351,0.16408
2667.45476,0.16535
2665.52601,0.16680
2663.59727,0.16846
2661.66852,0.17015
2659.73978,0.17171
2657.81103,0.17315
2655.88229,0.17453
2653.95354,0.17582
2652.02480,0.17689
2650.09605,0.17768
2648.16731,0.17826
2646.23856,0.17871
2644.30982,0.17917
2642.38107,0.17990
2640.45233,0.18097
2638.52358,0.18225
2636.59484,0.18363
2634.66609,0.18513
2632.73734,0.18691
2630.80860,0.18903
2628.87985,0.19136
2626.95111,0.19375
2625.02236,0.19600
2623.09362,0.19792
2621.16487,0.19951
2619.23613,0.20071
2617.30738,0.20145
2615.37864,0.20187
2613.44989,0.20208
2611.52115,0.20207
2609.59240,0.20191
2607.66366,0.20158
2605.73491,0.20104
2603.80616,0.20042
2601.87742,0.19975
2599.94867,0.19915
2598.01993,0.19888
2596.09118,0.19900
2594.16244,0.19920
2592.23369,0.19939
2590.30495,0.19974
2588.37620,0.20037
2586.44746,0.20123
2584.51871,0.20233
2582.58997,0.20378
2580.66122,0.20573
2578.73248,0.20832
2576.80373,0.21162
2574.87499,0.21547
2572.94624,0.21946
2571.01749,0.22342
2569.08875,0.22730
2567.16000,0.23108
2565.23126,0.23477
2563.30251,0.23826
2561.37377,0.24125
2559.44502,0.24361
2557.51628,0.24544
2555.58753,0.24697
2553.65879,0.24832
2551.73004,0.24947
2549.80130,0.25051
2547.87255,0.25164
2545.94381,0.25271
2544.01506,0.25353
2542.08631,0.25434
2540.15757,0.25537
2538.22882,0.25643
2536.30008,0.25741
2534.37133,0.25843
2532.44259,0.25940
2530.51384,0.26031
2528.58510,0.26142
2526.65635,0.26258
2524.72761,0.26350
2522.79886,0.26428
2520.87012,0.26497
2518.94137,0.26554
2517.01263,0.26602
2515.08388,0.26631
2513.15514,0.26638
2511.22639,0.26643
2509.29764,0.26653
2507.36890,0.26655
2505.44015,0.26643
2503.51141,0.26630
2501.58266,0.26632
2499.65392,0.26641
2497.72517,0.26630
2495.79643,0.26608
2493.86768,0.26601
2491.93894,0.26597
2490.01019,0.26589
2488.08145,0.26595
2486.15270,0.26608
2484.22396,0.26602
2482.29521,0.26582
2480.36647,0.26563
2478.43772,0.26553
2476.50897,0.26549
2474.58023,0.26548
2472.65148,0.26555
2470.72274,0.26581
2468.79399,0.26643
2466.86525,0.26732
2464.93650,0.26817
2463.00776,0.26882
2461.07901,0.26937
2459.15027,0.27000
2457.22152,0.27072
2455.29278,0.27147
2453.36403,0.27229
2451.43529,0.27318
2449.50654,0.27411
2447.57779,0.27498
2445.64905,0.27575
2443.72030,0.27670
2441.79156,0.27798
2439.86281,0.27926
2437.93407,0.28030
2436.00532,0.28130
2434.07658,0.28232
2432.14783,0.28331
2430.21909,0.28430
2428.29034,0.28532
2426.36160,0.28620
2424.43285,0.28670
2422.50411,0.28694
2420.57536,0.28700
2418.64662,0.28676
2416.71787,0.28628
2414.78912,0.28558
2412.86038,0.28466
2410.93163,0.28361
2409.00289,0.28248
2407.07414,0.28143
2405.14540,0.28065
2403.21665,0.28005
2401.28791,0.27948
2399.35916,0.27882
2397.43042,0.27799
2395.50167,0.27699
2393.57293,0.27602
2391.64418,0.27511
2389.71544,0.27410
2387.78669,0.27306
2385.85795,0.27217
2383.92920,0.27139
2382.00045,0.27062
2380.07171,0.26984
2378.14296,0.26906
2376.21422,0.26837
2374.28547,0.26781
2372.35673,0.26746
2370.42798,0.26724
2368.49924,0.26697
2366.57049,0.26663
2364.64175,0.26626
2362.71300,0.26592
2360.78426,0.26575
2358.85551,0.26564
2356.92677,0.26531
2354.99802,0.26462
2353.06927,0.26377
2351.14053,0.26295
2349.21178,0.26216
2347.28304,0.26138
2345.35429,0.26053
2343.42555,0.25944
2341.49680,0.25807
2339.56806,0.25643
2337.63931,0.25448
2335.71057,0.25241
2333.78182,0.25033
2331.85308,0.24810
2329.92433,0.24570
2327.99559,0.24301
2326.06684,0.23992
2324.13810,0.23661
2322.20935,0.23315
2320.28060,0.22940
2318.35186,0.22527
2316.42311,0.22083
2314.49437,0.21620
2312.56562,0.21127
2310.63688,0.20589
2308.70813,0.20013
2306.77939,0.19421
2304.85064,0.18810
2302.92190,0.18166
2300.99315,0.17493
2299.06441,0.16790
2297.13566,0.16070
2295.20692,0.15354
2293.27817,0.14637
2291.34943,0.13911
2289.42068,0.13202
2287.49193,0.12536
2285.56319,0.11919
2283.63444,0.11352
2281.70570,0.10858
2279.77695,0.10473
2277.84821,0.10196
2275.91946,0.10012
2273.99072,0.09940
2272.06197,0.10003
2270.13323,0.10188
2268.20448,0.10492
2266.27574,0.10934
2264.34699,0.11496
2262.41825,0.12136
2260.48950,0.12815
2258.56075,0.13520
2256.63201,0.14244
2254.70326,0.14966
2252.77452,0.15669
2250.84577,0.16336
2248.91703,0.16941
2246.98828,0.17479
2245.05954,0.17962
2243.13079,0.18393
2241.20205,0.18772
2239.27330,0.19124
2237.34456,0.19480
2235.41581,0.19826
2233.48707,0.20135
2231.55832,0.20396
2229.62958,0.20612
2227.70083,0.20805
2225.77208,0.20993
2223.84334,0.21162
2221.91459,0.21290
2219.98585,0.21398
2218.05710,0.21522
2216.12836,0.21652
2214.19961,0.21766
2212.27087,0.21884
2210.34212,0.22026
2208.41338,0.22171
2206.48463,0.22295
2204.55589,0.22406
2202.62714,0.22508
2200.69840,0.22609
2198.76965,0.22717
2196.84090,0.22821
2194.91216,0.22916
2192.98341,0.23004
2191.05467,0.23089
2189.12592,0.23163
2187.19718,0.23215
2185.26843,0.23256
2183.33969,0.23300
2181.41094,0.23350
2179.48220,0.23398
2177.55345,0.23435
2175.62471,0.23465
2173.69596,0.23499
2171.76722,0.23537
2169.83847,0.23582
2167.90973,0.23630
2165.98098,0.23667
2164.05223,0.23699
2162.12349,0.23747
2160.19474,0.23802
2158.26600,0.23844
2156.33725,0.23884
2154.40851,0.23943
2152.47976,0.24023
2150.55102,0.24102
2148.62227,0.24159
2146.69353,0.24206
2144.76478,0.24262
2142.83604,0.24322
2140.90729,0.24369
2138.97855,0.24412
2137.04980,0.24469
2135.12106,0.24528
2133.19231,0.24573
2131.26356,0.24616
2129.33482,0.24668
2127.40607,0.24718
2125.47733,0.24768
2123.54858,0.24829
2121.61984,0.24889
2119.69109,0.24929
2117.76235,0.24954
2115.83360,0.24982
2113.90486,0.25005
2111.97611,0.25015
2110.04737,0.25017
2108.11862,0.25012
2106.18988,0.24994
2104.26113,0.24970
2102.33238,0.24940
2100.40364,0.24904
2098.47489,0.24862
2096.54615,0.24808
2094.61740,0.24754
2092.68866,0.24714
2090.75991,0.24676
2088.83117,0.24621
2086.90242,0.24549
2084.97368,0.24478
2083.04493,0.24414
2081.11619,0.24352
2079.18744,0.24290
2077.25870,0.24228
2075.32995,0.24175
2073.40121,0.24134
2071.47246,0.24088
2069.54371,0.24020
2067.61497,0.23940
2065.68622,0.23876
2063.75748,0.23832
2061.82873,0.23791
2059.89999,0.23738
2057.97124,0.23678
2056.04250,0.23609
2054.11375,0.23520
2052.18501,0.23426
2050.25626,0.23333
2048.32752,0.23229
2046.39877,0.23117
2044.47003,0.22992
2042.54128,0.22839
2040.61254,0.22667
2038.68379,0.22504
2036.75504,0.22365
2034.82630,0.22236
2032.89755,0.22105
2030.96881,0.21967
2029.04006,0.21819
2027.11132,0.21668
2025.18257,0.21547
2023.25383,0.21473
2021.32508,0.21434
2019.39634,0.21403
2017.46759,0.21365
2015.53885,0.21320
2013.61010,0.21275
2011.68136,0.21252
2009.75261,0.21263
2007.82386,0.21294
2005.89512,0.21327
2003.96637,0.21362
2002.03763,0.21401
2000.10888,0.21438
1998.18014,0.21473
1996.25139,0.21513
1994.32265,0.21561
1992.39390,0.21598
1990.46516,0.21610
1988.53641,0.21621
1986.60767,0.21650
1984.67892,0.21678
1982.75018,0.21694
1980.82143,0.21708
1978.89269,0.21714
1976.96394,0.21701
1975.03519,0.21684
1973.10645,0.21685
1971.17770,0.21701
1969.24896,0.21712
1967.32021,0.21700
1965.39147,0.21668
1963.46272,0.21638
1961.53398,0.21627
1959.60523,0.21636
1957.67649,0.21643
1955.74774,0.21622
1953.81900,0.21587
1951.89025,0.21560
1949.96151,0.21552
1948.03276,0.21554
1946.10402,0.21543
1944.17527,0.21521
1942.24652,0.21502
1940.31778,0.21493
1938.38903,0.21489
1936.46029,0.21471
1934.53154,0.21420
1932.60280,0.21343
1930.67405,0.21269
1928.74531,0.21207
1926.81656,0.21142
1924.88782,0.21068
1922.95907,0.21001
1921.03033,0.20953
1919.10158,0.20919
1917.17284,0.20891
1915.24409,0.20881
1913.31534,0.20898
1911.38660,0.20929
1909.45785,0.20962
1907.52911,0.20995
1905.60036,0.21028
1903.67162,0.21050
1901.74287,0.21059
1899.81413,0.21074
1897.88538,0.21092
1895.95664,0.21094
1894.02789,0.21073
1892.09915,0.21044
1890.17040,0.21031
1888.24166,0.21034
1886.31291,0.21037
1884.38417,0.21049
1882.45542,0.21088
1880.52667,0.21149
1878.59793,0.21203
1876.66918,0.21249
1874.74044,0.21302
1872.81169,0.21357
1870.88295,0.21398
1868.95420,0.21416
1867.02546,0.21409
1865.09671,0.21384
1863.16797,0.21357
1861.23922,0.21331
1859.31048,0.21291
1857.38173,0.21238
1855.45299,0.21187
1853.52424,0.21141
1851.59549,0.21092
1849.66675,0.21034
1847.73800,0.20966
1845.80926,0.20890
1843.88051,0.20804
1841.95177,0.20705
1840.02302,0.20604
1838.09428,0.20491
1836.16553,0.20350
1834.23679,0.20203
1832.30804,0.20066
1830.37930,0.19916
1828.45055,0.19746
1826.52181,0.19582
1824.59306,0.19416
1822.66432,0.19232
1820.73557,0.19036
1818.80682,0.18833
1816.87808,0.18621
1814.94933,0.18397
1813.02059,0.18163
1811.09184,0.17907
1809.16310,0.17631
1807.23435,0.17353
1805.30561,0.17081
1803.37686,0.16801
1801.44812,0.16490
1799.51937,0.16164
1797.59063,0.15857
1795.66188,0.15564
1793.73314,0.15258
1791.80439,0.14925
1789.87565,0.14611
1787.94690,0.14345
1786.01815,0.14088
1784.08941,0.13814
1782.16066,0.13554
1780.23192,0.13324
1778.30317,0.13095
1776.37443,0.12864
1774.44568,0.12637
1772.51694,0.12387
1770.58819,0.12108
1768.65945,0.11794
1766.73070,0.11429
1764.80196,0.11038
1762.87321,0.10603
1760.94447,0.10086
1759.01572,0.09512
1757.08697,0.08868
1755.15823,0.08184
1753.22948,0.07491
1751.30074,0.06737
1749.37199,0.05976
1747.44325,0.05313
1745.51450,0.04749
1743.58576,0.04294
1741.65701,0.03954
1739.72827,0.03694
1737.79952,0.03519
1735.87078,0.03415
1733.94203,0.03335
1732.01329,0.03295
1730.08454,0.03298
1728.15580,0.03313
1726.22705,0.03338
1724.29830,0.03383
1722.36956,0.03431
1720.44081,0.03458
1718.51207,0.03473
1716.58332,0.03510
1714.65458,0.03575
1712.72583,0.03633
1710.79709,0.03676
1708.86834,0.03709
1706.93960,0.03740
1705.01085,0.03777
1703.08211,0.03817
1701.15336,0.03838
1699.22462,0.03825
1697.29587,0.03805
1695.36713,0.03800
1693.43838,0.03817
1691.50963,0.03846
1689.58089,0.03868
1687.65214,0.03870
1685.72340,0.03837
1683.79465,0.03774
1681.86591,0.03729
1679.93716,0.03713
1678.00842,0.03697
1676.07967,0.03663
1674.15093,0.03615
1672.22218,0.03574
1670.29344,0.03547
1668.36469,0.03521
1666.43595,0.03491
1664.50720,0.03458
1662.57845,0.03417
1660.64971,0.03364
1658.72096,0.03309
1656.79222,0.03279
1654.86347,0.03260
1652.93473,0.03187
1651.00598,0.03098
1649.07724,0.03055
1647.14849,0.03033
1645.21975,0.03024
1643.29100,0.03034
1641.36226,0.03073
1639.43351,0.03157
1637.50477,0.03278
1635.57602,0.03400
1633.64728,0.03486
1631.71853,0.03546
1629.78978,0.03591
1627.86104,0.03629
1625.93229,0.03662
1624.00355,0.03666
1622.07480,0.03632
1620.14606,0.03585
1618.21731,0.03531
1616.28857,0.03463
1614.35982,0.03409
1612.43108,0.03374
1610.50233,0.03346
1608.57359,0.03319
1606.64484,0.03282
1604.71610,0.03251
1602.78735,0.03246
1600.85861,0.03263
1598.92986,0.03294
1597.00111,0.03319
1595.07237,0.03337
1593.14362,0.03366
1591.21488,0.03398
1589.28613,0.03418
1587.35739,0.03444
1585.42864,0.03485
1583.49990,0.03514
1581.57115,0.03521
1579.64241,0.03523
1577.71366,0.03508
1575.78492,0.03427
1573.85617,0.03311
1571.92743,0.03215
1569.99868,0.03138
1568.06993,0.03080
1566.14119,0.03038
1564.21244,0.03011
1562.28370,0.03018
1560.35495,0.03039
1558.42621,0.03046
1556.49746,0.03054
1554.56872,0.03074
1552.63997,0.03102
1550.71123,0.03130
1548.78248,0.03154
1546.85374,0.03196
1544.92499,0.03258
1542.99625,0.03309
1541.06750,0.03328
1539.13876,0.03322
1537.21001,0.03326
1535.28126,0.03359
1533.35252,0.03411
1531.42377,0.03464
1529.49503,0.03510
1527.56628,0.03544
1525.63754,0.03582
1523.70879,0.03646
1521.78005,0.03704
1519.85130,0.03715
1517.92256,0.03713
1515.99381,0.03726
1514.06507,0.03738
1512.13632,0.03744
1510.20758,0.03755
1508.27883,0.03767
1506.35008,0.03776
1504.42134,0.03792
1502.49259,0.03818
1500.56385,0.03861
1498.63510,0.03910
1496.70636,0.03937
1494.77761,0.03952
1492.84887,0.03969
1490.92012,0.03968
1488.99138,0.03950
1487.06263,0.03924
1485.13389,0.03883
1483.20514,0.03836
1481.27640,0.03795
1479.34765,0.03773
1477.41891,0.03786
1475.49016,0.03823
1473.56141,0.03851
1471.63267,0.03857
1469.70392,0.03862
1467.77518,0.03870
1465.84643,0.03860
1463.91769,0.03835
1461.98894,0.03823
1460.06020,0.03819
1458.13145,0.03800
1456.20271,0.03771
1454.27396,0.03764
1452.34522,0.03775
1450.41647,0.03801
1448.48773,0.03846
1446.55898,0.03901
1444.63024,0.03964
1442.70149,0.04031
1440.77274,0.04104
1438.84400,0.04210
1436.91525,0.04345
1434.98651,0.04450
1433.05776,0.04503
1431.12902,0.04521
1429.20027,0.04507
1427.27153,0.04471
1425.34278,0.04410
1423.41404,0.04335
1421.48529,0.04259
1419.55655,0.04167
1417.62780,0.04075
1415.69906,0.04033
1413.77031,0.04030
1411.84156,0.04045
1409.91282,0.04073
1407.98407,0.04106
1406.05533,0.04125
1404.12658,0.04133
1402.19784,0.04150
1400.26909,0.04180
1398.34035,0.04204
1396.41160,0.04214
1394.48286,0.04202
1392.55411,0.04157
1390.62537,0.04096
1388.69662,0.04029
1386.76788,0.03940
1384.83913,0.03840
1382.91039,0.03746
1380.98164,0.03649
1379.05289,0.03559
1377.12415,0.03525
1375.19540,0.03563
1373.26666,0.03652
1371.33791,0.03760
1369.40917,0.03879
1367.48042,0.04023
1365.55168,0.04187
1363.62293,0.04347
1361.69419,0.04475
1359.76544,0.04553
1357.83670,0.04576
1355.90795,0.04542
1353.97921,0.04460
1352.05046,0.04352
1350.12172,0.04236
1348.19297,0.04130
1346.26422,0.04057
1344.33548,0.04031
1342.40673,0.04041
1340.47799,0.04060
1338.54924,0.04070
1336.62050,0.04072
1334.69175,0.04067
1332.76301,0.04053
1330.83426,0.04045
1328.90552,0.04032
1326.97677,0.03993
1325.04803,0.03928
1323.11928,0.03859
1321.19054,0.03799
1319.26179,0.03750
1317.33304,0.03707
1315.40430,0.03658
1313.47555,0.03605
1311.54681,0.03574
1309.61806,0.03561
1307.68932,0.03532
1305.76057,0.03492
1303.83183,0.03473
1301.90308,0.03467
1299.97434,0.03445
1298.04559,0.03425
1296.11685,0.03431
1294.18810,0.03461
1292.25936,0.03499
1290.33061,0.03526
1288.40187,0.03534
1286.47312,0.03545
1284.54437,0.03568
1282.61563,0.03582
1280.68688,0.03582
1278.75814,0.03574
1276.82939,0.03551
1274.90065,0.03513
1272.97190,0.03491
1271.04316,0.03482
1269.11441,0.03458
1267.18567,0.03444
1265.25692,0.03472
1263.32818,0.03494
1261.39943,0.03477
1259.47069,0.03460
1257.54194,0.03456
1255.61320,0.03436
1253.68445,0.03405
1251.75570,0.03379
1249.82696,0.03354
1247.89821,0.03325
1245.96947,0.03279
1244.04072,0.03227
1242.11198,0.03199
1240.18323,0.03182
1238.25449,0.03157
1236.32574,0.03138
1234.39700,0.03142
1232.46825,0.03165
1230.53951,0.03184
1228.61076,0.03199
1226.68202,0.03237
1224.75327,0.03292
1222.82452,0.03351
1220.89578,0.03413
1218.96703,0.03457
1217.03829,0.03481
1215.10954,0.03509
1213.18080,0.03548
1211.25205,0.03581
1209.32331,0.03594
1207.39456,0.03583
1205.46582,0.03577
1203.53707,0.03597
1201.60833,0.03623
1199.67958,0.03629
1197.75084,0.03623
1195.82209,0.03620
1193.89335,0.03600
1191.96460,0.03558
1190.03585,0.03518
1188.10711,0.03478
1186.17836,0.03423
1184.24962,0.03364
1182.32087,0.03322
1180.39213,0.03291
1178.46338,0.03250
1176.53464,0.03197
1174.60589,0.03142
1172.67715,0.03087
1170.74840,0.03029
1168.81966,0.02985
1166.89091,0.02969
1164.96217,0.02963
1163.03342,0.02951
1161.10467,0.02941
1159.17593,0.02924
1157.24718,0.02882
1155.31844,0.02842
1153.38969,0.02841
1151.46095,0.02853
1149.53220,0.02854
1147.60346,0.02850
1145.67471,0.02841
1143.74597,0.02834
1141.81722,0.02840
1139.88848,0.02849
1137.95973,0.02837
1136.03099,0.02803
1134.10224,0.02781
1132.17350,0.02809
1130.24475,0.02866
1128.31600,0.02904
1126.38726,0.02916
1124.45851,0.02946
1122.52977,0.03001
1120.60102,0.03052
1118.67228,0.03102
1116.74353,0.03170
1114.81479,0.03254
1112.88604,0.03361
1110.95730,0.03464
1109.02855,0.03523
1107.09981,0.03571
1105.17106,0.03642
1103.24232,0.03724
1101.31357,0.03810
1099.38483,0.03888
1097.45608,0.03952
1095.52733,0.04014
1093.59859,0.04067
1091.66984,0.04104
1089.74110,0.04134
1087.81235,0.04158
1085.88361,0.04185
1083.95486,0.04218
1082.02612,0.04241
1080.09737,0.04263
1078.16863,0.04298
1076.23988,0.04346
1074.31114,0.04404
1072.38239,0.04452
1070.45365,0.04476
1068.52490,0.04498
1066.59615,0.04536
1064.66741,0.04563
1062.73866,0.04561
1060.80992,0.04579
1058.88117,0.04643
1056.95243,0.04716
1055.02368,0.04765
1053.09494,0.04798
1051.16619,0.04849
1049.23745,0.04930
1047.30870,0.05018
1045.37996,0.05093
1043.45121,0.05155
1041.52247,0.05189
1039.59372,0.05216
1037.66498,0.05264
1035.73623,0.05310
1033.80748,0.05331
1031.87874,0.05343
1029.94999,0.05353
1028.02125,0.05346
1026.09250,0.05297
1024.16376,0.05205
1022.23501,0.05111
1020.30627,0.05047
1018.37752,0.04997
1016.44878,0.04953
1014.52003,0.04951
1012.59129,0.04997
1010.66254,0.05054
1008.73380,0.05097
1006.80505,0.05125
1004.87631,0.05150
1002.94756,0.05177
1001.01881,0.05242
999.09007,0.05400
997.16132,0.05635
995.23258,0.05898
993.30383,0.06169
991.37509,0.06428
989.44634,0.06640
987.51760,0.06798
985.58885,0.06932
983.66011,0.07039
981.73136,0.07093
979.80262,0.07096
977.87387,0.07058
975.94513,0.06993
974.01638,0.06932
972.08763,0.06890
970.15889,0.06868
968.23014,0.06871
966.30140,0.06908
964.37265,0.06989
962.44391,0.07093
960.51516,0.07183
958.58642,0.07262
956.65767,0.07333
954.72893,0.07375
952.80018,0.07361
950.87144,0.07246
948.94269,0.07017
947.01395,0.06726
945.08520,0.06420
943.15646,0.06123
941.22771,0.05861
939.29896,0.05650
937.37022,0.05490
935.44147,0.05376
933.51273,0.05294
931.58398,0.05224
929.65524,0.05166
927.72649,0.05133
925.79775,0.05150
923.86900,0.05236
921.94026,0.05367
920.01151,0.05511
918.08277,0.05655
916.15402,0.05761
914.22528,0.05817
912.29653,0.05852
910.36779,0.05890
908.43904,0.05946
906.51029,0.06016
904.58155,0.06112
902.65280,0.06261
900.72406,0.06427
898.79531,0.06562
896.86657,0.06668
894.93782,0.06749
893.00908,0.06776
891.08033,0.06731
889.15159,0.06618
887.22284,0.06466
885.29410,0.06341
883.36535,0.06269
881.43661,0.06214
879.50786,0.06151
877.57911,0.06086
875.65037,0.06038
873.72162,0.06010
871.79288,0.05993
869.86413,0.05999
867.93539,0.06033
866.00664,0.06072
864.07790,0.06096
862.14915,0.06121
860.22041,0.06153
858.29166,0.06192
856.36292,0.06263
854.43417,0.06369
852.50543,0.06450
850.57668,0.06461
848.64794,0.06436
846.71919,0.06417
844.79044,0.06393
842.86170,0.06342
840.93295,0.06254
839.00421,0.06143
837.07546,0.06034
835.14672,0.05922
833.21797,0.05805
831.28923,0.05700
829.36048,0.05597
827.43174,0.05480
825.50299,0.05342
823.57425,0.05197
821.64550,0.05099
819.71676,0.05066
817.78801,0.05064
815.85926,0.05073
813.93052,0.05090
812.00177,0.05129
810.07303,0.05220
808.14428,0.05355
806.21554,0.05473
804.28679,0.05577
802.35805,0.05729
800.42930,0.05918
798.50056,0.06088
796.57181,0.06203
794.64307,0.06254
792.71432,0.06268
790.78558,0.06274
788.85683,0.06288
786.92809,0.06319
784.99934,0.06363
783.07059,0.06387
781.14185,0.06368
779.21310,0.06299
777.28436,0.06200
775.35561,0.06101
773.42687,0.05969
771.49812,0.05771
769.56938,0.05577
767.64063,0.05479
765.71189,0.05482
763.78314,0.05502
761.85440,0.05456
759.92565,0.05378
757.99691,0.05377
756.06816,0.05469
754.13942,0.05577
752.21067,0.05709
750.28192,0.05946
748.35318,0.06228
746.42443,0.06423
744.49569,0.06567
742.56694,0.06750
740.63820,0.06920
738.70945,0.06981
736.78071,0.06958
734.85196,0.06923
732.92322,0.06861
730.99447,0.06752
729.06573,0.06643
727.13698,0.06548
725.20824,0.06419
723.27949,0.06256
721.35074,0.06102
719.42200,0.05943
717.49325,0.05758
715.56451,0.05563
713.63576,0.05395
711.70702,0.05306
709.77827,0.05311
707.84953,0.05373
705.92078,0.05445
703.99204,0.05484
702.06329,0.05457
700.13455,0.05401
698.20580,0.05368
696.27706,0.05314
694.34831,0.05220
692.41957,0.05148
690.49082,0.05101
688.56207,0.05038
686.63333,0.04989
684.70458,0.04988
682.77584,0.05004
680.84709,0.04976
678.91835,0.04898
676.98960,0.04834
675.06086,0.04820
673.13211,0.04853
671.20337,0.04911
669.27462,0.04934
667.34588,0.04890
665.41713,0.04845
663.48839,0.04888
661.55964,0.05013
659.63090,0.05150
657.70215,0.05282
655.77340,0.05405
653.84466,0.05461
651.91591,0.05444
649.98717,0.05440
648.05842,0.05494
646.12968,0.05557
644.20093,0.05589
642.27219,0.05577
640.34344,0.05568
638.41470,0.05647
636.48595,0.05721
634.55721,0.05677
632.62846,0.05652
630.69972,0.05755
628.77097,0.05923
626.84222,0.06021
624.91348,0.05985
622.98473,0.05886
621.05599,0.05793
619.12724,0.05738
617.19850,0.05739
615.26975,0.05791
613.34101,0.05875
611.41226,0.05945
609.48352,0.05939
607.55477,0.05848
605.62603,0.05796
603.69728,0.05857
601.76854,0.05887
599.83979,0.05744
