7497.03301,0.66888
7495.10426,0.66975
7493.17552,0.67535
7491.24677,0.68056
7489.31803,0.68302
7487.38928,0.68196
7485.46054,0.67840
7483.53179,0.67431
7481.60305,0.67218
7479.67430,0.67276
7477.74556,0.67611
7475.81681,0.68235
7473.88807,0.68608
7471.95932,0.68402
7470.03057,0.67818
7468.10183,0.67097
7466.17308,0.66795
7464.24434,0.66992
7462.31559,0.67152
7460.38685,0.67163
7458.45810,0.67187
7456.52936,0.67200
7454.60061,0.67090
7452.67187,0.66930
7450.74312,0.66856
7448.81438,0.66723
7446.88563,0.66595
7444.95689,0.66810
7443.02814,0.67126
7441.09940,0.67199
7439.17065,0.67179
7437.24190,0.67104
7435.31316,0.66915
7433.38441,0.66607
7431.45567,0.66300
7429.52692,0.66523
7427.59818,0.67497
7425.66943,0.68639
7423.74069,0.69205
7421.81194,0.68976
7419.88320,0.68409
7417.95445,0.68040
7416.02571,0.67836
7414.09696,0.67517
7412.16822,0.67055
7410.23947,0.66610
7408.31073,0.66269
7406.38198,0.66050
7404.45323,0.66038
7402.52449,0.66114
7400.59574,0.66158
7398.66700,0.66300
7396.73825,0.66385
7394.80951,0.66260
7392.88076,0.66185
7390.95202,0.66252
7389.02327,0.66294
7387.09453,0.66156
7385.16578,0.65780
7383.23704,0.65315
7381.30829,0.65183
7379.37955,0.65653
7377.45080,0.66226
7375.52205,0.66222
7373.59331,0.65679
7371.66456,0.65011
7369.73582,0.64712
7367.80707,0.65158
7365.87833,0.65806
7363.94958,0.65848
7362.02084,0.65465
7360.09209,0.65234
7358.16335,0.65262
7356.23460,0.65540
7354.30586,0.66127
7352.37711,0.66604
7350.44837,0.66512
7348.51962,0.66128
7346.59088,0.65929
7344.66213,0.65999
7342.73338,0.66190
7340.80464,0.66292
7338.87589,0.66214
7336.94715,0.66145
7335.01840,0.66136
7333.08966,0.65869
7331.16091,0.65314
7329.23217,0.64944
7327.30342,0.64898
7325.37468,0.64865
7323.44593,0.64898
7321.51719,0.65090
7319.58844,0.65217
7317.65970,0.65239
7315.73095,0.65155
7313.80221,0.65126
7311.87346,0.65425
7309.94471,0.65699
7308.01597,0.65633
7306.08722,0.65637
7304.15848,0.66006
7302.22973,0.66478
7300.30099,0.66668
7298.37224,0.66378
7296.44350,0.65776
7294.51475,0.65182
7292.58601,0.64910
7290.65726,0.65309
7288.72852,0.65958
7286.79977,0.65924
7284.87103,0.65403
7282.94228,0.65082
7281.01353,0.64787
7279.08479,0.64277
7277.15604,0.63921
7275.22730,0.64015
7273.29855,0.64452
7271.36981,0.65023
7269.44106,0.65410
7267.51232,0.65216
7265.58357,0.64594
7263.65483,0.64286
7261.72608,0.64521
7259.79734,0.64852
7257.86859,0.65125
7255.93985,0.65300
7254.01110,0.65174
7252.08236,0.64954
7250.15361,0.64888
7248.22486,0.64786
7246.29612,0.64523
7244.36737,0.64256
7242.43863,0.64320
7240.50988,0.64812
7238.58114,0.65197
7236.65239,0.65134
7234.72365,0.64877
7232.79490,0.64673
7230.86616,0.64694
7228.93741,0.64988
7227.00867,0.65257
7225.07992,0.65164
7223.15118,0.64675
7221.22243,0.64115
7219.29369,0.63781
7217.36494,0.63644
7215.43619,0.63678
7213.50745,0.63887
7211.57870,0.64102
7209.64996,0.64232
7207.72121,0.64257
7205.79247,0.64289
7203.86372,0.64546
7201.93498,0.64679
7200.00623,0.64158
7198.07749,0.63332
7196.14874,0.63089
7194.22000,0.63644
7192.29125,0.64360
7190.36251,0.64817
7188.43376,0.64958
7186.50501,0.64659
7184.57627,0.64179
7182.64752,0.63957
7180.71878,0.63930
7178.79003,0.64074
7176.86129,0.64558
7174.93254,0.64999
7173.00380,0.64843
7171.07505,0.64245
7169.14631,0.63829
7167.21756,0.63898
7165.28882,0.64227
7163.36007,0.64432
7161.43133,0.64305
7159.50258,0.64032
7157.57384,0.64015
7155.64509,0.64252
7153.71634,0.64375
7151.78760,0.64353
7149.85885,0.64402
7147.93011,0.64479
7146.00136,0.64520
7144.07262,0.64553
7142.14387,0.64610
7140.21513,0.64731
7138.28638,0.64958
7136.35764,0.65297
7134.42889,0.65402
7132.50015,0.65070
7130.57140,0.64803
7128.64266,0.64937
7126.71391,0.65151
7124.78516,0.65099
7122.85642,0.64904
7120.92767,0.64822
7118.99893,0.64702
7117.07018,0.64444
7115.14144,0.64370
7113.21269,0.64482
7111.28395,0.64406
7109.35520,0.64316
7107.42646,0.64702
7105.49771,0.65307
7103.56897,0.65532
7101.64022,0.65410
7099.71148,0.65265
7097.78273,0.65137
7095.85399,0.64955
7093.92524,0.64876
7091.99649,0.64931
7090.06775,0.64941
7088.13900,0.64962
7086.21026,0.64970
7084.28151,0.64926
7082.35277,0.65005
7080.42402,0.65012
7078.49528,0.64845
7076.56653,0.64907
7074.63779,0.65266
7072.70904,0.65412
7070.78030,0.65066
7068.85155,0.64668
7066.92281,0.64599
7064.99406,0.64734
7063.06532,0.65037
7061.13657,0.65330
7059.20782,0.65177
7057.27908,0.64860
7055.35033,0.64974
7053.42159,0.65226
7051.49284,0.65169
7049.56410,0.65052
7047.63535,0.65081
7045.70661,0.65054
7043.77786,0.64854
7041.84912,0.64777
7039.92037,0.65124
7037.99163,0.65595
7036.06288,0.65801
7034.13414,0.65811
7032.20539,0.65694
7030.27664,0.65529
7028.34790,0.65472
7026.41915,0.65333
7024.49041,0.65056
7022.56166,0.65079
7020.63292,0.65419
7018.70417,0.65352
7016.77543,0.64808
7014.84668,0.64544
7012.91794,0.64665
7010.98919,0.64872
7009.06045,0.65170
7007.13170,0.65398
7005.20296,0.65373
7003.27421,0.65241
7001.34547,0.65170
6999.41672,0.65097
6997.48797,0.64858
6995.55923,0.64606
6993.63048,0.64688
6991.70174,0.65018
6989.77299,0.65165
6987.84425,0.65083
6985.91550,0.65113
6983.98676,0.65258
6982.05801,0.65229
6980.12927,0.65117
6978.20052,0.65215
6976.27178,0.65450
6974.34303,0.65472
6972.41429,0.65171
6970.48554,0.64895
6968.55680,0.64855
6966.62805,0.64888
6964.69930,0.65033
6962.77056,0.65373
6960.84181,0.65616
6958.91307,0.65544
6956.98432,0.65348
6955.05558,0.65313
6953.12683,0.65449
6951.19809,0.65496
6949.26934,0.65331
6947.34060,0.65209
6945.41185,0.65323
6943.48311,0.65430
6941.55436,0.65281
6939.62562,0.65097
6937.69687,0.65146
6935.76812,0.65330
6933.83938,0.65453
6931.91063,0.65426
6929.98189,0.65355
6928.05314,0.65416
6926.12440,0.65486
6924.19565,0.65511
6922.26691,0.65610
6920.33816,0.65648
6918.40942,0.65694
6916.48067,0.65905
6914.55193,0.66003
6912.62318,0.65905
6910.69444,0.65794
6908.76569,0.65790
6906.83695,0.65934
6904.90820,0.65980
6902.97945,0.65752
6901.05071,0.65419
6899.12196,0.65261
6897.19322,0.65324
6895.26447,0.65281
6893.33573,0.65164
6891.40698,0.65255
6889.47824,0.65278
6887.54949,0.65061
6885.62075,0.64900
6883.69200,0.64884
6881.76326,0.64981
6879.83451,0.65174
6877.90577,0.65309
6875.97702,0.65355
6874.04828,0.65347
6872.11953,0.65252
6870.19078,0.65140
6868.26204,0.65061
6866.33329,0.65068
6864.40455,0.65159
6862.47580,0.65095
6860.54706,0.65010
6858.61831,0.65280
6856.68957,0.65526
6854.76082,0.65362
6852.83208,0.65245
6850.90333,0.65409
6848.97459,0.65528
6847.04584,0.65514
6845.11710,0.65431
6843.18835,0.65382
6841.25960,0.65577
6839.33086,0.65857
6837.40211,0.65939
6835.47337,0.65851
6833.54462,0.65589
6831.61588,0.65252
6829.68713,0.65134
6827.75839,0.65227
6825.82964,0.65298
6823.90090,0.65310
6821.97215,0.65266
6820.04341,0.65154
6818.11466,0.65176
6816.18592,0.65435
6814.25717,0.65715
6812.32843,0.65754
6810.39968,0.65523
6808.47093,0.65297
6806.54219,0.65307
6804.61344,0.65396
6802.68470,0.65205
6800.75595,0.64799
6798.82721,0.64571
6796.89846,0.64526
6794.96972,0.64563
6793.04097,0.64762
6791.11223,0.65037
6789.18348,0.65235
6787.25474,0.65269
6785.32599,0.65082
6783.39725,0.64906
6781.46850,0.65064
6779.53975,0.65323
6777.61101,0.65297
6775.68226,0.65052
6773.75352,0.64732
6771.82477,0.64495
6769.89603,0.64525
6767.96728,0.64711
6766.03854,0.64803
6764.10979,0.64705
6762.18105,0.64557
6760.25230,0.64639
6758.32356,0.64871
6756.39481,0.64850
6754.46607,0.64597
6752.53732,0.64270
6750.60858,0.63849
6748.67983,0.63729
6746.75108,0.64006
6744.82234,0.64148
6742.89359,0.64165
6740.96485,0.64421
6739.03610,0.64816
6737.10736,0.64987
6735.17861,0.64826
6733.24987,0.64570
6731.32112,0.64459
6729.39238,0.64443
6727.46363,0.64279
6725.53489,0.63977
6723.60614,0.63831
6721.67740,0.63933
6719.74865,0.64015
6717.81991,0.63856
6715.89116,0.63627
6713.96241,0.63492
6712.03367,0.63364
6710.10492,0.63362
6708.17618,0.63549
6706.24743,0.63471
6704.31869,0.63037
6702.38994,0.62829
6700.46120,0.62926
6698.53245,0.62965
6696.60371,0.62962
6694.67496,0.63014
6692.74622,0.63062
6690.81747,0.63005
6688.88873,0.62750
6686.95998,0.62410
6685.03123,0.62217
6683.10249,0.62196
6681.17374,0.62202
6679.24500,0.62264
6677.31625,0.62434
6675.38751,0.62533
6673.45876,0.62484
6671.53002,0.62356
6669.60127,0.62165
6667.67253,0.61996
6665.74378,0.62033
6663.81504,0.62354
6661.88629,0.62680
6659.95755,0.62771
6658.02880,0.62775
6656.10006,0.62796
6654.17131,0.62743
6652.24256,0.62589
6650.31382,0.62443
6648.38507,0.62348
6646.45633,0.62215
6644.52758,0.62119
6642.59884,0.62188
6640.67009,0.62262
6638.74135,0.62175
6636.81260,0.62099
6634.88386,0.62161
6632.95511,0.62206
6631.02637,0.62214
6629.09762,0.62311
6627.16888,0.62443
6625.24013,0.62481
6623.31139,0.62460
6621.38264,0.62495
6619.45389,0.62586
6617.52515,0.62539
6615.59640,0.62291
6613.66766,0.62128
6611.73891,0.62151
6609.81017,0.62169
6607.88142,0.62142
6605.95268,0.62095
6604.02393,0.62132
6602.09519,0.62329
6600.16644,0.62490
6598.23770,0.62553
6596.30895,0.62625
6594.38021,0.62576
6592.45146,0.62338
6590.52271,0.62181
6588.59397,0.62250
6586.66522,0.62382
6584.73648,0.62515
6582.80773,0.62683
6580.87899,0.62758
6578.95024,0.62717
6577.02150,0.62708
6575.09275,0.62735
6573.16401,0.62750
6571.23526,0.62808
6569.30652,0.62953
6567.37777,0.63119
6565.44903,0.63195
6563.52028,0.63205
6561.59154,0.63198
6559.66279,0.63208
6557.73404,0.63325
6555.80530,0.63451
6553.87655,0.63378
6551.94781,0.63184
6550.01906,0.63203
6548.09032,0.63483
6546.16157,0.63672
6544.23283,0.63625
6542.30408,0.63612
6540.37534,0.63733
6538.44659,0.63775
6536.51785,0.63743
6534.58910,0.63743
6532.66036,0.63657
6530.73161,0.63573
6528.80287,0.63691
6526.87412,0.63878
6524.94537,0.64047
6523.01663,0.64274
6521.08788,0.64428
6519.15914,0.64500
6517.23039,0.64667
6515.30165,0.64784
6513.37290,0.64641
6511.44416,0.64345
6509.51541,0.64150
6507.58667,0.64165
6505.65792,0.64252
6503.72918,0.64334
6501.80043,0.64413
6499.87169,0.64437
6497.94294,0.64525
6496.01419,0.64702
6494.08545,0.64611
6492.15670,0.64207
6490.22796,0.64004
6488.29921,0.64224
6486.37047,0.64544
6484.44172,0.64592
6482.51298,0.64353
6480.58423,0.64218
6478.65549,0.64405
6476.72674,0.64684
6474.79800,0.64852
6472.86925,0.64874
6470.94051,0.64747
6469.01176,0.64622
6467.08302,0.64636
6465.15427,0.64728
6463.22552,0.64834
6461.29678,0.64930
6459.36803,0.65023
6457.43929,0.65074
6455.51054,0.64992
6453.58180,0.64923
6451.65305,0.65028
6449.72431,0.65140
6447.79556,0.65115
6445.86682,0.65070
6443.93807,0.65135
6442.00933,0.65203
6440.08058,0.65046
6438.15184,0.64758
6436.22309,0.64633
6434.29434,0.64595
6432.36560,0.64519
6430.43685,0.64528
6428.50811,0.64635
6426.57936,0.64763
6424.65062,0.64821
6422.72187,0.64728
6420.79313,0.64540
6418.86438,0.64393
6416.93564,0.64480
6415.00689,0.64695
6413.07815,0.64692
6411.14940,0.64571
6409.22066,0.64556
6407.29191,0.64581
6405.36317,0.64638
6403.43442,0.64721
6401.50567,0.64770
6399.57693,0.64886
6397.64818,0.65098
6395.71944,0.65275
6393.79069,0.65301
6391.86195,0.65176
6389.93320,0.65092
6388.00446,0.65116
6386.07571,0.65064
6384.14697,0.64930
6382.21822,0.64881
6380.28948,0.64987
6378.36073,0.65128
6376.43199,0.65086
6374.50324,0.64978
6372.57450,0.65017
6370.64575,0.65010
6368.71700,0.64894
6366.78826,0.64874
6364.85951,0.64958
6362.93077,0.65134
6361.00202,0.65322
6359.07328,0.65324
6357.14453,0.65179
6355.21579,0.65022
6353.28704,0.64918
6351.35830,0.64946
6349.42955,0.65023
6347.50081,0.65010
6345.57206,0.65007
6343.64332,0.65119
6341.71457,0.65299
6339.78582,0.65446
6337.85708,0.65447
6335.92833,0.65331
6333.99959,0.65182
6332.07084,0.65030
6330.14210,0.64983
6328.21335,0.65030
6326.28461,0.64968
6324.35586,0.64779
6322.42712,0.64661
6320.49837,0.64701
6318.56963,0.64749
6316.64088,0.64687
6314.71214,0.64613
6312.78339,0.64670
6310.85465,0.64857
6308.92590,0.65071
6306.99715,0.65218
6305.06841,0.65224
6303.13966,0.65106
6301.21092,0.64989
6299.28217,0.64948
6297.35343,0.64953
6295.42468,0.65012
6293.49594,0.65115
6291.56719,0.65106
6289.63845,0.65001
6287.70970,0.64948
6285.78096,0.64954
6283.85221,0.65105
6281.92347,0.65397
6279.99472,0.65556
6278.06598,0.65485
6276.13723,0.65345
6274.20848,0.65242
6272.27974,0.65119
6270.35099,0.64927
6268.42225,0.64818
6266.49350,0.64919
6264.56476,0.65079
6262.63601,0.65096
6260.70727,0.64954
6258.77852,0.64841
6256.84978,0.64883
6254.92103,0.64935
6252.99229,0.64870
6251.06354,0.64722
6249.13480,0.64627
6247.20605,0.64688
6245.27730,0.64766
6243.34856,0.64782
6241.41981,0.64863
6239.49107,0.65004
6237.56232,0.65060
6235.63358,0.64974
6233.70483,0.64869
6231.77609,0.64857
6229.84734,0.64883
6227.91860,0.64907
6225.98985,0.64992
6224.06111,0.65105
6222.13236,0.65098
6220.20362,0.64979
6218.27487,0.64950
6216.34613,0.65060
6214.41738,0.65096
6212.48863,0.65003
6210.55989,0.65019
6208.63114,0.65165
6206.70240,0.65237
6204.77365,0.65256
6202.84491,0.65299
6200.91616,0.65315
6198.98742,0.65245
6197.05867,0.65089
6195.12993,0.64982
6193.20118,0.65001
6191.27244,0.65012
6189.34369,0.64923
6187.41495,0.64801
6185.48620,0.64718
6183.55746,0.64655
6181.62871,0.64638
6179.69996,0.64754
6177.77122,0.64868
6175.84247,0.64786
6173.91373,0.64654
6171.98498,0.64619
6170.05624,0.64589
6168.12749,0.64590
6166.19875,0.64696
6164.27000,0.64826
6162.34126,0.64910
6160.41251,0.64897
6158.48377,0.64767
6156.55502,0.64582
6154.62628,0.64437
6152.69753,0.64409
6150.76878,0.64495
6148.84004,0.64624
6146.91129,0.64703
6144.98255,0.64711
6143.05380,0.64732
6141.12506,0.64783
6139.19631,0.64805
6137.26757,0.64767
6135.33882,0.64661
6133.41008,0.64541
6131.48133,0.64492
6129.55259,0.64477
6127.62384,0.64433
6125.69510,0.64437
6123.76635,0.64466
6121.83761,0.64370
6119.90886,0.64211
6117.98011,0.64109
6116.05137,0.64021
6114.12262,0.63919
6112.19388,0.63830
6110.26513,0.63777
6108.33639,0.63748
6106.40764,0.63675
6104.47890,0.63521
6102.55015,0.63449
6100.62141,0.63585
6098.69266,0.63711
6096.76392,0.63699
6094.83517,0.63682
6092.90643,0.63649
6090.97768,0.63555
6089.04893,0.63463
6087.12019,0.63358
6085.19144,0.63191
6083.26270,0.63042
6081.33395,0.63031
6079.40521,0.63147
6077.47646,0.63245
6075.54772,0.63252
6073.61897,0.63193
6071.69023,0.63094
6069.76148,0.62986
6067.83274,0.62903
6065.90399,0.62884
6063.97525,0.62918
6062.04650,0.62949
6060.11776,0.62979
6058.18901,0.62999
6056.26026,0.63004
6054.33152,0.62974
6052.40277,0.62855
6050.47403,0.62669
6048.54528,0.62522
6046.61654,0.62508
6044.68779,0.62555
6042.75905,0.62506
6040.83030,0.62320
6038.90156,0.62110
6036.97281,0.62019
6035.04407,0.62044
6033.11532,0.62139
6031.18658,0.62263
6029.25783,0.62281
6027.32909,0.62123
6025.40034,0.61874
6023.47159,0.61690
6021.54285,0.61620
6019.61410,0.61555
6017.68536,0.61511
6015.75661,0.61556
6013.82787,0.61581
6011.89912,0.61529
6009.97038,0.61417
6008.04163,0.61248
6006.11289,0.61156
6004.18414,0.61135
6002.25540,0.60990
6000.32665,0.60757
5998.39791,0.60575
5996.46916,0.60428
5994.54041,0.60271
5992.61167,0.60101
5990.68292,0.59920
5988.75418,0.59681
5986.82543,0.59321
5984.89669,0.58945
5982.96794,0.58754
5981.03920,0.58657
5979.11045,0.58423
5977.18171,0.58160
5975.25296,0.58025
5973.32422,0.57897
5971.39547,0.57676
5969.46673,0.57409
5967.53798,0.57073
5965.60924,0.56630
5963.68049,0.56208
5961.75174,0.55914
5959.82300,0.55593
5957.89425,0.55164
5955.96551,0.54803
5954.03676,0.54502
5952.10802,0.54104
5950.17927,0.53666
5948.25053,0.53399
5946.32178,0.53351
5944.39304,0.53292
5942.46429,0.53129
5940.53555,0.53019
5938.60680,0.53009
5936.67806,0.53101
5934.74931,0.53328
5932.82057,0.53580
5930.89182,0.53706
5928.96307,0.53714
5927.03433,0.53744
5925.10558,0.53872
5923.17684,0.53975
5921.24809,0.53875
5919.31935,0.53643
5917.39060,0.53465
5915.46186,0.53343
5913.53311,0.53183
5911.60437,0.52936
5909.67562,0.52709
5907.74688,0.52605
5905.81813,0.52432
5903.88939,0.52060
5901.96064,0.51771
5900.03189,0.51767
5898.10315,0.51872
5896.17440,0.51929
5894.24566,0.52031
5892.31691,0.52268
5890.38817,0.52599
5888.45942,0.52954
5886.53068,0.53257
5884.60193,0.53474
5882.67319,0.53635
5880.74444,0.53719
5878.81570,0.53751
5876.88695,0.53878
5874.95821,0.54140
5873.02946,0.54363
5871.10072,0.54419
5869.17197,0.54397
5867.24322,0.54409
5865.31448,0.54450
5863.38573,0.54535
5861.45699,0.54663
5859.52824,0.54732
5857.59950,0.54718
5855.67075,0.54680
5853.74201,0.54616
5851.81326,0.54508
5849.88452,0.54355
5847.95577,0.54221
5846.02703,0.54216
5844.09828,0.54290
5842.16954,0.54312
5840.24079,0.54233
5838.31205,0.54029
5836.38330,0.53803
5834.45455,0.53720
5832.52581,0.53727
5830.59706,0.53651
5828.66832,0.53505
5826.73957,0.53418
5824.81083,0.53360
5822.88208,0.53199
5820.95334,0.52959
5819.02459,0.52787
5817.09585,0.52708
5815.16710,0.52621
5813.23836,0.52523
5811.30961,0.52476
5809.38087,0.52406
5807.45212,0.52213
5805.52337,0.51929
5803.59463,0.51653
5801.66588,0.51533
5799.73714,0.51619
5797.80839,0.51721
5795.87965,0.51683
5793.95090,0.51532
5792.02216,0.51346
5790.09341,0.51169
5788.16467,0.51010
5786.23592,0.50898
5784.30718,0.50821
5782.37843,0.50751
5780.44969,0.50717
5778.52094,0.50679
5776.59220,0.50578
5774.66345,0.50451
5772.73470,0.50361
5770.80596,0.50352
5768.87721,0.50455
5766.94847,0.50606
5765.01972,0.50696
5763.09098,0.50792
5761.16223,0.51003
5759.23349,0.51218
5757.30474,0.51333
5755.37600,0.51412
5753.44725,0.51492
5751.51851,0.51522
5749.58976,0.51525
5747.66102,0.51638
5745.73227,0.51870
5743.80352,0.52116
5741.87478,0.52362
5739.94603,0.52606
5738.01729,0.52758
5736.08854,0.52779
5734.15980,0.52793
5732.23105,0.52952
5730.30231,0.53220
5728.37356,0.53465
5726.44482,0.53679
5724.51607,0.53914
5722.58733,0.54110
5720.65858,0.54226
5718.72984,0.54335
5716.80109,0.54438
5714.87235,0.54555
5712.94360,0.54746
5711.01485,0.54931
5709.08611,0.55049
5707.15736,0.55199
5705.22862,0.55441
5703.29987,0.55657
5701.37113,0.55736
5699.44238,0.55719
5697.51364,0.55689
5695.58489,0.55734
5693.65615,0.55855
5691.72740,0.55918
5689.79866,0.55898
5687.86991,0.55907
5685.94117,0.55944
5684.01242,0.55906
5682.08368,0.55814
5680.15493,0.55767
5678.22618,0.55757
5676.29744,0.55734
5674.36869,0.55732
5672.43995,0.55784
5670.51120,0.55850
5668.58246,0.55841
5666.65371,0.55771
5664.72497,0.55780
5662.79622,0.55885
5660.86748,0.55932
5658.93873,0.55801
5657.00999,0.55631
5655.08124,0.55669
5653.15250,0.55878
5651.22375,0.56046
5649.29500,0.56057
5647.36626,0.55966
5645.43751,0.55949
5643.50877,0.56085
5641.58002,0.56305
5639.65128,0.56482
5637.72253,0.56517
5635.79379,0.56519
5633.86504,0.56614
5631.93630,0.56708
5630.00755,0.56779
5628.07881,0.56957
5626.15006,0.57156
5624.22132,0.57225
5622.29257,0.57284
5620.36383,0.57443
5618.43508,0.57584
5616.50633,0.57654
5614.57759,0.57699
5612.64884,0.57691
5610.72010,0.57651
5608.79135,0.57653
5606.86261,0.57703
5604.93386,0.57781
5603.00512,0.57838
5601.07637,0.57818
5599.14763,0.57778
5597.21888,0.57819
5595.29014,0.57885
5593.36139,0.57908
5591.43265,0.57959
5589.50390,0.58025
5587.57516,0.58011
5585.64641,0.57922
5583.71766,0.57826
5581.78892,0.57769
5579.86017,0.57757
5577.93143,0.57814
5576.00268,0.57903
5574.07394,0.57862
5572.14519,0.57693
5570.21645,0.57609
5568.28770,0.57713
5566.35896,0.57884
5564.43021,0.57962
5562.50147,0.57929
5560.57272,0.57862
5558.64398,0.57823
5556.71523,0.57872
5554.78648,0.58007
5552.85774,0.58079
5550.92899,0.58026
5549.00025,0.57993
5547.07150,0.58023
5545.14276,0.58026
5543.21401,0.57987
5541.28527,0.57904
5539.35652,0.57811
5537.42778,0.57795
5535.49903,0.57845
5533.57029,0.57887
5531.64154,0.57896
5529.71280,0.57924
5527.78405,0.57977
5525.85531,0.57980
5523.92656,0.57959
5521.99781,0.57952
5520.06907,0.57940
5518.14032,0.57961
5516.21158,0.58023
5514.28283,0.58064
5512.35409,0.58083
5510.42534,0.58103
5508.49660,0.58138
5506.56785,0.58224
5504.63911,0.58318
5502.71036,0.58317
5500.78162,0.58252
5498.85287,0.58258
5496.92413,0.58345
5494.99538,0.58407
5493.06664,0.58432
5491.13789,0.58491
5489.20914,0.58599
5487.28040,0.58712
5485.35165,0.58757
5483.42291,0.58715
5481.49416,0.58679
5479.56542,0.58708
5477.63667,0.58733
5475.70793,0.58691
5473.77918,0.58641
5471.85044,0.58657
5469.92169,0.58718
5467.99295,0.58752
5466.06420,0.58733
5464.13546,0.58678
5462.20671,0.58616
5460.27796,0.58642
5458.34922,0.58802
5456.42047,0.58918
5454.49173,0.58849
5452.56298,0.58716
5450.63424,0.58618
5448.70549,0.58574
5446.77675,0.58683
5444.84800,0.58886
5442.91926,0.58985
5440.99051,0.58964
5439.06177,0.58935
5437.13302,0.58957
5435.20428,0.59009
5433.27553,0.59057
5431.34679,0.59143
5429.41804,0.59265
5427.48929,0.59325
5425.56055,0.59344
5423.63180,0.59424
5421.70306,0.59554
5419.77431,0.59678
5417.84557,0.59782
5415.91682,0.59875
5413.98808,0.60006
5412.05933,0.60179
5410.13059,0.60306
5408.20184,0.60343
5406.27310,0.60355
5404.34435,0.60406
5402.41561,0.60478
5400.48686,0.60504
5398.55811,0.60489
5396.62937,0.60541
5394.70062,0.60711
5392.77188,0.60909
5390.84313,0.61052
5388.91439,0.61150
5386.98564,0.61221
5385.05690,0.61279
5383.12815,0.61323
5381.19941,0.61317
5379.27066,0.61297
5377.34192,0.61299
5375.41317,0.61286
5373.48443,0.61232
5371.55568,0.61165
5369.62694,0.61189
5367.69819,0.61327
5365.76944,0.61446
5363.84070,0.61485
5361.91195,0.61486
5359.98321,0.61422
5358.05446,0.61291
5356.12572,0.61223
5354.19697,0.61259
5352.26823,0.61315
5350.33948,0.61395
5348.41074,0.61478
5346.48199,0.61504
5344.55325,0.61516
5342.62450,0.61503
5340.69576,0.61417
5338.76701,0.61332
5336.83827,0.61319
5334.90952,0.61360
5332.98077,0.61409
5331.05203,0.61455
5329.12328,0.61529
5327.19454,0.61610
5325.26579,0.61623
5323.33705,0.61578
5321.40830,0.61556
5319.47956,0.61571
5317.55081,0.61577
5315.62207,0.61556
5313.69332,0.61531
5311.76458,0.61559
5309.83583,0.61643
5307.90709,0.61663
5305.97834,0.61569
5304.04959,0.61489
5302.12085,0.61508
5300.19210,0.61526
5298.26336,0.61422
5296.33461,0.61268
5294.40587,0.61205
5292.47712,0.61218
5290.54838,0.61242
5288.61963,0.61243
5286.69089,0.61176
5284.76214,0.61067
5282.83340,0.60989
5280.90465,0.60933
5278.97591,0.60843
5277.04716,0.60754
5275.11842,0.60725
5273.18967,0.60693
5271.26092,0.60569
5269.33218,0.60439
5267.40343,0.60443
5265.47469,0.60501
5263.54594,0.60429
5261.61720,0.60257
5259.68845,0.60167
5257.75971,0.60178
5255.83096,0.60156
5253.90222,0.60058
5251.97347,0.59941
5250.04473,0.59847
5248.11598,0.59807
5246.18724,0.59797
5244.25849,0.59757
5242.32975,0.59671
5240.40100,0.59593
5238.47225,0.59569
5236.54351,0.59569
5234.61476,0.59523
5232.68602,0.59426
5230.75727,0.59364
5228.82853,0.59384
5226.89978,0.59449
5224.97104,0.59502
5223.04229,0.59491
5221.11355,0.59440
5219.18480,0.59393
5217.25606,0.59358
5215.32731,0.59350
5213.39857,0.59318
5211.46982,0.59255
5209.54107,0.59282
5207.61233,0.59376
5205.68358,0.59371
5203.75484,0.59272
5201.82609,0.59195
5199.89735,0.59176
5197.96860,0.59208
5196.03986,0.59274
5194.11111,0.59331
5192.18237,0.59378
5190.25362,0.59429
5188.32488,0.59487
5186.39613,0.59567
5184.46739,0.59648
5182.53864,0.59661
5180.60990,0.59600
5178.68115,0.59535
5176.75240,0.59526
5174.82366,0.59570
5172.89491,0.59621
5170.96617,0.59633
5169.03742,0.59610
5167.10868,0.59647
5165.17993,0.59771
5163.25119,0.59857
5161.32244,0.59824
5159.39370,0.59732
5157.46495,0.59660
5155.53621,0.59619
5153.60746,0.59594
5151.67872,0.59593
5149.74997,0.59609
5147.82123,0.59620
5145.89248,0.59601
5143.96373,0.59569
5142.03499,0.59590
5140.10624,0.59645
5138.17750,0.59684
5136.24875,0.59716
5134.32001,0.59741
5132.39126,0.59725
5130.46252,0.59657
5128.53377,0.59594
5126.60503,0.59587
5124.67628,0.59618
5122.74754,0.59663
5120.81879,0.59672
5118.89005,0.59620
5116.96130,0.59600
5115.03255,0.59635
5113.10381,0.59649
5111.17506,0.59638
5109.24632,0.59619
5107.31757,0.59576
5105.38883,0.59533
5103.46008,0.59497
5101.53134,0.59450
5099.60259,0.59375
5097.67385,0.59257
5095.74510,0.59164
5093.81636,0.59147
5091.88761,0.59132
5089.95887,0.59090
5088.03012,0.59055
5086.10138,0.59025
5084.17263,0.59003
5082.24388,0.59002
5080.31514,0.58977
5078.38639,0.58901
5076.45765,0.58831
5074.52890,0.58768
5072.60016,0.58672
5070.67141,0.58606
5068.74267,0.58598
5066.81392,0.58573
5064.88518,0.58508
5062.95643,0.58413
5061.02769,0.58306
5059.09894,0.58236
5057.17020,0.58212
5055.24145,0.58183
5053.31270,0.58124
5051.38396,0.58034
5049.45521,0.57908
5047.52647,0.57793
5045.59772,0.57704
5043.66898,0.57632
5041.74023,0.57607
5039.81149,0.57567
5037.88274,0.57462
5035.95400,0.57366
5034.02525,0.57329
5032.09651,0.57311
5030.16776,0.57230
5028.23902,0.57073
5026.31027,0.56923
5024.38153,0.56833
5022.45278,0.56793
5020.52403,0.56756
5018.59529,0.56701
5016.66654,0.56652
5014.73780,0.56576
5012.80905,0.56449
5010.88031,0.56360
5008.95156,0.56340
5007.02282,0.56294
5005.09407,0.56194
5003.16533,0.56073
5001.23658,0.55924
4999.30784,0.55763
4997.37909,0.55653
4995.45035,0.55578
4993.52160,0.55491
4991.59286,0.55415
4989.66411,0.55318
4987.73536,0.55127
4985.80662,0.54920
4983.87787,0.54770
4981.94913,0.54612
4980.02038,0.54429
4978.09164,0.54292
4976.16289,0.54172
4974.23415,0.53965
4972.30540,0.53701
4970.37666,0.53499
4968.44791,0.53340
4966.51917,0.53133
4964.59042,0.52898
4962.66168,0.52718
4960.73293,0.52613
4958.80418,0.52505
4956.87544,0.52339
4954.94669,0.52156
4953.01795,0.51977
4951.08920,0.51779
4949.16046,0.51556
4947.23171,0.51346
4945.30297,0.51177
4943.37422,0.51009
4941.44548,0.50797
4939.51673,0.50556
4937.58799,0.50362
4935.65924,0.50254
4933.73050,0.50157
4931.80175,0.50022
4929.87301,0.49901
4927.94426,0.49831
4926.01551,0.49773
4924.08677,0.49669
4922.15802,0.49535
4920.22928,0.49410
4918.30053,0.49284
4916.37179,0.49137
4914.44304,0.48972
4912.51430,0.48798
4910.58555,0.48630
4908.65681,0.48476
4906.72806,0.48338
4904.79932,0.48188
4902.87057,0.48015
4900.94183,0.47888
4899.01308,0.47842
4897.08434,0.47830
4895.15559,0.47781
4893.22684,0.47643
4891.29810,0.47473
4889.36935,0.47380
4887.44061,0.47379
4885.51186,0.47375
4883.58312,0.47296
4881.65437,0.47202
4879.72563,0.47142
4877.79688,0.47087
4875.86814,0.47013
4873.93939,0.46883
4872.01065,0.46701
4870.08190,0.46542
4868.15316,0.46433
4866.22441,0.46347
4864.29566,0.46275
4862.36692,0.46200
4860.43817,0.46090
4858.50943,0.45981
4856.58068,0.45919
4854.65194,0.45851
4852.72319,0.45749
4850.79445,0.45690
4848.86570,0.45684
4846.93696,0.45672
4845.00821,0.45649
4843.07947,0.45630
4841.15072,0.45642
4839.22198,0.45704
4837.29323,0.45762
4835.36449,0.45776
4833.43574,0.45808
4831.50699,0.45889
4829.57825,0.45983
4827.64950,0.46101
4825.72076,0.46209
4823.79201,0.46267
4821.86327,0.46360
4819.93452,0.46497
4818.00578,0.46593
4816.07703,0.46670
4814.14829,0.46783
4812.21954,0.46897
4810.29080,0.46996
4808.36205,0.47132
4806.43331,0.47304
4804.50456,0.47456
4802.57582,0.47569
4800.64707,0.47659
4798.71832,0.47766
4796.78958,0.47909
4794.86083,0.48067
4792.93209,0.48188
4791.00334,0.48251
4789.07460,0.48340
4787.14585,0.48504
4785.21711,0.48668
4783.28836,0.48774
4781.35962,0.48839
4779.43087,0.48917
4777.50213,0.49053
4775.57338,0.49222
4773.64464,0.49392
4771.71589,0.49542
4769.78714,0.49649
4767.85840,0.49715
4765.92965,0.49759
4764.00091,0.49815
4762.07216,0.49915
4760.14342,0.50029
4758.21467,0.50101
4756.28593,0.50137
4754.35718,0.50160
4752.42844,0.50149
4750.49969,0.50123
4748.57095,0.50139
4746.64220,0.50195
4744.71346,0.50254
4742.78471,0.50283
4740.85597,0.50277
4738.92722,0.50275
4736.99847,0.50309
4735.06973,0.50357
4733.14098,0.50365
4731.21224,0.50311
4729.28349,0.50225
4727.35475,0.50144
4725.42600,0.50098
4723.49726,0.50111
4721.56851,0.50157
4719.63977,0.50177
4717.71102,0.50136
4715.78228,0.50069
4713.85353,0.50036
4711.92479,0.50001
4709.99604,0.49926
4708.06729,0.49867
4706.13855,0.49837
4704.20980,0.49789
4702.28106,0.49718
4700.35231,0.49625
4698.42357,0.49510
4696.49482,0.49423
4694.56608,0.49401
4692.63733,0.49388
4690.70859,0.49299
4688.77984,0.49158
4686.85110,0.49042
4684.92235,0.48941
4682.99361,0.48791
4681.06486,0.48598
4679.13612,0.48442
4677.20737,0.48350
4675.27862,0.48249
4673.34988,0.48098
4671.42113,0.47948
4669.49239,0.47837
4667.56364,0.47734
4665.63490,0.47597
4663.70615,0.47456
4661.77741,0.47371
4659.84866,0.47313
4657.91992,0.47235
4655.99117,0.47160
4654.06243,0.47121
4652.13368,0.47121
4650.20494,0.47106
4648.27619,0.47023
4646.34745,0.46922
4644.41870,0.46886
4642.48995,0.46900
4640.56121,0.46877
4638.63246,0.46812
4636.70372,0.46766
4634.77497,0.46736
4632.84623,0.46687
4630.91748,0.46635
4628.98874,0.46610
4627.05999,0.46608
4625.13125,0.46605
4623.20250,0.46582
4621.27376,0.46552
4619.34501,0.46527
4617.41627,0.46487
4615.48752,0.46449
4613.55877,0.46449
4611.63003,0.46457
4609.70128,0.46421
4607.77254,0.46367
4605.84379,0.46379
4603.91505,0.46444
4601.98630,0.46475
4600.05756,0.46468
4598.12881,0.46457
4596.20007,0.46440
4594.27132,0.46421
4592.34258,0.46441
4590.41383,0.46512
4588.48509,0.46582
4586.55634,0.46607
4584.62760,0.46575
4582.69885,0.46527
4580.77010,0.46517
4578.84136,0.46538
4576.91261,0.46550
4574.98387,0.46540
4573.05512,0.46513
4571.12638,0.46481
4569.19763,0.46458
4567.26889,0.46460
4565.34014,0.46466
4563.41140,0.46446
4561.48265,0.46395
4559.55391,0.46329
4557.62516,0.46259
4555.69642,0.46202
4553.76767,0.46167
4551.83893,0.46144
4549.91018,0.46130
4547.98143,0.46132
4546.05269,0.46125
4544.12394,0.46094
4542.19520,0.46077
4540.26645,0.46061
4538.33771,0.46001
4536.40896,0.45936
4534.48022,0.45932
4532.55147,0.45963
4530.62273,0.45954
4528.69398,0.45904
4526.76524,0.45853
4524.83649,0.45809
4522.90775,0.45770
4520.97900,0.45741
4519.05025,0.45724
4517.12151,0.45713
4515.19276,0.45702
4513.26402,0.45701
4511.33527,0.45695
4509.40653,0.45619
4507.47778,0.45495
4505.54904,0.45432
4503.62029,0.45427
4501.69155,0.45378
4499.76280,0.45277
4497.83406,0.45198
4495.90531,0.45160
4493.97657,0.45112
4492.04782,0.45017
4490.11908,0.44882
4488.19033,0.44738
4486.26158,0.44612
4484.33284,0.44490
4482.40409,0.44361
4480.47535,0.44227
4478.54660,0.44062
4476.61786,0.43869
4474.68911,0.43670
4472.76037,0.43488
4470.83162,0.43320
4468.90288,0.43122
4466.97413,0.42882
4465.04539,0.42610
4463.11664,0.42278
4461.18790,0.41885
4459.25915,0.41474
4457.33041,0.41055
4455.40166,0.40608
4453.47291,0.40144
4451.54417,0.39649
4449.61542,0.39090
4447.68668,0.38489
4445.75793,0.37881
4443.82919,0.37250
4441.90044,0.36587
4439.97170,0.35905
4438.04295,0.35214
4436.11421,0.34526
4434.18546,0.33849
4432.25672,0.33186
4430.32797,0.32543
4428.39923,0.31932
4426.47048,0.31368
4424.54173,0.30840
4422.61299,0.30334
4420.68424,0.29884
4418.75550,0.29491
4416.82675,0.29140
4414.89801,0.28870
4412.96926,0.28720
4411.04052,0.28693
4409.11177,0.28755
4407.18303,0.28870
4405.25428,0.29032
4403.32554,0.29263
4401.39679,0.29563
4399.46805,0.29855
4397.53930,0.30037
4395.61056,0.30102
4393.68181,0.30106
4391.75306,0.30085
4389.82432,0.30034
4387.89557,0.29922
4385.96683,0.29743
4384.03808,0.29566
4382.10934,0.29413
4380.18059,0.29225
4378.25185,0.28982
4376.32310,0.28700
4374.39436,0.28406
4372.46561,0.28141
4370.53687,0.27886
4368.60812,0.27582
4366.67938,0.27229
4364.75063,0.26852
4362.82189,0.26465
4360.89314,0.26094
4358.96439,0.25756
4357.03565,0.25431
4355.10690,0.25093
4353.17816,0.24749
4351.24941,0.24425
4349.32067,0.24145
4347.39192,0.23895
4345.46318,0.23655
4343.53443,0.23438
4341.60569,0.23269
4339.67694,0.23152
4337.74820,0.23069
4335.81945,0.22997
4333.89071,0.22944
4331.96196,0.22937
4330.03321,0.22983
4328.10447,0.23054
4326.17572,0.23115
4324.24698,0.23186
4322.31823,0.23322
4320.38949,0.23523
4318.46074,0.23763
4316.53200,0.24038
4314.60325,0.24337
4312.67451,0.24652
4310.74576,0.25002
4308.81702,0.25370
4306.88827,0.25733
4304.95953,0.26113
4303.03078,0.26527
4301.10204,0.26929
4299.17329,0.27268
4297.24454,0.27554
4295.31580,0.27823
4293.38705,0.28056
4291.45831,0.28213
4289.52956,0.28316
4287.60082,0.28425
4285.67207,0.28531
4283.74333,0.28581
4281.81458,0.28598
4279.88584,0.28620
4277.95709,0.28627
4276.02835,0.28621
4274.09960,0.28649
4272.17086,0.28699
4270.24211,0.28759
4268.31336,0.28848
4266.38462,0.28948
4264.45587,0.29064
4262.52713,0.29221
4260.59838,0.29399
4258.66964,0.29561
4256.74089,0.29704
4254.81215,0.29832
4252.88340,0.29936
4250.95466,0.30040
4249.02591,0.30161
4247.09717,0.30241
4245.16842,0.30288
4243.23968,0.30361
4241.31093,0.30430
4239.38219,0.30457
4237.45344,0.30492
4235.52469,0.30578
4233.59595,0.30684
4231.66720,0.30780
4229.73846,0.30886
4227.80971,0.31009
4225.88097,0.31131
4223.95222,0.31261
4222.02348,0.31426
4220.09473,0.31611
4218.16599,0.31797
4216.23724,0.31982
4214.30850,0.32142
4212.37975,0.32290
4210.45101,0.32482
4208.52226,0.32708
4206.59352,0.32907
4204.66477,0.33056
4202.73602,0.33175
4200.80728,0.33286
4198.87853,0.33384
4196.94979,0.33442
4195.02104,0.33450
4193.09230,0.33432
4191.16355,0.33429
4189.23481,0.33432
4187.30606,0.33392
4185.37732,0.33324
4183.44857,0.33260
4181.51983,0.33198
4179.59108,0.33137
4177.66234,0.33058
4175.73359,0.32939
4173.80484,0.32805
4171.87610,0.32686
4169.94735,0.32575
4168.01861,0.32460
4166.08986,0.32348
4164.16112,0.32254
4162.23237,0.32204
4160.30363,0.32166
4158.37488,0.32083
4156.44614,0.31954
4154.51739,0.31818
4152.58865,0.31720
4150.65990,0.31678
4148.73116,0.31659
4146.80241,0.31642
4144.87367,0.31640
4142.94492,0.31649
4141.01617,0.31658
4139.08743,0.31644
4137.15868,0.31590
4135.22994,0.31522
4133.30119,0.31463
4131.37245,0.31416
4129.44370,0.31383
4127.51496,0.31364
4125.58621,0.31340
4123.65747,0.31291
4121.72872,0.31208
4119.79998,0.31121
4117.87123,0.31042
4115.94249,0.30943
4114.01374,0.30816
4112.08500,0.30693
4110.15625,0.30601
4108.22750,0.30514
4106.29876,0.30376
4104.37001,0.30199
4102.44127,0.30036
4100.51252,0.29912
4098.58378,0.29811
4096.65503,0.29708
4094.72629,0.29565
4092.79754,0.29376
4090.86880,0.29174
4088.94005,0.28963
4087.01131,0.28738
4085.08256,0.28541
4083.15382,0.28396
4081.22507,0.28269
4079.29632,0.28116
4077.36758,0.27925
4075.43883,0.27727
4073.51009,0.27573
4071.58134,0.27473
4069.65260,0.27368
4067.72385,0.27229
4065.79511,0.27093
4063.86636,0.26982
4061.93762,0.26884
4060.00887,0.26779
4058.08013,0.26657
4056.15138,0.26556
4054.22264,0.26492
4052.29389,0.26423
4050.36515,0.26339
4048.43640,0.26268
4046.50765,0.26211
4044.57891,0.26153
4042.65016,0.26100
4040.72142,0.26054
4038.79267,0.26003
4036.86393,0.25958
4034.93518,0.25931
4033.00644,0.25918
4031.07769,0.25909
4029.14895,0.25891
4027.22020,0.25896
4025.29146,0.25944
4023.36271,0.25992
4021.43397,0.26025
4019.50522,0.26043
4017.57648,0.26045
4015.64773,0.26045
4013.71898,0.26052
4011.79024,0.26076
4009.86149,0.26117
4007.93275,0.26160
4006.00400,0.26210
4004.07526,0.26261
4002.14651,0.26301
4000.21777,0.26353
3998.28902,0.26413
3996.36028,0.26466
3994.43153,0.26530
3992.50279,0.26621
3990.57404,0.26742
3988.64530,0.26885
3986.71655,0.27020
3984.78780,0.27134
3982.85906,0.27254
3980.93031,0.27388
3979.00157,0.27510
3977.07282,0.27637
3975.14408,0.27802
3973.21533,0.27990
3971.28659,0.28158
3969.35784,0.28304
3967.42910,0.28472
3965.50035,0.28660
3963.57161,0.28819
3961.64286,0.28963
3959.71412,0.29141
3957.78537,0.29341
3955.85663,0.29530
3953.92788,0.29714
3951.99913,0.29926
3950.07039,0.30176
3948.14164,0.30419
3946.21290,0.30634
3944.28415,0.30852
3942.35541,0.31084
3940.42666,0.31334
3938.49792,0.31601
3936.56917,0.31865
3934.64043,0.32118
3932.71168,0.32364
3930.78294,0.32593
3928.85419,0.32815
3926.92545,0.33054
3924.99670,0.33296
3923.06795,0.33499
3921.13921,0.33647
3919.21046,0.33773
3917.28172,0.33909
3915.35297,0.34049
3913.42423,0.34183
3911.49548,0.34320
3909.56674,0.34452
3907.63799,0.34567
3905.70925,0.34690
3903.78050,0.34831
3901.85176,0.34946
3899.92301,0.34996
3897.99427,0.34980
3896.06552,0.34955
3894.13678,0.34998
3892.20803,0.35109
3890.27928,0.35198
3888.35054,0.35247
3886.42179,0.35322
3884.49305,0.35411
3882.56430,0.35460
3880.63556,0.35474
3878.70681,0.35476
3876.77807,0.35507
3874.84932,0.35567
3872.92058,0.35610
3870.99183,0.35637
3869.06309,0.35651
3867.13434,0.35658
3865.20560,0.35671
3863.27685,0.35650
3861.34811,0.35603
3859.41936,0.35587
3857.49061,0.35631
3855.56187,0.35742
3853.63312,0.35843
3851.70438,0.35831
3849.77563,0.35798
3847.84689,0.35834
3845.91814,0.35930
3843.98940,0.36029
3842.06065,0.36124
3840.13191,0.36264
3838.20316,0.36421
3836.27442,0.36500
3834.34567,0.36535
3832.41693,0.36593
3830.48818,0.36665
3828.55943,0.36748
3826.63069,0.36835
3824.70194,0.36935
3822.77320,0.37084
3820.84445,0.37224
3818.91571,0.37265
3816.98696,0.37282
3815.05822,0.37307
3813.12947,0.37297
3811.20073,0.37288
3809.27198,0.37313
3807.34324,0.37354
3805.41449,0.37391
3803.48575,0.37422
3801.55700,0.37443
3799.62826,0.37448
3797.69951,0.37462
3795.77076,0.37467
3793.84202,0.37442
3791.91327,0.37421
3789.98453,0.37445
3788.05578,0.37527
3786.12704,0.37655
3784.19829,0.37804
3782.26955,0.37970
3780.34080,0.38142
3778.41206,0.38270
3776.48331,0.38348
3774.55457,0.38454
3772.62582,0.38641
3770.69708,0.38894
3768.76833,0.39138
3766.83959,0.39327
3764.91084,0.39485
3762.98209,0.39658
3761.05335,0.39884
3759.12460,0.40122
3757.19586,0.40317
3755.26711,0.40494
3753.33837,0.40702
3751.40962,0.40947
3749.48088,0.41142
3747.55213,0.41271
3745.62339,0.41415
3743.69464,0.41561
3741.76590,0.41643
3739.83715,0.41716
3737.90841,0.41848
3735.97966,0.42019
3734.05091,0.42147
3732.12217,0.42208
3730.19342,0.42250
3728.26468,0.42329
3726.33593,0.42462
3724.40719,0.42576
3722.47844,0.42612
3720.54970,0.42606
3718.62095,0.42611
3716.69221,0.42646
3714.76346,0.42707
3712.83472,0.42791
3710.90597,0.42849
3708.97723,0.42815
3707.04848,0.42729
3705.11974,0.42670
3703.19099,0.42655
3701.26224,0.42599
3699.33350,0.42452
3697.40475,0.42267
3695.47601,0.42068
3693.54726,0.41862
3691.61852,0.41657
3689.68977,0.41375
3687.76103,0.40937
3685.83228,0.40503
3683.90354,0.40191
3681.97479,0.39959
3680.04605,0.39763
3678.11730,0.39565
3676.18856,0.39292
3674.25981,0.38935
3672.33107,0.38593
3670.40232,0.38226
3668.47357,0.37796
3666.54483,0.37390
3664.61608,0.37020
3662.68734,0.36668
3660.75859,0.36333
3658.82985,0.36012
3656.90110,0.35677
3654.97236,0.35333
3653.04361,0.35053
3651.11487,0.34801
3649.18612,0.34459
3647.25738,0.34025
3645.32863,0.33609
3643.39989,0.33249
3641.47114,0.32917
3639.54239,0.32593
3637.61365,0.32291
3635.68490,0.32019
3633.75616,0.31767
3631.82741,0.31523
3629.89867,0.31229
3627.96992,0.30849
3626.04118,0.30494
3624.11243,0.30222
3622.18369,0.30001
3620.25494,0.29782
3618.32620,0.29523
3616.39745,0.29236
3614.46871,0.28947
3612.53996,0.28672
3610.61122,0.28422
3608.68247,0.28174
3606.75372,0.27908
3604.82498,0.27663
3602.89623,0.27460
3600.96749,0.27286
3599.03874,0.27139
3597.11000,0.27000
3595.18125,0.26846
3593.25251,0.26682
3591.32376,0.26529
3589.39502,0.26401
3587.46627,0.26271
3585.53753,0.26099
3583.60878,0.25918
3581.68004,0.25770
3579.75129,0.25654
3577.82254,0.25537
3575.89380,0.25417
3573.96505,0.25320
3572.03631,0.25233
3570.10756,0.25130
3568.17882,0.25012
3566.25007,0.24876
3564.32133,0.24731
3562.39258,0.24599
3560.46384,0.24473
3558.53509,0.24339
3556.60635,0.24210
3554.67760,0.24075
3552.74886,0.23908
3550.82011,0.23734
3548.89137,0.23596
3546.96262,0.23482
3545.03387,0.23340
3543.10513,0.23141
3541.17638,0.22925
3539.24764,0.22736
3537.31889,0.22563
3535.39015,0.22374
3533.46140,0.22177
3531.53266,0.21990
3529.60391,0.21818
3527.67517,0.21673
3525.74642,0.21556
3523.81768,0.21419
3521.88893,0.21236
3519.96019,0.21057
3518.03144,0.20908
3516.10270,0.20788
3514.17395,0.20700
3512.24520,0.20625
3510.31646,0.20540
3508.38771,0.20441
3506.45897,0.20345
3504.53022,0.20272
3502.60148,0.20198
3500.67273,0.20109
3498.74399,0.20013
3496.81524,0.19902
3494.88650,0.19755
3492.95775,0.19594
3491.02901,0.19453
3489.10026,0.19321
3487.17152,0.19176
3485.24277,0.19003
3483.31402,0.18788
3481.38528,0.18578
3479.45653,0.18427
3477.52779,0.18281
3475.59904,0.18079
3473.67030,0.17832
3471.74155,0.17556
3469.81281,0.17254
3467.88406,0.16946
3465.95532,0.16649
3464.02657,0.16361
3462.09783,0.16076
3460.16908,0.15800
3458.24034,0.15573
3456.31159,0.15418
3454.38285,0.15300
3452.45410,0.15168
3450.52535,0.15014
3448.59661,0.14852
3446.66786,0.14686
3444.73912,0.14529
3442.81037,0.14364
3440.88163,0.14143
3438.95288,0.13881
3437.02414,0.13602
3435.09539,0.13284
3433.16665,0.12904
3431.23790,0.12458
3429.30916,0.11951
3427.38041,0.11399
3425.45167,0.10855
3423.52292,0.10360
3421.59418,0.09904
3419.66543,0.09492
3417.73668,0.09143
3415.80794,0.08876
3413.87919,0.08694
3411.95045,0.08573
3410.02170,0.08480
3408.09296,0.08398
3406.16421,0.08321
3404.23547,0.08251
3402.30672,0.08165
3400.37798,0.08032
3398.44923,0.07849
3396.52049,0.07642
3394.59174,0.07445
3392.66300,0.07271
3390.73425,0.07108
3388.80550,0.06944
3386.87676,0.06776
3384.94801,0.06595
3383.01927,0.06412
3381.09052,0.06257
3379.16178,0.06130
3377.23303,0.06027
3375.30429,0.05947
3373.37554,0.05862
3371.44680,0.05769
3369.51805,0.05693
3367.58931,0.05618
3365.66056,0.05536
3363.73182,0.05475
3361.80307,0.05425
3359.87433,0.05362
3357.94558,0.05306
3356.01683,0.05271
3354.08809,0.05228
3352.15934,0.05152
3350.23060,0.05076
3348.30185,0.05044
3346.37311,0.05033
3344.44436,0.04999
3342.51562,0.04957
3340.58687,0.04941
3338.65813,0.04930
3336.72938,0.04898
3334.80064,0.04865
3332.87189,0.04830
3330.94315,0.04776
3329.01440,0.04730
3327.08566,0.04698
3325.15691,0.04657
3323.22816,0.04617
3321.29942,0.04595
3319.37067,0.04584
3317.44193,0.04567
3315.51318,0.04535
3313.58444,0.04502
3311.65569,0.04483
3309.72695,0.04491
3307.79820,0.04519
3305.86946,0.04526
3303.94071,0.04493
3302.01197,0.04461
3300.08322,0.04461
3298.15448,0.04469
3296.22573,0.04444
3294.29698,0.04398
3292.36824,0.04377
3290.43949,0.04381
3288.51075,0.04387
3286.58200,0.04401
3284.65326,0.04425
3282.72451,0.04431
3280.79577,0.04417
3278.86702,0.04419
3276.93828,0.04449
3275.00953,0.04484
3273.08079,0.04507
3271.15204,0.04531
3269.22330,0.04558
3267.29455,0.04566
3265.36581,0.04559
3263.43706,0.04567
3261.50831,0.04592
3259.57957,0.04617
3257.65082,0.04644
3255.72208,0.04688
3253.79333,0.04763
3251.86459,0.04838
3249.93584,0.04888
3248.00710,0.04919
3246.07835,0.04924
3244.14961,0.04925
3242.22086,0.04963
3240.29212,0.05038
3238.36337,0.05123
3236.43463,0.05196
3234.50588,0.05259
3232.57713,0.05316
3230.64839,0.05367
3228.71964,0.05419
3226.79090,0.05468
3224.86215,0.05509
3222.93341,0.05561
3221.00466,0.05619
3219.07592,0.05656
3217.14717,0.05682
3215.21843,0.05707
3213.28968,0.05717
3211.36094,0.05731
3209.43219,0.05775
3207.50345,0.05831
3205.57470,0.05867
3203.64596,0.05890
3201.71721,0.05925
3199.78846,0.05964
3197.85972,0.05996
3195.93097,0.06042
3194.00223,0.06102
3192.07348,0.06145
3190.14474,0.06176
3188.21599,0.06210
3186.28725,0.06255
3184.35850,0.06324
3182.42976,0.06431
3180.50101,0.06530
3178.57227,0.06567
3176.64352,0.06567
3174.71478,0.06597
3172.78603,0.06665
3170.85729,0.06736
3168.92854,0.06782
3166.99979,0.06811
3165.07105,0.06858
3163.14230,0.06913
3161.21356,0.06948
3159.28481,0.06968
3157.35607,0.07003
3155.42732,0.07070
3153.49858,0.07152
3151.56983,0.07215
3149.64109,0.07236
3147.71234,0.07222
3145.78360,0.07224
3143.85485,0.07281
3141.92611,0.07354
3139.99736,0.07389
3138.06861,0.07395
3136.13987,0.07407
3134.21112,0.07433
3132.28238,0.07466
3130.35363,0.07495
3128.42489,0.07512
3126.49614,0.07521
3124.56740,0.07531
3122.63865,0.07555
3120.70991,0.07596
3118.78116,0.07648
3116.85242,0.07698
3114.92367,0.07728
3112.99493,0.07735
3111.06618,0.07752
3109.13744,0.07787
3107.20869,0.07805
3105.27994,0.07777
3103.35120,0.07720
3101.42245,0.07685
3099.49371,0.07683
3097.56496,0.07677
3095.63622,0.07653
3093.70747,0.07621
3091.77873,0.07578
3089.84998,0.07532
3087.92124,0.07506
3085.99249,0.07495
3084.06375,0.07480
3082.13500,0.07467
3080.20626,0.07461
3078.27751,0.07427
3076.34877,0.07359
3074.42002,0.07316
3072.49127,0.07318
3070.56253,0.07338
3068.63378,0.07370
3066.70504,0.07396
3064.77629,0.07389
3062.84755,0.07378
3060.91880,0.07394
3058.99006,0.07410
3057.06131,0.07422
3055.13257,0.07460
3053.20382,0.07513
3051.27508,0.07555
3049.34633,0.07584
3047.41759,0.07599
3045.48884,0.07597
3043.56009,0.07581
3041.63135,0.07559
3039.70260,0.07524
3037.77386,0.07478
3035.84511,0.07436
3033.91637,0.07401
3031.98762,0.07379
3030.05888,0.07367
3028.13013,0.07343
3026.20139,0.07317
3024.27264,0.07324
3022.34390,0.07364
3020.41515,0.07405
3018.48641,0.07415
3016.55766,0.07384
3014.62892,0.07295
3012.70017,0.07141
3010.77142,0.06961
3008.84268,0.06787
3006.91393,0.06597
3004.98519,0.06361
3003.05644,0.06092
3001.12770,0.05817
2999.19895,0.05554
2997.27021,0.05305
2995.34146,0.05066
2993.41272,0.04851
2991.48397,0.04668
2989.55523,0.04500
2987.62648,0.04349
2985.69774,0.04228
2983.76899,0.04132
2981.84025,0.04061
2979.91150,0.04017
2977.98275,0.04002
2976.05401,0.03996
2974.12526,0.03975
2972.19652,0.03960
2970.26777,0.03981
2968.33903,0.04028
2966.41028,0.04106
2964.48154,0.04229
2962.55279,0.04368
2960.62405,0.04477
2958.69530,0.04552
2956.76656,0.04610
2954.83781,0.04637
2952.90907,0.04631
2950.98032,0.04599
2949.05157,0.04537
2947.12283,0.04466
2945.19408,0.04411
2943.26534,0.04348
2941.33659,0.04251
2939.40785,0.04137
2937.47910,0.04039
2935.55036,0.03996
2933.62161,0.03994
2931.69287,0.03996
2929.76412,0.04015
2927.83538,0.04054
2925.90663,0.04089
2923.97789,0.04109
2922.04914,0.04130
2920.12040,0.04162
2918.19165,0.04191
2916.26290,0.04207
2914.33416,0.04222
2912.40541,0.04224
2910.47667,0.04189
2908.54792,0.04138
2906.61918,0.04104
2904.69043,0.04105
2902.76169,0.04139
2900.83294,0.04166
2898.90420,0.04153
2896.97545,0.04121
2895.04671,0.04115
2893.11796,0.04156
2891.18922,0.04205
2889.26047,0.04215
2887.33172,0.04205
2885.40298,0.04217
2883.47423,0.04219
2881.54549,0.04181
2879.61674,0.04147
2877.68800,0.04151
2875.75925,0.04173
2873.83051,0.04180
2871.90176,0.04176
2869.97302,0.04185
2868.04427,0.04201
2866.11553,0.04212
2864.18678,0.04233
2862.25804,0.04284
2860.32929,0.04347
2858.40055,0.04408
2856.47180,0.04490
2854.54305,0.04580
2852.61431,0.04647
2850.68556,0.04714
2848.75682,0.04808
2846.82807,0.04923
2844.89933,0.05052
2842.97058,0.05208
2841.04184,0.05395
2839.11309,0.05599
2837.18435,0.05808
2835.25560,0.05998
2833.32686,0.06174
2831.39811,0.06375
2829.46937,0.06589
2827.54062,0.06767
2825.61188,0.06918
2823.68313,0.07067
2821.75438,0.07215
2819.82564,0.07338
2817.89689,0.07427
2815.96815,0.07505
2814.03940,0.07590
2812.11066,0.07680
2810.18191,0.07748
2808.25317,0.07778
2806.32442,0.07785
2804.39568,0.07801
2802.46693,0.07837
2800.53819,0.07890
2798.60944,0.07951
2796.68070,0.08004
2794.75195,0.08048
2792.82320,0.08100
2790.89446,0.08168
2788.96571,0.08245
2787.03697,0.08313
2785.10822,0.08370
2783.17948,0.08438
2781.25073,0.08526
2779.32199,0.08612
2777.39324,0.08691
2775.46450,0.08794
2773.53575,0.08928
2771.60701,0.09054
2769.67826,0.09147
2767.74952,0.09223
2765.82077,0.09307
2763.89203,0.09415
2761.96328,0.09539
2760.03453,0.09663
2758.10579,0.09787
2756.17704,0.09908
2754.24830,0.10009
2752.31955,0.10094
2750.39081,0.10196
2748.46206,0.10313
2746.53332,0.10420
2744.60457,0.10511
2742.67583,0.10590
2740.74708,0.10666
2738.81834,0.10745
2736.88959,0.10826
2734.96085,0.10918
2733.03210,0.11038
2731.10336,0.11188
2729.17461,0.11346
2727.24586,0.11510
2725.31712,0.11711
2723.38837,0.11957
2721.45963,0.12209
2719.53088,0.12433
2717.60214,0.12637
2715.67339,0.12845
2713.74465,0.13063
2711.81590,0.13265
2709.88716,0.13444
2707.95841,0.13624
2706.02967,0.13797
2704.10092,0.13945
2702.17218,0.14094
2700.24343,0.14278
2698.31468,0.14488
2696.38594,0.14696
2694.45719,0.14895
2692.52845,0.15090
2690.59970,0.15278
2688.67096,0.15446
2686.74221,0.15585
2684.81347,0.15701
2682.88472,0.15798
2680.95598,0.15867
2679.02723,0.15912
2677.09849,0.15961
2675.16974,0.16037
2673.24100,0.16130
2671.31225,0.16221
2669.38351,0.16315
2667.45476,0.16423
2665.52601,0.16550
2663.59727,0.16701
2661.66852,0.16874
2659.73978,0.17042
2657.81103,0.17180
2655.88229,0.17303
2653.95354,0.17424
2652.02480,0.17516
2650.09605,0.17587
2648.16731,0.17672
2646.23856,0.17759
2644.30982,0.17818
2642.38107,0.17870
2640.45233,0.17955
2638.52358,0.18066
2636.59484,0.18195
2634.66609,0.18371
2632.73734,0.18574
2630.80860,0.18769
2628.87985,0.18973
2626.95111,0.19200
2625.02236,0.19418
2623.09362,0.19607
2621.16487,0.19776
2619.23613,0.19922
2617.30738,0.20027
2615.37864,0.20079
2613.44989,0.20088
2611.52115,0.20066
2609.59240,0.20029
2607.66366,0.19985
2605.73491,0.19931
2603.80616,0.19876
2601.87742,0.19842
2599.94867,0.19815
2598.01993,0.19773
2596.09118,0.19732
2594.16244,0.19722
2592.23369,0.19738
2590.30495,0.19771
2588.37620,0.19826
2586.44746,0.19914
2584.51871,0.20044
2582.58997,0.20222
2580.66122,0.20438
2578.73248,0.20692
2576.80373,0.21000
2574.87499,0.21354
2572.94624,0.21727
2571.01749,0.22117
2569.08875,0.22511
2567.16000,0.22891
2565.23126,0.23262
2563.30251,0.23613
2561.37377,0.23912
2559.44502,0.24143
2557.51628,0.24333
2555.58753,0.24510
2553.65879,0.24661
2551.73004,0.24772
2549.80130,0.24873
2547.87255,0.24981
2545.94381,0.25068
2544.01506,0.25134
2542.08631,0.25214
2540.15757,0.25324
2538.22882,0.25430
2536.30008,0.25511
2534.37133,0.25596
2532.44259,0.25704
2530.51384,0.25823
2528.58510,0.25945
2526.65635,0.26060
2524.72761,0.26153
2522.79886,0.26224
2520.87012,0.26290
2518.94137,0.26347
2517.01263,0.26383
2515.08388,0.26408
2513.15514,0.26431
2511.22639,0.26446
2509.29764,0.26449
2507.36890,0.26431
2505.44015,0.26401
2503.51141,0.26375
2501.58266,0.26366
2499.65392,0.26371
2497.72517,0.26380
2495.79643,0.26386
2493.86768,0.26369
2491.93894,0.26344
2490.01019,0.26342
2488.08145,0.26353
2486.15270,0.26355
2484.22396,0.26351
2482.29521,0.26339
2480.36647,0.26319
2478.43772,0.26307
2476.50897,0.26313
2474.58023,0.26328
2472.65148,0.26346
2470.72274,0.26380
2468.79399,0.26433
2466.86525,0.26499
2464.93650,0.26577
2463.00776,0.26652
2461.07901,0.26707
2459.15027,0.26752
2457.22152,0.26810
2455.29278,0.26877
2453.36403,0.26941
2451.43529,0.27019
2449.50654,0.27115
2447.57779,0.27215
2445.64905,0.27325
2443.72030,0.27448
2441.79156,0.27571
2439.86281,0.27685
2437.93407,0.27792
2436.00532,0.27891
2434.07658,0.27981
2432.14783,0.28069
2430.21909,0.28166
2428.29034,0.28262
2426.36160,0.28327
2424.43285,0.28373
2422.50411,0.28419
2420.57536,0.28434
2418.64662,0.28403
2416.71787,0.28345
2414.78912,0.28268
2412.86038,0.28177
2410.93163,0.28087
2409.00289,0.28001
2407.07414,0.27921
2405.14540,0.27848
2403.21665,0.27765
2401.28791,0.27668
2399.35916,0.27577
2397.43042,0.27494
2395.50167,0.27407
2393.57293,0.27318
2391.64418,0.27231
2389.71544,0.27144
2387.78669,0.27052
2385.85795,0.26966
2383.92920,0.26893
2382.00045,0.26816
2380.07171,0.26740
2378.14296,0.26698
2376.21422,0.26683
2374.28547,0.26673
2372.35673,0.26659
2370.42798,0.26631
2368.49924,0.26597
2366.57049,0.26584
2364.64175,0.26584
2362.71300,0.26563
2360.78426,0.26523
2358.85551,0.26492
2356.92677,0.26454
2354.99802,0.26372
2353.06927,0.26260
2351.14053,0.26156
2349.21178,0.26081
2347.28304,0.26026
2345.35429,0.25954
2343.42555,0.25842
2341.49680,0.25710
2339.56806,0.25565
2337.63931,0.25386
2335.71057,0.25181
2333.78182,0.24977
2331.85308,0.24754
2329.92433,0.24484
2327.99559,0.24184
2326.06684,0.23875
2324.13810,0.23557
2322.20935,0.23210
2320.28060,0.22814
2318.35186,0.22387
2316.42311,0.21955
2314.49437,0.21499
2312.56562,0.21001
2310.63688,0.20476
2308.70813,0.19919
2306.77939,0.19320
2304.85064,0.18692
2302.92190,0.18040
2300.99315,0.17351
2299.06441,0.16637
2297.13566,0.15915
2295.20692,0.15198
2293.27817,0.14492
2291.34943,0.13784
2289.42068,0.13084
2287.49193,0.12421
2285.56319,0.11805
2283.63444,0.11241
2281.70570,0.10750
2279.77695,0.10362
2277.84821,0.10093
2275.91946,0.09935
2273.99072,0.09884
2272.06197,0.09953
2270.13323,0.10150
2268.20448,0.10464
2266.27574,0.10885
2264.34699,0.11409
2262.41825,0.12023
2260.48950,0.12703
2258.56075,0.13426
2256.63201,0.14170
2254.70326,0.14908
2252.77452,0.15609
2250.84577,0.16243
2248.91703,0.16808
2246.98828,0.17338
2245.05954,0.17841
2243.13079,0.18282
2241.20205,0.18655
2239.27330,0.18990
2237.34456,0.19305
2235.41581,0.19606
2233.48707,0.19891
2231.55832,0.20154
2229.62958,0.20401
2227.70083,0.20625
2225.77208,0.20807
2223.84334,0.20950
2221.91459,0.21068
2219.98585,0.21174
2218.05710,0.21285
2216.12836,0.21413
2214.19961,0.21547
2212.27087,0.21670
2210.34212,0.21781
2208.41338,0.21902
2206.48463,0.22051
2204.55589,0.22202
2202.62714,0.22322
2200.69840,0.22425
2198.76965,0.22532
2196.84090,0.22634
2194.91216,0.22708
2192.98341,0.22753
2191.05467,0.22795
2189.12592,0.22852
2187.19718,0.22925
2185.26843,0.22995
2183.33969,0.23050
2181.41094,0.23098
2179.48220,0.23142
2177.55345,0.23169
2175.62471,0.23184
2173.69596,0.23208
2171.76722,0.23240
2169.83847,0.23274
2167.90973,0.23316
2165.98098,0.23374
2164.05223,0.23429
2162.12349,0.23462
2160.19474,0.23486
2158.26600,0.23519
2156.33725,0.23560
2154.40851,0.23604
2152.47976,0.23660
2150.55102,0.23724
2148.62227,0.23791
2146.69353,0.23857
2144.76478,0.23924
2142.83604,0.23994
2140.90729,0.24055
2138.97855,0.24098
2137.04980,0.24135
2135.12106,0.24180
2133.19231,0.24231
2131.26356,0.24275
2129.33482,0.24315
2127.40607,0.24367
2125.47733,0.24426
2123.54858,0.24471
2121.61984,0.24499
2119.69109,0.24532
2117.76235,0.24577
2115.83360,0.24612
2113.90486,0.24637
2111.97611,0.24660
2110.04737,0.24668
2108.11862,0.24660
2106.18988,0.24650
2104.26113,0.24623
2102.33238,0.24570
2100.40364,0.24510
2098.47489,0.24469
2096.54615,0.24446
2094.61740,0.24412
2092.68866,0.24347
2090.75991,0.24275
2088.83117,0.24222
2086.90242,0.24171
2084.97368,0.24111
2083.04493,0.24057
2081.11619,0.24006
2079.18744,0.23949
2077.25870,0.23890
2075.32995,0.23820
2073.40121,0.23738
2071.47246,0.23664
2069.54371,0.23618
2067.61497,0.23583
2065.68622,0.23541
2063.75748,0.23485
2061.82873,0.23427
2059.89999,0.23380
2057.97124,0.23329
2056.04250,0.23262
2054.11375,0.23189
2052.18501,0.23114
2050.25626,0.23025
2048.32752,0.22911
2046.39877,0.22768
2044.47003,0.22621
2042.54128,0.22495
2040.61254,0.22363
2038.68379,0.22211
2036.75504,0.22057
2034.82630,0.21904
2032.89755,0.21753
2030.96881,0.21629
2029.04006,0.21530
2027.11132,0.21425
2025.18257,0.21316
2023.25383,0.21223
2021.32508,0.21160
2019.39634,0.21121
2017.46759,0.21082
2015.53885,0.21034
2013.61010,0.20994
2011.68136,0.20976
2009.75261,0.20981
2007.82386,0.21005
2005.89512,0.21047
2003.96637,0.21091
2002.03763,0.21123
2000.10888,0.21150
1998.18014,0.21180
1996.25139,0.21215
1994.32265,0.21254
1992.39390,0.21304
1990.46516,0.21351
1988.53641,0.21370
1986.60767,0.21372
1984.67892,0.21376
1982.75018,0.21381
1980.82143,0.21379
1978.89269,0.21380
1976.96394,0.21396
1975.03519,0.21415
1973.10645,0.21420
1971.17770,0.21412
1969.24896,0.21405
1967.32021,0.21402
1965.39147,0.21402
1963.46272,0.21390
1961.53398,0.21370
1959.60523,0.21366
1957.67649,0.21373
1955.74774,0.21371
1953.81900,0.21356
1951.89025,0.21339
1949.96151,0.21327
1948.03276,0.21320
1946.10402,0.21312
1944.17527,0.21303
1942.24652,0.21289
1940.31778,0.21262
1938.38903,0.21230
1936.46029,0.21190
1934.53154,0.21135
1932.60280,0.21077
1930.67405,0.21023
1928.74531,0.20956
1926.81656,0.20881
1924.88782,0.20825
1922.95907,0.20788
1921.03033,0.20758
1919.10158,0.20728
1917.17284,0.20691
1915.24409,0.20666
1913.31534,0.20672
1911.38660,0.20695
1909.45785,0.20718
1907.52911,0.20753
1905.60036,0.20799
1903.67162,0.20834
1901.74287,0.20842
1899.81413,0.20830
1897.88538,0.20821
1895.95664,0.20816
1894.02789,0.20808
1892.09915,0.20810
1890.17040,0.20823
1888.24166,0.20829
1886.31291,0.20835
1884.38417,0.20852
1882.45542,0.20873
1880.52667,0.20908
1878.59793,0.20959
1876.66918,0.21011
1874.74044,0.21060
1872.81169,0.21118
1870.88295,0.21179
1868.95420,0.21201
1867.02546,0.21161
1865.09671,0.21106
1863.16797,0.21074
1861.23922,0.21065
1859.31048,0.21067
1857.38173,0.21048
1855.45299,0.20989
1853.52424,0.20921
1851.59549,0.20867
1849.66675,0.20820
1847.73800,0.20784
1845.80926,0.20742
1843.88051,0.20640
1841.95177,0.20492
1840.02302,0.20357
1838.09428,0.20229
1836.16553,0.20107
1834.23679,0.20001
1832.30804,0.19897
1830.37930,0.19763
1828.45055,0.19601
1826.52181,0.19436
1824.59306,0.19249
1822.66432,0.19041
1820.73557,0.18850
1818.80682,0.18660
1816.87808,0.18443
1814.94933,0.18210
1813.02059,0.17980
1811.09184,0.17739
1809.16310,0.17475
1807.23435,0.17199
1805.30561,0.16920
1803.37686,0.16639
1801.44812,0.16349
1799.51937,0.16042
1797.59063,0.15732
1795.66188,0.15449
1793.73314,0.15169
1791.80439,0.14839
1789.87565,0.14510
1787.94690,0.14237
1786.01815,0.13974
1784.08941,0.13698
1782.16066,0.13453
1780.23192,0.13234
1778.30317,0.13014
1776.37443,0.12806
1774.44568,0.12605
1772.51694,0.12342
1770.58819,0.12007
1768.65945,0.11662
1766.73070,0.11315
1764.80196,0.10958
1762.87321,0.10541
1760.94447,0.10022
1759.01572,0.09453
1757.08697,0.08829
1755.15823,0.08165
1753.22948,0.07494
1751.30074,0.06750
1749.37199,0.05966
1747.44325,0.05291
1745.51450,0.04757
1743.58576,0.04330
1741.65701,0.03990
1739.72827,0.03731
1737.79952,0.03567
1735.87078,0.03464
1733.94203,0.03374
1732.01329,0.03319
1730.08454,0.03315
1728.15580,0.03324
1726.22705,0.03338
1724.29830,0.03371
1722.36956,0.03422
1720.44081,0.03479
1718.51207,0.03532
1716.58332,0.03565
1714.65458,0.03587
1712.72583,0.03622
1710.79709,0.03664
1708.86834,0.03692
1706.93960,0.03715
1705.01085,0.03740
1703.08211,0.03754
1701.15336,0.03769
1699.22462,0.03806
1697.29587,0.03837
1695.36713,0.03824
1693.43838,0.03794
1691.50963,0.03793
1689.58089,0.03813
1687.65214,0.03836
1685.72340,0.03853
1683.79465,0.03838
1681.86591,0.03788
1679.93716,0.03742
1678.00842,0.03704
1676.07967,0.03658
1674.15093,0.03605
1672.22218,0.03565
1670.29344,0.03525
1668.36469,0.03476
1666.43595,0.03441
1664.50720,0.03417
1662.57845,0.03381
1660.64971,0.03328
1658.72096,0.03279
1656.79222,0.03255
1654.86347,0.03250
1652.93473,0.03196
1651.00598,0.03107
1649.07724,0.03068
1647.14849,0.03056
1645.21975,0.03022
1643.29100,0.02997
1641.36226,0.03030
1639.43351,0.03120
1637.50477,0.03240
1635.57602,0.03380
1633.64728,0.03496
1631.71853,0.03566
1629.78978,0.03619
1627.86104,0.03656
1625.93229,0.03662
1624.00355,0.03642
1622.07480,0.03607
1620.14606,0.03565
1618.21731,0.03519
1616.28857,0.03460
1614.35982,0.03403
1612.43108,0.03357
1610.50233,0.03308
1608.57359,0.03257
1606.64484,0.03229
1604.71610,0.03232
1602.78735,0.03251
1600.85861,0.03272
1598.92986,0.03288
1597.00111,0.03295
1595.07237,0.03303
1593.14362,0.03335
1591.21488,0.03382
1589.28613,0.03407
1587.35739,0.03421
1585.42864,0.03459
1583.49990,0.03501
1581.57115,0.03526
1579.64241,0.03533
1577.71366,0.03507
1575.78492,0.03419
1573.85617,0.03311
1571.92743,0.03221
1569.99868,0.03125
1568.06993,0.03045
1566.14119,0.03027
1564.21244,0.03047
1562.28370,0.03061
1560.35495,0.03044
1558.42621,0.03022
1556.49746,0.03055
1554.56872,0.03095
1552.63997,0.03116
1550.71123,0.03149
1548.78248,0.03195
1546.85374,0.03236
1544.92499,0.03272
1542.99625,0.03314
1541.06750,0.03362
1539.13876,0.03377
1537.21001,0.03373
1535.28126,0.03387
1533.35252,0.03414
1531.42377,0.03450
1529.49503,0.03499
1527.56628,0.03552
1525.63754,0.03605
1523.70879,0.03654
1521.78005,0.03691
1519.85130,0.03719
1517.92256,0.03729
1515.99381,0.03718
1514.06507,0.03713
1512.13632,0.03725
1510.20758,0.03746
1508.27883,0.03769
1506.35008,0.03778
1504.42134,0.03783
1502.49259,0.03811
1500.56385,0.03848
1498.63510,0.03874
1496.70636,0.03891
1494.77761,0.03908
1492.84887,0.03931
1490.92012,0.03952
1488.99138,0.03936
1487.06263,0.03886
1485.13389,0.03850
1483.20514,0.03828
1481.27640,0.03793
1479.34765,0.03759
1477.41891,0.03753
1475.49016,0.03769
1473.56141,0.03795
1471.63267,0.03820
1469.70392,0.03837
1467.77518,0.03850
1465.84643,0.03850
1463.91769,0.03826
1461.98894,0.03803
1460.06020,0.03797
1458.13145,0.03787
1456.20271,0.03748
1454.27396,0.03723
1452.34522,0.03736
1450.41647,0.03783
1448.48773,0.03843
1446.55898,0.03898
1444.63024,0.03960
1442.70149,0.04045
1440.77274,0.04149
1438.84400,0.04269
1436.91525,0.04381
1434.98651,0.04453
1433.05776,0.04502
1431.12902,0.04533
1429.20027,0.04518
1427.27153,0.04469
1425.34278,0.04410
1423.41404,0.04337
1421.48529,0.04259
1419.55655,0.04187
1417.62780,0.04122
1415.69906,0.04065
1413.77031,0.04027
1411.84156,0.04015
1409.91282,0.04022
1407.98407,0.04053
1406.05533,0.04102
1404.12658,0.04139
1402.19784,0.04159
1400.26909,0.04175
1398.34035,0.04183
1396.41160,0.04186
1394.48286,0.04181
1392.55411,0.04146
1390.62537,0.04086
1388.69662,0.04003
1386.76788,0.03899
1384.83913,0.03801
1382.91039,0.03713
1380.98164,0.03629
1379.05289,0.03553
1377.12415,0.03514
1375.19540,0.03540
1373.26666,0.03629
1371.33791,0.03759
1369.40917,0.03921
1367.48042,0.04093
1365.55168,0.04253
1363.62293,0.04400
1361.69419,0.04513
1359.76544,0.04557
1357.83670,0.04545
1355.90795,0.04491
1353.97921,0.04399
1352.05046,0.04292
1350.12172,0.04194
1348.19297,0.04107
1346.26422,0.04041
1344.33548,0.04001
1342.40673,0.03984
1340.47799,0.03999
1338.54924,0.04034
1336.62050,0.04061
1334.69175,0.04067
1332.76301,0.04056
1330.83426,0.04037
1328.90552,0.04013
1326.97677,0.03983
1325.04803,0.03938
1323.11928,0.03873
1321.19054,0.03803
1319.26179,0.03742
1317.33304,0.03684
1315.40430,0.03623
1313.47555,0.03579
1311.54681,0.03563
1309.61806,0.03556
1307.68932,0.03540
1305.76057,0.03520
1303.83183,0.03500
1301.90308,0.03470
1299.97434,0.03433
1298.04559,0.03419
1296.11685,0.03439
1294.18810,0.03475
1292.25936,0.03514
1290.33061,0.03548
1288.40187,0.03568
1286.47312,0.03572
1284.54437,0.03560
1282.61563,0.03543
1280.68688,0.03538
1278.75814,0.03544
1276.82939,0.03538
1274.90065,0.03506
1272.97190,0.03473
1271.04316,0.03474
1269.11441,0.03489
1267.18567,0.03481
1265.25692,0.03458
1263.32818,0.03447
1261.39943,0.03449
1259.47069,0.03457
1257.54194,0.03462
1255.61320,0.03443
1253.68445,0.03407
1251.75570,0.03388
1249.82696,0.03378
1247.89821,0.03348
1245.96947,0.03288
1244.04072,0.03224
1242.11198,0.03188
1240.18323,0.03166
1238.25449,0.03140
1236.32574,0.03122
1234.39700,0.03131
1232.46825,0.03158
1230.53951,0.03175
1228.61076,0.03191
1226.68202,0.03224
1224.75327,0.03266
1222.82452,0.03306
1220.89578,0.03349
1218.96703,0.03397
1217.03829,0.03450
1215.10954,0.03505
1213.18080,0.03552
1211.25205,0.03586
1209.32331,0.03615
1207.39456,0.03629
1205.46582,0.03608
1203.53707,0.03580
1201.60833,0.03580
1199.67958,0.03593
1197.75084,0.03586
1195.82209,0.03568
1193.89335,0.03548
1191.96460,0.03512
1190.03585,0.03477
1188.10711,0.03462
1186.17836,0.03434
1184.24962,0.03377
1182.32087,0.03313
1180.39213,0.03260
1178.46338,0.03226
1176.53464,0.03204
1174.60589,0.03170
1172.67715,0.03099
1170.74840,0.03012
1168.81966,0.02966
1166.89091,0.02965
1164.96217,0.02966
1163.03342,0.02961
1161.10467,0.02971
1159.17593,0.02970
1157.24718,0.02928
1155.31844,0.02881
1153.38969,0.02861
1151.46095,0.02866
1149.53220,0.02891
1147.60346,0.02916
1145.67471,0.02918
1143.74597,0.02903
1141.81722,0.02900
1139.88848,0.02934
1137.95973,0.02975
1136.03099,0.02982
1134.10224,0.02966
1132.17350,0.02947
1130.24475,0.02930
1128.31600,0.02935
1126.38726,0.02965
1124.45851,0.02999
1122.52977,0.03013
1120.60102,0.03031
1118.67228,0.03099
1116.74353,0.03201
1114.81479,0.03292
1112.88604,0.03360
1110.95730,0.03420
1109.02855,0.03506
1107.09981,0.03599
1105.17106,0.03679
1103.24232,0.03754
1101.31357,0.03803
1099.38483,0.03823
1097.45608,0.03846
1095.52733,0.03889
1093.59859,0.03956
1091.66984,0.04046
1089.74110,0.04110
1087.81235,0.04126
1085.88361,0.04130
1083.95486,0.04156
1082.02612,0.04215
1080.09737,0.04272
1078.16863,0.04300
1076.23988,0.04336
1074.31114,0.04397
1072.38239,0.04444
1070.45365,0.04458
1068.52490,0.04474
1066.59615,0.04509
1064.66741,0.04546
1062.73866,0.04598
1060.80992,0.04669
1058.88117,0.04717
1056.95243,0.04734
1055.02368,0.04751
1053.09494,0.04796
1051.16619,0.04872
1049.23745,0.04950
1047.30870,0.05005
1045.37996,0.05040
1043.45121,0.05062
1041.52247,0.05091
1039.59372,0.05160
1037.66498,0.05241
1035.73623,0.05275
1033.80748,0.05270
1031.87874,0.05250
1029.94999,0.05240
1028.02125,0.05243
1026.09250,0.05231
1024.16376,0.05183
1022.23501,0.05095
1020.30627,0.04985
1018.37752,0.04911
1016.44878,0.04900
1014.52003,0.04930
1012.59129,0.04965
1010.66254,0.04978
1008.73380,0.04988
1006.80505,0.05027
1004.87631,0.05076
1002.94756,0.05128
1001.01881,0.05208
999.09007,0.05340
997.16132,0.05553
995.23258,0.05814
993.30383,0.06053
991.37509,0.06279
989.44634,0.06513
987.51760,0.06724
985.58885,0.06873
983.66011,0.06949
981.73136,0.06985
979.80262,0.07008
977.87387,0.07004
975.94513,0.06961
974.01638,0.06904
972.08763,0.06850
970.15889,0.06804
968.23014,0.06798
966.30140,0.06860
964.37265,0.06969
962.44391,0.07079
960.51516,0.07160
958.58642,0.07218
956.65767,0.07279
954.72893,0.07337
952.80018,0.07334
950.87144,0.07217
948.94269,0.06992
947.01395,0.06707
945.08520,0.06397
943.15646,0.06093
941.22771,0.05823
939.29896,0.05594
937.37022,0.05418
935.44147,0.05300
933.51273,0.05221
931.58398,0.05168
929.65524,0.05141
927.72649,0.05146
925.79775,0.05193
923.86900,0.05274
921.94026,0.05370
920.01151,0.05479
918.08277,0.05605
916.15402,0.05730
914.22528,0.05819
912.29653,0.05854
910.36779,0.05843
908.43904,0.05835
906.51029,0.05900
904.58155,0.06042
902.65280,0.06206
900.72406,0.06350
898.79531,0.06475
896.86657,0.06575
894.93782,0.06634
893.00908,0.06647
891.08033,0.06625
889.15159,0.06560
887.22284,0.06434
885.29410,0.06294
883.36535,0.06192
881.43661,0.06136
879.50786,0.06120
877.57911,0.06110
875.65037,0.06064
873.72162,0.05992
871.79288,0.05938
869.86413,0.05935
867.93539,0.05971
866.00664,0.06007
864.07790,0.06025
862.14915,0.06053
860.22041,0.06116
858.29166,0.06188
856.36292,0.06236
854.43417,0.06264
852.50543,0.06300
850.57668,0.06335
848.64794,0.06339
846.71919,0.06331
844.79044,0.06322
842.86170,0.06269
840.93295,0.06173
839.00421,0.06082
837.07546,0.06002
835.14672,0.05920
833.21797,0.05823
831.28923,0.05698
829.36048,0.05558
827.43174,0.05416
825.50299,0.05282
823.57425,0.05172
821.64550,0.05085
819.71676,0.05035
817.78801,0.05030
815.85926,0.05039
813.93052,0.05070
812.00177,0.05134
810.07303,0.05220
808.14428,0.05351
806.21554,0.05522
804.28679,0.05673
802.35805,0.05786
800.42930,0.05903
798.50056,0.06040
796.57181,0.06147
794.64307,0.06192
792.71432,0.06215
790.78558,0.06249
788.85683,0.06279
786.92809,0.06286
784.99934,0.06261
783.07059,0.06235
781.14185,0.06228
779.21310,0.06199
777.28436,0.06113
775.35561,0.05990
773.42687,0.05854
771.49812,0.05709
769.56938,0.05579
767.64063,0.05496
765.71189,0.05454
763.78314,0.05418
761.85440,0.05365
759.92565,0.05315
757.99691,0.05310
756.06816,0.05363
754.13942,0.05472
752.21067,0.05635
750.28192,0.05841
748.35318,0.06064
746.42443,0.06263
744.49569,0.06449
742.56694,0.06640
740.63820,0.06784
738.70945,0.06840
736.78071,0.06831
734.85196,0.06789
732.92322,0.06742
730.99447,0.06682
729.06573,0.06573
727.13698,0.06441
725.20824,0.06338
723.27949,0.06241
721.35074,0.06077
719.42200,0.05840
717.49325,0.05620
715.56451,0.05460
713.63576,0.05335
711.70702,0.05261
709.77827,0.05286
707.84953,0.05363
705.92078,0.05391
703.99204,0.05347
702.06329,0.05297
700.13455,0.05269
698.20580,0.05228
696.27706,0.05189
694.34831,0.05164
692.41957,0.05125
690.49082,0.05088
688.56207,0.05072
686.63333,0.05060
684.70458,0.05025
682.77584,0.04985
680.84709,0.04975
678.91835,0.04970
676.98960,0.04959
675.06086,0.04900
673.13211,0.04790
671.20337,0.04758
669.27462,0.04831
667.34588,0.04913
665.41713,0.04982
663.48839,0.05071
661.55964,0.05151
659.63090,0.05171
657.70215,0.05160
655.77340,0.05174
653.84466,0.05203
651.91591,0.05219
649.98717,0.05222
648.05842,0.05263
646.12968,0.05360
644.20093,0.05438
642.27219,0.05476
640.34344,0.05530
638.41470,0.05570
636.48595,0.05566
634.55721,0.05615
632.62846,0.05739
630.69972,0.05797
628.77097,0.05794
626.84222,0.05861
624.91348,0.05929
622.98473,0.05893
621.05599,0.05788
619.12724,0.05690
617.19850,0.05717
615.26975,0.05855
613.34101,0.05889
611.41226,0.05746
609.48352,0.05560
607.55477,0.05494
605.62603,0.05604
603.69728,0.05741
601.76854,0.05782
599.83979,0.05778
