7497.03301,0.67996
7495.10426,0.68026
7493.17552,0.67726
7491.24677,0.67608
7489.31803,0.67471
7487.38928,0.67174
7485.46054,0.67260
7483.53179,0.67678
7481.60305,0.67813
7479.67430,0.67595
7477.74556,0.67601
7475.81681,0.67961
7473.88807,0.68133
7471.95932,0.67995
7470.03057,0.67888
7468.10183,0.67826
7466.17308,0.67730
7464.24434,0.67702
7462.31559,0.67731
7460.38685,0.67618
7458.45810,0.67184
7456.52936,0.66801
7454.60061,0.66977
7452.67187,0.67359
7450.74312,0.67293
7448.81438,0.66875
7446.88563,0.66662
7444.95689,0.66639
7443.02814,0.66382
7441.09940,0.66094
7439.17065,0.66136
7437.24190,0.66354
7435.31316,0.66646
7433.38441,0.67028
7431.45567,0.67193
7429.52692,0.66883
7427.59818,0.66380
7425.66943,0.66226
7423.74069,0.66720
7421.81194,0.67497
7419.88320,0.67609
7417.95445,0.66940
7416.02571,0.66518
7414.09696,0.66664
7412.16822,0.66846
7410.23947,0.66919
7408.31073,0.66993
7406.38198,0.66893
7404.45323,0.66375
7402.52449,0.65777
7400.59574,0.65881
7398.66700,0.66819
7396.73825,0.67808
7394.80951,0.68104
7392.88076,0.67727
7390.95202,0.67184
7389.02327,0.66874
7387.09453,0.66611
7385.16578,0.66230
7383.23704,0.66208
7381.30829,0.66560
7379.37955,0.66708
7377.45080,0.66560
7375.52205,0.66267
7373.59331,0.66012
7371.66456,0.66022
7369.73582,0.66126
7367.80707,0.66106
7365.87833,0.65950
7363.94958,0.65628
7362.02084,0.65403
7360.09209,0.65479
7358.16335,0.65680
7356.23460,0.66044
7354.30586,0.66614
7352.37711,0.67056
7350.44837,0.66954
7348.51962,0.66317
7346.59088,0.65691
7344.66213,0.65617
7342.73338,0.66209
7340.80464,0.66939
7338.87589,0.67187
7336.94715,0.66965
7335.01840,0.66570
7333.08966,0.66328
7331.16091,0.66297
7329.23217,0.66089
7327.30342,0.65791
7325.37468,0.66002
7323.44593,0.66511
7321.51719,0.66549
7319.58844,0.66186
7317.65970,0.66113
7315.73095,0.66376
7313.80221,0.66460
7311.87346,0.66338
7309.94471,0.66247
7308.01597,0.66025
7306.08722,0.65676
7304.15848,0.65532
7302.22973,0.65649
7300.30099,0.65927
7298.37224,0.66152
7296.44350,0.65979
7294.51475,0.65639
7292.58601,0.65622
7290.65726,0.65615
7288.72852,0.65161
7286.79977,0.64779
7284.87103,0.65135
7282.94228,0.65765
7281.01353,0.65774
7279.08479,0.65237
7277.15604,0.64960
7275.22730,0.65080
7273.29855,0.65037
7271.36981,0.64811
7269.44106,0.64831
7267.51232,0.65164
7265.58357,0.65473
7263.65483,0.65517
7261.72608,0.65525
7259.79734,0.65404
7257.86859,0.64770
7255.93985,0.64086
7254.01110,0.63896
7252.08236,0.63968
7250.15361,0.64125
7248.22486,0.64391
7246.29612,0.64562
7244.36737,0.64701
7242.43863,0.64905
7240.50988,0.64944
7238.58114,0.65034
7236.65239,0.65257
7234.72365,0.65175
7232.79490,0.64893
7230.86616,0.64900
7228.93741,0.65380
7227.00867,0.65821
7225.07992,0.65486
7223.15118,0.64958
7221.22243,0.65062
7219.29369,0.65332
7217.36494,0.65351
7215.43619,0.65152
7213.50745,0.64702
7211.57870,0.64237
7209.64996,0.64013
7207.72121,0.63968
7205.79247,0.63962
7203.86372,0.64045
7201.93498,0.64204
7200.00623,0.64326
7198.07749,0.64405
7196.14874,0.64377
7194.22000,0.64298
7192.29125,0.64238
7190.36251,0.64185
7188.43376,0.64376
7186.50501,0.64737
7184.57627,0.64693
7182.64752,0.64261
7180.71878,0.64131
7178.79003,0.64538
7176.86129,0.64989
7174.93254,0.64957
7173.00380,0.64598
7171.07505,0.64482
7169.14631,0.64611
7167.21756,0.64656
7165.28882,0.64627
7163.36007,0.64588
7161.43133,0.64470
7159.50258,0.64424
7157.57384,0.64612
7155.64509,0.64783
7153.71634,0.64761
7151.78760,0.64742
7149.85885,0.64750
7147.93011,0.64672
7146.00136,0.64744
7144.07262,0.64928
7142.14387,0.64804
7140.21513,0.64630
7138.28638,0.64762
7136.35764,0.64928
7134.42889,0.64909
7132.50015,0.64859
7130.57140,0.65126
7128.64266,0.65659
7126.71391,0.65926
7124.78516,0.65766
7122.85642,0.65448
7120.92767,0.65229
7118.99893,0.65298
7117.07018,0.65435
7115.14144,0.65315
7113.21269,0.65259
7111.28395,0.65319
7109.35520,0.65122
7107.42646,0.64899
7105.49771,0.64975
7103.56897,0.65288
7101.64022,0.65646
7099.71148,0.65842
7097.78273,0.65776
7095.85399,0.65625
7093.92524,0.65718
7091.99649,0.65874
7090.06775,0.65667
7088.13900,0.65279
7086.21026,0.65170
7084.28151,0.65261
7082.35277,0.65210
7080.42402,0.65166
7078.49528,0.65399
7076.56653,0.65720
7074.63779,0.65732
7072.70904,0.65447
7070.78030,0.65270
7068.85155,0.65283
7066.92281,0.65331
7064.99406,0.65343
7063.06532,0.65280
7061.13657,0.65275
7059.20782,0.65340
7057.27908,0.65389
7055.35033,0.65556
7053.42159,0.65714
7051.49284,0.65560
7049.56410,0.65324
7047.63535,0.65319
7045.70661,0.65323
7043.77786,0.65045
7041.84912,0.64756
7039.92037,0.64852
7037.99163,0.65125
7036.06288,0.65179
7034.13414,0.65081
7032.20539,0.65060
7030.27664,0.65137
7028.34790,0.65283
7026.41915,0.65511
7024.49041,0.65751
7022.56166,0.65813
7020.63292,0.65710
7018.70417,0.65726
7016.77543,0.65782
7014.84668,0.65631
7012.91794,0.65447
7010.98919,0.65321
7009.06045,0.65111
7007.13170,0.64910
7005.20296,0.64961
7003.27421,0.65172
7001.34547,0.65282
6999.41672,0.65203
6997.48797,0.64960
6995.55923,0.64845
6993.63048,0.64999
6991.70174,0.65098
6989.77299,0.65047
6987.84425,0.65098
6985.91550,0.65275
6983.98676,0.65257
6982.05801,0.65096
6980.12927,0.65207
6978.20052,0.65445
6976.27178,0.65595
6974.34303,0.65907
6972.41429,0.66286
6970.48554,0.66276
6968.55680,0.65853
6966.62805,0.65413
6964.69930,0.65190
6962.77056,0.65224
6960.84181,0.65463
6958.91307,0.65567
6956.98432,0.65427
6955.05558,0.65366
6953.12683,0.65466
6951.19809,0.65543
6949.26934,0.65511
6947.34060,0.65555
6945.41185,0.65765
6943.48311,0.65795
6941.55436,0.65590
6939.62562,0.65483
6937.69687,0.65508
6935.76812,0.65550
6933.83938,0.65668
6931.91063,0.65827
6929.98189,0.65776
6928.05314,0.65432
6926.12440,0.65100
6924.19565,0.65134
6922.26691,0.65437
6920.33816,0.65686
6918.40942,0.65862
6916.48067,0.66006
6914.55193,0.65997
6912.62318,0.65811
6910.69444,0.65515
6908.76569,0.65222
6906.83695,0.65161
6904.90820,0.65418
6902.97945,0.65757
6901.05071,0.65965
6899.12196,0.65954
6897.19322,0.65685
6895.26447,0.65343
6893.33573,0.65222
6891.40698,0.65392
6889.47824,0.65636
6887.54949,0.65714
6885.62075,0.65763
6883.69200,0.65915
6881.76326,0.65965
6879.83451,0.65929
6877.90577,0.65881
6875.97702,0.65770
6874.04828,0.65757
6872.11953,0.65829
6870.19078,0.65771
6868.26204,0.65543
6866.33329,0.65369
6864.40455,0.65466
6862.47580,0.65614
6860.54706,0.65630
6858.61831,0.65687
6856.68957,0.65752
6854.76082,0.65701
6852.83208,0.65647
6850.90333,0.65645
6848.97459,0.65697
6847.04584,0.65758
6845.11710,0.65688
6843.18835,0.65618
6841.25960,0.65734
6839.33086,0.65906
6837.40211,0.65913
6835.47337,0.65848
6833.54462,0.66035
6831.61588,0.66182
6829.68713,0.65849
6827.75839,0.65519
6825.82964,0.65697
6823.90090,0.66050
6821.97215,0.66138
6820.04341,0.65981
6818.11466,0.65748
6816.18592,0.65581
6814.25717,0.65606
6812.32843,0.65803
6810.39968,0.66012
6808.47093,0.66023
6806.54219,0.65780
6804.61344,0.65491
6802.68470,0.65429
6800.75595,0.65598
6798.82721,0.65739
6796.89846,0.65668
6794.96972,0.65463
6793.04097,0.65396
6791.11223,0.65542
6789.18348,0.65569
6787.25474,0.65324
6785.32599,0.65040
6783.39725,0.64852
6781.46850,0.64792
6779.53975,0.64938
6777.61101,0.65226
6775.68226,0.65437
6773.75352,0.65472
6771.82477,0.65449
6769.89603,0.65396
6767.96728,0.65217
6766.03854,0.65035
6764.10979,0.65075
6762.18105,0.65320
6760.25230,0.65506
6758.32356,0.65418
6756.39481,0.65129
6754.46607,0.64868
6752.53732,0.64684
6750.60858,0.64512
6748.67983,0.64497
6746.75108,0.64617
6744.82234,0.64612
6742.89359,0.64558
6740.96485,0.64617
6739.03610,0.64730
6737.10736,0.64734
6735.17861,0.64517
6733.24987,0.64312
6731.32112,0.64354
6729.39238,0.64392
6727.46363,0.64262
6725.53489,0.64123
6723.60614,0.63997
6721.67740,0.63950
6719.74865,0.64081
6717.81991,0.64230
6715.89116,0.64185
6713.96241,0.64013
6712.03367,0.63982
6710.10492,0.63938
6708.17618,0.63681
6706.24743,0.63524
6704.31869,0.63543
6702.38994,0.63524
6700.46120,0.63447
6698.53245,0.63349
6696.60371,0.63235
6694.67496,0.63102
6692.74622,0.63057
6690.81747,0.63191
6688.88873,0.63223
6686.95998,0.62920
6685.03123,0.62650
6683.10249,0.62632
6681.17374,0.62562
6679.24500,0.62407
6677.31625,0.62345
6675.38751,0.62301
6673.45876,0.62236
6671.53002,0.62294
6669.60127,0.62551
6667.67253,0.62860
6665.74378,0.62920
6663.81504,0.62660
6661.88629,0.62361
6659.95755,0.62242
6658.02880,0.62306
6656.10006,0.62429
6654.17131,0.62485
6652.24256,0.62490
6650.31382,0.62471
6648.38507,0.62443
6646.45633,0.62532
6644.52758,0.62659
6642.59884,0.62571
6640.67009,0.62445
6638.74135,0.62560
6636.81260,0.62693
6634.88386,0.62619
6632.95511,0.62492
6631.02637,0.62513
6629.09762,0.62651
6627.16888,0.62712
6625.24013,0.62652
6623.31139,0.62547
6621.38264,0.62463
6619.45389,0.62546
6617.52515,0.62775
6615.59640,0.62857
6613.66766,0.62611
6611.73891,0.62147
6609.81017,0.61942
6607.88142,0.62275
6605.95268,0.62646
6604.02393,0.62649
6602.09519,0.62546
6600.16644,0.62694
6598.23770,0.63063
6596.30895,0.63226
6594.38021,0.63038
6592.45146,0.62877
6590.52271,0.62888
6588.59397,0.62918
6586.66522,0.62924
6584.73648,0.62901
6582.80773,0.62812
6580.87899,0.62694
6578.95024,0.62693
6577.02150,0.62814
6575.09275,0.62893
6573.16401,0.62991
6571.23526,0.63151
6569.30652,0.63198
6567.37777,0.63149
6565.44903,0.63146
6563.52028,0.63277
6561.59154,0.63422
6559.66279,0.63358
6557.73404,0.63220
6555.80530,0.63254
6553.87655,0.63397
6551.94781,0.63462
6550.01906,0.63435
6548.09032,0.63442
6546.16157,0.63454
6544.23283,0.63421
6542.30408,0.63490
6540.37534,0.63649
6538.44659,0.63785
6536.51785,0.63948
6534.58910,0.64059
6532.66036,0.64029
6530.73161,0.64068
6528.80287,0.64325
6526.87412,0.64540
6524.94537,0.64453
6523.01663,0.64286
6521.08788,0.64217
6519.15914,0.64227
6517.23039,0.64395
6515.30165,0.64549
6513.37290,0.64532
6511.44416,0.64491
6509.51541,0.64448
6507.58667,0.64398
6505.65792,0.64451
6503.72918,0.64580
6501.80043,0.64701
6499.87169,0.64837
6497.94294,0.64968
6496.01419,0.65007
6494.08545,0.64898
6492.15670,0.64632
6490.22796,0.64345
6488.29921,0.64205
6486.37047,0.64153
6484.44172,0.64164
6482.51298,0.64338
6480.58423,0.64565
6478.65549,0.64793
6476.72674,0.65067
6474.79800,0.65165
6472.86925,0.65100
6470.94051,0.65126
6469.01176,0.65235
6467.08302,0.65291
6465.15427,0.65200
6463.22552,0.65024
6461.29678,0.64901
6459.36803,0.64870
6457.43929,0.64908
6455.51054,0.64942
6453.58180,0.64909
6451.65305,0.64905
6449.72431,0.65078
6447.79556,0.65269
6445.86682,0.65201
6443.93807,0.65028
6442.00933,0.65054
6440.08058,0.65216
6438.15184,0.65353
6436.22309,0.65434
6434.29434,0.65389
6432.36560,0.65254
6430.43685,0.65120
6428.50811,0.64942
6426.57936,0.64776
6424.65062,0.64721
6422.72187,0.64752
6420.79313,0.64828
6418.86438,0.64871
6416.93564,0.64867
6415.00689,0.64896
6413.07815,0.64977
6411.14940,0.65060
6409.22066,0.65170
6407.29191,0.65361
6405.36317,0.65459
6403.43442,0.65345
6401.50567,0.65248
6399.57693,0.65248
6397.64818,0.65240
6395.71944,0.65273
6393.79069,0.65353
6391.86195,0.65441
6389.93320,0.65484
6388.00446,0.65363
6386.07571,0.65165
6384.14697,0.65024
6382.21822,0.64881
6380.28948,0.64752
6378.36073,0.64682
6376.43199,0.64737
6374.50324,0.64960
6372.57450,0.65126
6370.64575,0.65148
6368.71700,0.65164
6366.78826,0.65217
6364.85951,0.65375
6362.93077,0.65555
6361.00202,0.65536
6359.07328,0.65313
6357.14453,0.65068
6355.21579,0.64951
6353.28704,0.64958
6351.35830,0.65050
6349.42955,0.65157
6347.50081,0.65213
6345.57206,0.65283
6343.64332,0.65346
6341.71457,0.65315
6339.78582,0.65217
6337.85708,0.65106
6335.92833,0.65129
6333.99959,0.65348
6332.07084,0.65489
6330.14210,0.65376
6328.21335,0.65191
6326.28461,0.65095
6324.35586,0.65084
6322.42712,0.65109
6320.49837,0.65176
6318.56963,0.65310
6316.64088,0.65382
6314.71214,0.65255
6312.78339,0.65076
6310.85465,0.65034
6308.92590,0.65057
6306.99715,0.65035
6305.06841,0.64966
6303.13966,0.64933
6301.21092,0.65048
6299.28217,0.65228
6297.35343,0.65308
6295.42468,0.65380
6293.49594,0.65479
6291.56719,0.65389
6289.63845,0.65231
6287.70970,0.65321
6285.78096,0.65495
6283.85221,0.65509
6281.92347,0.65419
6279.99472,0.65286
6278.06598,0.65161
6276.13723,0.65109
6274.20848,0.65144
6272.27974,0.65242
6270.35099,0.65242
6268.42225,0.65023
6266.49350,0.64855
6264.56476,0.64942
6262.63601,0.65116
6260.70727,0.65278
6258.77852,0.65360
6256.84978,0.65304
6254.92103,0.65261
6252.99229,0.65227
6251.06354,0.65119
6249.13480,0.65050
6247.20605,0.65049
6245.27730,0.65065
6243.34856,0.65123
6241.41981,0.65181
6239.49107,0.65201
6237.56232,0.65262
6235.63358,0.65298
6233.70483,0.65193
6231.77609,0.65186
6229.84734,0.65381
6227.91860,0.65397
6225.98985,0.65161
6224.06111,0.64972
6222.13236,0.64994
6220.20362,0.65152
6218.27487,0.65194
6216.34613,0.65114
6214.41738,0.65107
6212.48863,0.65156
6210.55989,0.65241
6208.63114,0.65424
6206.70240,0.65594
6204.77365,0.65565
6202.84491,0.65365
6200.91616,0.65171
6198.98742,0.65060
6197.05867,0.64996
6195.12993,0.65000
6193.20118,0.65083
6191.27244,0.65130
6189.34369,0.65109
6187.41495,0.65065
6185.48620,0.65047
6183.55746,0.65090
6181.62871,0.65076
6179.69996,0.64998
6177.77122,0.65033
6175.84247,0.65167
6173.91373,0.65243
6171.98498,0.65173
6170.05624,0.64959
6168.12749,0.64790
6166.19875,0.64849
6164.27000,0.64981
6162.34126,0.64956
6160.41251,0.64832
6158.48377,0.64734
6156.55502,0.64656
6154.62628,0.64622
6152.69753,0.64675
6150.76878,0.64713
6148.84004,0.64679
6146.91129,0.64694
6144.98255,0.64721
6143.05380,0.64631
6141.12506,0.64547
6139.19631,0.64603
6137.26757,0.64705
6135.33882,0.64748
6133.41008,0.64734
6131.48133,0.64694
6129.55259,0.64670
6127.62384,0.64672
6125.69510,0.64655
6123.76635,0.64584
6121.83761,0.64481
6119.90886,0.64372
6117.98011,0.64258
6116.05137,0.64219
6114.12262,0.64272
6112.19388,0.64184
6110.26513,0.63938
6108.33639,0.63846
6106.40764,0.63937
6104.47890,0.64014
6102.55015,0.63998
6100.62141,0.63840
6098.69266,0.63639
6096.76392,0.63554
6094.83517,0.63528
6092.90643,0.63505
6090.97768,0.63482
6089.04893,0.63416
6087.12019,0.63357
6085.19144,0.63325
6083.26270,0.63280
6081.33395,0.63307
6079.40521,0.63419
6077.47646,0.63439
6075.54772,0.63349
6073.61897,0.63255
6071.69023,0.63182
6069.76148,0.63139
6067.83274,0.63046
6065.90399,0.62958
6063.97525,0.63123
6062.04650,0.63312
6060.11776,0.63168
6058.18901,0.62973
6056.26026,0.62987
6054.33152,0.62968
6052.40277,0.62857
6050.47403,0.62890
6048.54528,0.63028
6046.61654,0.63064
6044.68779,0.62977
6042.75905,0.62855
6040.83030,0.62751
6038.90156,0.62655
6036.97281,0.62531
6035.04407,0.62401
6033.11532,0.62342
6031.18658,0.62365
6029.25783,0.62383
6027.32909,0.62239
6025.40034,0.61899
6023.47159,0.61673
6021.54285,0.61745
6019.61410,0.61802
6017.68536,0.61613
6015.75661,0.61398
6013.82787,0.61346
6011.89912,0.61352
6009.97038,0.61348
6008.04163,0.61300
6006.11289,0.61131
6004.18414,0.60947
6002.25540,0.60824
6000.32665,0.60692
5998.39791,0.60584
5996.46916,0.60503
5994.54041,0.60375
5992.61167,0.60187
5990.68292,0.59913
5988.75418,0.59613
5986.82543,0.59494
5984.89669,0.59523
5982.96794,0.59473
5981.03920,0.59362
5979.11045,0.59183
5977.18171,0.58800
5975.25296,0.58356
5973.32422,0.58056
5971.39547,0.57845
5969.46673,0.57602
5967.53798,0.57258
5965.60924,0.56838
5963.68049,0.56460
5961.75174,0.56077
5959.82300,0.55605
5957.89425,0.55142
5955.96551,0.54729
5954.03676,0.54365
5952.10802,0.54133
5950.17927,0.54001
5948.25053,0.53822
5946.32178,0.53562
5944.39304,0.53299
5942.46429,0.53138
5940.53555,0.53171
5938.60680,0.53365
5936.67806,0.53581
5934.74931,0.53698
5932.82057,0.53673
5930.89182,0.53594
5928.96307,0.53620
5927.03433,0.53790
5925.10558,0.53946
5923.17684,0.53945
5921.24809,0.53866
5919.31935,0.53801
5917.39060,0.53699
5915.46186,0.53468
5913.53311,0.53117
5911.60437,0.52823
5909.67562,0.52692
5907.74688,0.52592
5905.81813,0.52458
5903.88939,0.52358
5901.96064,0.52253
5900.03189,0.52147
5898.10315,0.52133
5896.17440,0.52223
5894.24566,0.52428
5892.31691,0.52684
5890.38817,0.52845
5888.45942,0.52953
5886.53068,0.53170
5884.60193,0.53471
5882.67319,0.53730
5880.74444,0.53996
5878.81570,0.54290
5876.88695,0.54488
5874.95821,0.54562
5873.02946,0.54563
5871.10072,0.54549
5869.17197,0.54557
5867.24322,0.54566
5865.31448,0.54562
5863.38573,0.54527
5861.45699,0.54502
5859.52824,0.54591
5857.59950,0.54755
5855.67075,0.54850
5853.74201,0.54826
5851.81326,0.54706
5849.88452,0.54549
5847.95577,0.54433
5846.02703,0.54385
5844.09828,0.54386
5842.16954,0.54359
5840.24079,0.54255
5838.31205,0.54124
5836.38330,0.53951
5834.45455,0.53778
5832.52581,0.53749
5830.59706,0.53836
5828.66832,0.53897
5826.73957,0.53825
5824.81083,0.53592
5822.88208,0.53327
5820.95334,0.53186
5819.02459,0.53157
5817.09585,0.53136
5815.16710,0.53090
5813.23836,0.52985
5811.30961,0.52768
5809.38087,0.52549
5807.45212,0.52438
5805.52337,0.52346
5803.59463,0.52206
5801.66588,0.52048
5799.73714,0.51866
5797.80839,0.51719
5795.87965,0.51681
5793.95090,0.51675
5792.02216,0.51586
5790.09341,0.51382
5788.16467,0.51190
5786.23592,0.51133
5784.30718,0.51084
5782.37843,0.50914
5780.44969,0.50746
5778.52094,0.50714
5776.59220,0.50735
5774.66345,0.50716
5772.73470,0.50708
5770.80596,0.50741
5768.87721,0.50757
5766.94847,0.50732
5765.01972,0.50740
5763.09098,0.50845
5761.16223,0.51020
5759.23349,0.51232
5757.30474,0.51446
5755.37600,0.51600
5753.44725,0.51653
5751.51851,0.51625
5749.58976,0.51654
5747.66102,0.51829
5745.73227,0.52033
5743.80352,0.52186
5741.87478,0.52333
5739.94603,0.52534
5738.01729,0.52834
5736.08854,0.53116
5734.15980,0.53262
5732.23105,0.53404
5730.30231,0.53568
5728.37356,0.53653
5726.44482,0.53785
5724.51607,0.54036
5722.58733,0.54255
5720.65858,0.54374
5718.72984,0.54485
5716.80109,0.54655
5714.87235,0.54861
5712.94360,0.55019
5711.01485,0.55127
5709.08611,0.55272
5707.15736,0.55428
5705.22862,0.55587
5703.29987,0.55795
5701.37113,0.55925
5699.44238,0.55922
5697.51364,0.55975
5695.58489,0.56171
5693.65615,0.56304
5691.72740,0.56215
5689.79866,0.56126
5687.86991,0.56161
5685.94117,0.56141
5684.01242,0.56060
5682.08368,0.56004
5680.15493,0.55992
5678.22618,0.56074
5676.29744,0.56147
5674.36869,0.56055
5672.43995,0.55945
5670.51120,0.55971
5668.58246,0.55995
5666.65371,0.55935
5664.72497,0.55881
5662.79622,0.55851
5660.86748,0.55846
5658.93873,0.55937
5657.00999,0.56126
5655.08124,0.56257
5653.15250,0.56251
5651.22375,0.56255
5649.29500,0.56334
5647.36626,0.56381
5645.43751,0.56392
5643.50877,0.56423
5641.58002,0.56442
5639.65128,0.56508
5637.72253,0.56676
5635.79379,0.56854
5633.86504,0.56988
5631.93630,0.57074
5630.00755,0.57117
5628.07881,0.57224
5626.15006,0.57411
5624.22132,0.57508
5622.29257,0.57521
5620.36383,0.57654
5618.43508,0.57901
5616.50633,0.58061
5614.57759,0.58063
5612.64884,0.58029
5610.72010,0.58029
5608.79135,0.58000
5606.86261,0.57984
5604.93386,0.58048
5603.00512,0.58076
5601.07637,0.58043
5599.14763,0.58066
5597.21888,0.58097
5595.29014,0.58044
5593.36139,0.58008
5591.43265,0.58084
5589.50390,0.58173
5587.57516,0.58175
5585.64641,0.58114
5583.71766,0.58058
5581.78892,0.58073
5579.86017,0.58116
5577.93143,0.58086
5576.00268,0.58047
5574.07394,0.58056
5572.14519,0.58051
5570.21645,0.58053
5568.28770,0.58080
5566.35896,0.58072
5564.43021,0.58056
5562.50147,0.58058
5560.57272,0.58055
5558.64398,0.58101
5556.71523,0.58205
5554.78648,0.58236
5552.85774,0.58148
5550.92899,0.58084
5549.00025,0.58129
5547.07150,0.58188
5545.14276,0.58161
5543.21401,0.58079
5541.28527,0.58029
5539.35652,0.58009
5537.42778,0.58001
5535.49903,0.58044
5533.57029,0.58118
5531.64154,0.58200
5529.71280,0.58282
5527.78405,0.58332
5525.85531,0.58317
5523.92656,0.58246
5521.99781,0.58249
5520.06907,0.58349
5518.14032,0.58380
5516.21158,0.58325
5514.28283,0.58277
5512.35409,0.58270
5510.42534,0.58356
5508.49660,0.58498
5506.56785,0.58553
5504.63911,0.58516
5502.71036,0.58518
5500.78162,0.58572
5498.85287,0.58582
5496.92413,0.58561
5494.99538,0.58597
5493.06664,0.58660
5491.13789,0.58668
5489.20914,0.58690
5487.28040,0.58821
5485.35165,0.58939
5483.42291,0.58937
5481.49416,0.58888
5479.56542,0.58842
5477.63667,0.58808
5475.70793,0.58791
5473.77918,0.58788
5471.85044,0.58825
5469.92169,0.58893
5467.99295,0.58926
5466.06420,0.58914
5464.13546,0.58926
5462.20671,0.58951
5460.27796,0.58907
5458.34922,0.58826
5456.42047,0.58819
5454.49173,0.58875
5452.56298,0.58855
5450.63424,0.58783
5448.70549,0.58802
5446.77675,0.58933
5444.84800,0.59098
5442.91926,0.59184
5440.99051,0.59152
5439.06177,0.59112
5437.13302,0.59170
5435.20428,0.59304
5433.27553,0.59420
5431.34679,0.59441
5429.41804,0.59390
5427.48929,0.59433
5425.56055,0.59612
5423.63180,0.59776
5421.70306,0.59899
5419.77431,0.60076
5417.84557,0.60243
5415.91682,0.60282
5413.98808,0.60251
5412.05933,0.60286
5410.13059,0.60421
5408.20184,0.60563
5406.27310,0.60689
5404.34435,0.60833
5402.41561,0.60918
5400.48686,0.60945
5398.55811,0.61013
5396.62937,0.61068
5394.70062,0.61048
5392.77188,0.61037
5390.84313,0.61042
5388.91439,0.61044
5386.98564,0.61122
5385.05690,0.61258
5383.12815,0.61331
5381.19941,0.61314
5379.27066,0.61282
5377.34192,0.61330
5375.41317,0.61457
5373.48443,0.61554
5371.55568,0.61575
5369.62694,0.61610
5367.69819,0.61695
5365.76944,0.61734
5363.84070,0.61682
5361.91195,0.61633
5359.98321,0.61656
5358.05446,0.61670
5356.12572,0.61641
5354.19697,0.61635
5352.26823,0.61640
5350.33948,0.61632
5348.41074,0.61613
5346.48199,0.61609
5344.55325,0.61640
5342.62450,0.61661
5340.69576,0.61619
5338.76701,0.61525
5336.83827,0.61494
5334.90952,0.61582
5332.98077,0.61672
5331.05203,0.61675
5329.12328,0.61640
5327.19454,0.61665
5325.26579,0.61765
5323.33705,0.61852
5321.40830,0.61858
5319.47956,0.61823
5317.55081,0.61811
5315.62207,0.61828
5313.69332,0.61870
5311.76458,0.61928
5309.83583,0.61981
5307.90709,0.61983
5305.97834,0.61934
5304.04959,0.61867
5302.12085,0.61786
5300.19210,0.61769
5298.26336,0.61847
5296.33461,0.61896
5294.40587,0.61847
5292.47712,0.61775
5290.54838,0.61745
5288.61963,0.61730
5286.69089,0.61707
5284.76214,0.61684
5282.83340,0.61657
5280.90465,0.61590
5278.97591,0.61502
5277.04716,0.61437
5275.11842,0.61399
5273.18967,0.61393
5271.26092,0.61401
5269.33218,0.61379
5267.40343,0.61321
5265.47469,0.61250
5263.54594,0.61200
5261.61720,0.61176
5259.68845,0.61177
5257.75971,0.61229
5255.83096,0.61307
5253.90222,0.61334
5251.97347,0.61262
5250.04473,0.61146
5248.11598,0.61072
5246.18724,0.61024
5244.25849,0.60950
5242.32975,0.60886
5240.40100,0.60889
5238.47225,0.60938
5236.54351,0.60924
5234.61476,0.60801
5232.68602,0.60690
5230.75727,0.60693
5228.82853,0.60756
5226.89978,0.60808
5224.97104,0.60810
5223.04229,0.60750
5221.11355,0.60703
5219.18480,0.60706
5217.25606,0.60707
5215.32731,0.60671
5213.39857,0.60626
5211.46982,0.60620
5209.54107,0.60617
5207.61233,0.60584
5205.68358,0.60588
5203.75484,0.60645
5201.82609,0.60707
5199.89735,0.60726
5197.96860,0.60688
5196.03986,0.60638
5194.11111,0.60594
5192.18237,0.60576
5190.25362,0.60606
5188.32488,0.60656
5186.39613,0.60714
5184.46739,0.60780
5182.53864,0.60806
5180.60990,0.60789
5178.68115,0.60796
5176.75240,0.60792
5174.82366,0.60709
5172.89491,0.60618
5170.96617,0.60592
5169.03742,0.60618
5167.10868,0.60659
5165.17993,0.60683
5163.25119,0.60699
5161.32244,0.60727
5159.39370,0.60747
5157.46495,0.60725
5155.53621,0.60671
5153.60746,0.60616
5151.67872,0.60607
5149.74997,0.60669
5147.82123,0.60761
5145.89248,0.60821
5143.96373,0.60839
5142.03499,0.60848
5140.10624,0.60835
5138.17750,0.60766
5136.24875,0.60657
5134.32001,0.60550
5132.39126,0.60493
5130.46252,0.60513
5128.53377,0.60592
5126.60503,0.60688
5124.67628,0.60746
5122.74754,0.60763
5120.81879,0.60745
5118.89005,0.60630
5116.96130,0.60421
5115.03255,0.60271
5113.10381,0.60304
5111.17506,0.60434
5109.24632,0.60495
5107.31757,0.60473
5105.38883,0.60430
5103.46008,0.60327
5101.53134,0.60184
5099.60259,0.60147
5097.67385,0.60176
5095.74510,0.60130
5093.81636,0.60034
5091.88761,0.59933
5089.95887,0.59850
5088.03012,0.59826
5086.10138,0.59808
5084.17263,0.59727
5082.24388,0.59626
5080.31514,0.59549
5078.38639,0.59492
5076.45765,0.59420
5074.52890,0.59326
5072.60016,0.59271
5070.67141,0.59270
5068.74267,0.59231
5066.81392,0.59080
5064.88518,0.58891
5062.95643,0.58797
5061.02769,0.58791
5059.09894,0.58761
5057.17020,0.58671
5055.24145,0.58579
5053.31270,0.58507
5051.38396,0.58414
5049.45521,0.58319
5047.52647,0.58254
5045.59772,0.58185
5043.66898,0.58098
5041.74023,0.58038
5039.81149,0.57991
5037.88274,0.57897
5035.95400,0.57771
5034.02525,0.57680
5032.09651,0.57643
5030.16776,0.57584
5028.23902,0.57442
5026.31027,0.57319
5024.38153,0.57278
5022.45278,0.57235
5020.52403,0.57163
5018.59529,0.57077
5016.66654,0.56981
5014.73780,0.56915
5012.80905,0.56870
5010.88031,0.56779
5008.95156,0.56638
5007.02282,0.56493
5005.09407,0.56394
5003.16533,0.56331
5001.23658,0.56245
4999.30784,0.56138
4997.37909,0.56030
4995.45035,0.55899
4993.52160,0.55760
4991.59286,0.55638
4989.66411,0.55542
4987.73536,0.55469
4985.80662,0.55352
4983.87787,0.55148
4981.94913,0.54919
4980.02038,0.54738
4978.09164,0.54600
4976.16289,0.54435
4974.23415,0.54247
4972.30540,0.54125
4970.37666,0.53986
4968.44791,0.53725
4966.51917,0.53467
4964.59042,0.53286
4962.66168,0.53113
4960.73293,0.52919
4958.80418,0.52710
4956.87544,0.52510
4954.94669,0.52351
4953.01795,0.52195
4951.08920,0.52023
4949.16046,0.51868
4947.23171,0.51708
4945.30297,0.51504
4943.37422,0.51281
4941.44548,0.51083
4939.51673,0.50920
4937.58799,0.50773
4935.65924,0.50619
4933.73050,0.50460
4931.80175,0.50319
4929.87301,0.50197
4927.94426,0.50087
4926.01551,0.50007
4924.08677,0.49942
4922.15802,0.49855
4920.22928,0.49738
4918.30053,0.49583
4916.37179,0.49394
4914.44304,0.49209
4912.51430,0.49062
4910.58555,0.48928
4908.65681,0.48785
4906.72806,0.48651
4904.79932,0.48517
4902.87057,0.48361
4900.94183,0.48219
4899.01308,0.48119
4897.08434,0.48021
4895.15559,0.47920
4893.22684,0.47869
4891.29810,0.47846
4889.36935,0.47793
4887.44061,0.47737
4885.51186,0.47693
4883.58312,0.47615
4881.65437,0.47497
4879.72563,0.47372
4877.79688,0.47267
4875.86814,0.47162
4873.93939,0.47018
4872.01065,0.46873
4870.08190,0.46759
4868.15316,0.46656
4866.22441,0.46581
4864.29566,0.46537
4862.36692,0.46463
4860.43817,0.46351
4858.50943,0.46246
4856.58068,0.46159
4854.65194,0.46085
4852.72319,0.46063
4850.79445,0.46091
4848.86570,0.46071
4846.93696,0.45982
4845.00821,0.45906
4843.07947,0.45872
4841.15072,0.45875
4839.22198,0.45906
4837.29323,0.45931
4835.36449,0.45965
4833.43574,0.46036
4831.50699,0.46125
4829.57825,0.46214
4827.64950,0.46311
4825.72076,0.46401
4823.79201,0.46486
4821.86327,0.46605
4819.93452,0.46745
4818.00578,0.46849
4816.07703,0.46930
4814.14829,0.47016
4812.21954,0.47099
4810.29080,0.47182
4808.36205,0.47288
4806.43331,0.47445
4804.50456,0.47656
4802.57582,0.47865
4800.64707,0.48021
4798.71832,0.48129
4796.78958,0.48221
4794.86083,0.48324
4792.93209,0.48441
4791.00334,0.48561
4789.07460,0.48675
4787.14585,0.48775
4785.21711,0.48898
4783.28836,0.49077
4781.35962,0.49269
4779.43087,0.49395
4777.50213,0.49440
4775.57338,0.49487
4773.64464,0.49590
4771.71589,0.49715
4769.78714,0.49844
4767.85840,0.49985
4765.92965,0.50105
4764.00091,0.50191
4762.07216,0.50282
4760.14342,0.50374
4758.21467,0.50414
4756.28593,0.50419
4754.35718,0.50444
4752.42844,0.50483
4750.49969,0.50518
4748.57095,0.50577
4746.64220,0.50642
4744.71346,0.50666
4742.78471,0.50672
4740.85597,0.50668
4738.92722,0.50627
4736.99847,0.50591
4735.06973,0.50585
4733.14098,0.50583
4731.21224,0.50584
4729.28349,0.50574
4727.35475,0.50534
4725.42600,0.50494
4723.49726,0.50489
4721.56851,0.50486
4719.63977,0.50422
4717.71102,0.50312
4715.78228,0.50230
4713.85353,0.50211
4711.92479,0.50212
4709.99604,0.50182
4708.06729,0.50138
4706.13855,0.50115
4704.20980,0.50077
4702.28106,0.50002
4700.35231,0.49927
4698.42357,0.49873
4696.49482,0.49812
4694.56608,0.49728
4692.63733,0.49624
4690.70859,0.49490
4688.77984,0.49348
4686.85110,0.49237
4684.92235,0.49148
4682.99361,0.49051
4681.06486,0.48944
4679.13612,0.48826
4677.20737,0.48679
4675.27862,0.48497
4673.34988,0.48332
4671.42113,0.48216
4669.49239,0.48100
4667.56364,0.47961
4665.63490,0.47821
4663.70615,0.47664
4661.77741,0.47515
4659.84866,0.47440
4657.91992,0.47427
4655.99117,0.47405
4654.06243,0.47343
4652.13368,0.47259
4650.20494,0.47193
4648.27619,0.47176
4646.34745,0.47177
4644.41870,0.47145
4642.48995,0.47075
4640.56121,0.47000
4638.63246,0.46980
4636.70372,0.47004
4634.77497,0.46993
4632.84623,0.46966
4630.91748,0.46970
4628.98874,0.46969
4627.05999,0.46940
4625.13125,0.46894
4623.20250,0.46823
4621.27376,0.46731
4619.34501,0.46675
4617.41627,0.46701
4615.48752,0.46752
4613.55877,0.46754
4611.63003,0.46723
4609.70128,0.46705
4607.77254,0.46704
4605.84379,0.46716
4603.91505,0.46746
4601.98630,0.46773
4600.05756,0.46771
4598.12881,0.46750
4596.20007,0.46751
4594.27132,0.46790
4592.34258,0.46824
4590.41383,0.46831
4588.48509,0.46843
4586.55634,0.46873
4584.62760,0.46898
4582.69885,0.46908
4580.77010,0.46894
4578.84136,0.46872
4576.91261,0.46885
4574.98387,0.46919
4573.05512,0.46910
4571.12638,0.46851
4569.19763,0.46803
4567.26889,0.46777
4565.34014,0.46728
4563.41140,0.46649
4561.48265,0.46576
4559.55391,0.46526
4557.62516,0.46484
4555.69642,0.46452
4553.76767,0.46433
4551.83893,0.46412
4549.91018,0.46372
4547.98143,0.46310
4546.05269,0.46275
4544.12394,0.46281
4542.19520,0.46281
4540.26645,0.46278
4538.33771,0.46271
4536.40896,0.46225
4534.48022,0.46158
4532.55147,0.46106
4530.62273,0.46090
4528.69398,0.46117
4526.76524,0.46155
4524.83649,0.46173
4522.90775,0.46172
4520.97900,0.46152
4519.05025,0.46123
4517.12151,0.46099
4515.19276,0.46060
4513.26402,0.45999
4511.33527,0.45926
4509.40653,0.45833
4507.47778,0.45776
4505.54904,0.45782
4503.62029,0.45767
4501.69155,0.45698
4499.76280,0.45613
4497.83406,0.45512
4495.90531,0.45409
4493.97657,0.45329
4492.04782,0.45284
4490.11908,0.45261
4488.19033,0.45213
4486.26158,0.45104
4484.33284,0.44944
4482.40409,0.44761
4480.47535,0.44577
4478.54660,0.44409
4476.61786,0.44234
4474.68911,0.44029
4472.76037,0.43825
4470.83162,0.43622
4468.90288,0.43382
4466.97413,0.43113
4465.04539,0.42819
4463.11664,0.42495
4461.18790,0.42160
4459.25915,0.41792
4457.33041,0.41363
4455.40166,0.40900
4453.47291,0.40416
4451.54417,0.39902
4449.61542,0.39368
4447.68668,0.38790
4445.75793,0.38159
4443.82919,0.37495
4441.90044,0.36802
4439.97170,0.36093
4438.04295,0.35403
4436.11421,0.34745
4434.18546,0.34098
4432.25672,0.33435
4430.32797,0.32755
4428.39923,0.32101
4426.47048,0.31508
4424.54173,0.30968
4422.61299,0.30474
4420.68424,0.30005
4418.75550,0.29582
4416.82675,0.29283
4414.89801,0.29105
4412.96926,0.28965
4411.04052,0.28868
4409.11177,0.28884
4407.18303,0.29014
4405.25428,0.29220
4403.32554,0.29484
4401.39679,0.29789
4399.46805,0.30076
4397.53930,0.30267
4395.61056,0.30355
4393.68181,0.30389
4391.75306,0.30380
4389.82432,0.30304
4387.89557,0.30162
4385.96683,0.29968
4384.03808,0.29746
4382.10934,0.29541
4380.18059,0.29369
4378.25185,0.29177
4376.32310,0.28930
4374.39436,0.28655
4372.46561,0.28377
4370.53687,0.28078
4368.60812,0.27753
4366.67938,0.27398
4364.75063,0.27022
4362.82189,0.26649
4360.89314,0.26299
4358.96439,0.25948
4357.03565,0.25568
4355.10690,0.25197
4353.17816,0.24856
4351.24941,0.24521
4349.32067,0.24222
4347.39192,0.23999
4345.46318,0.23845
4343.53443,0.23712
4341.60569,0.23547
4339.67694,0.23368
4337.74820,0.23240
4335.81945,0.23162
4333.89071,0.23121
4331.96196,0.23139
4330.03321,0.23187
4328.10447,0.23247
4326.17572,0.23345
4324.24698,0.23456
4322.31823,0.23562
4320.38949,0.23727
4318.46074,0.23980
4316.53200,0.24258
4314.60325,0.24533
4312.67451,0.24831
4310.74576,0.25160
4308.81702,0.25503
4306.88827,0.25864
4304.95953,0.26247
4303.03078,0.26623
4301.10204,0.26983
4299.17329,0.27364
4297.24454,0.27737
4295.31580,0.28052
4293.38705,0.28299
4291.45831,0.28476
4289.52956,0.28594
4287.60082,0.28672
4285.67207,0.28703
4283.74333,0.28717
4281.81458,0.28750
4279.88584,0.28800
4277.95709,0.28835
4276.02835,0.28832
4274.09960,0.28825
4272.17086,0.28862
4270.24211,0.28926
4268.31336,0.28986
4266.38462,0.29062
4264.45587,0.29167
4262.52713,0.29300
4260.59838,0.29468
4258.66964,0.29659
4256.74089,0.29842
4254.81215,0.30011
4252.88340,0.30169
4250.95466,0.30308
4249.02591,0.30409
4247.09717,0.30451
4245.16842,0.30457
4243.23968,0.30493
4241.31093,0.30567
4239.38219,0.30645
4237.45344,0.30727
4235.52469,0.30799
4233.59595,0.30844
4231.66720,0.30905
4229.73846,0.30994
4227.80971,0.31102
4225.88097,0.31254
4223.95222,0.31438
4222.02348,0.31623
4220.09473,0.31833
4218.16599,0.32062
4216.23724,0.32264
4214.30850,0.32432
4212.37975,0.32592
4210.45101,0.32760
4208.52226,0.32935
4206.59352,0.33098
4204.66477,0.33233
4202.73602,0.33371
4200.80728,0.33511
4198.87853,0.33617
4196.94979,0.33691
4195.02104,0.33731
4193.09230,0.33724
4191.16355,0.33690
4189.23481,0.33668
4187.30606,0.33654
4185.37732,0.33611
4183.44857,0.33529
4181.51983,0.33411
4179.59108,0.33272
4177.66234,0.33154
4175.73359,0.33067
4173.80484,0.33000
4171.87610,0.32930
4169.94735,0.32830
4168.01861,0.32709
4166.08986,0.32594
4164.16112,0.32504
4162.23237,0.32444
4160.30363,0.32377
4158.37488,0.32274
4156.44614,0.32175
4154.51739,0.32115
4152.58865,0.32064
4150.65990,0.31993
4148.73116,0.31916
4146.80241,0.31853
4144.87367,0.31818
4142.94492,0.31786
4141.01617,0.31736
4139.08743,0.31719
4137.15868,0.31751
4135.22994,0.31774
4133.30119,0.31759
4131.37245,0.31722
4129.44370,0.31683
4127.51496,0.31655
4125.58621,0.31617
4123.65747,0.31544
4121.72872,0.31452
4119.79998,0.31364
4117.87123,0.31272
4115.94249,0.31170
4114.01374,0.31068
4112.08500,0.30967
4110.15625,0.30852
4108.22750,0.30738
4106.29876,0.30643
4104.37001,0.30538
4102.44127,0.30422
4100.51252,0.30313
4098.58378,0.30169
4096.65503,0.29962
4094.72629,0.29734
4092.79754,0.29527
4090.86880,0.29356
4088.94005,0.29215
4087.01131,0.29079
4085.08256,0.28926
4083.15382,0.28739
4081.22507,0.28518
4079.29632,0.28291
4077.36758,0.28104
4075.43883,0.27975
4073.51009,0.27856
4071.58134,0.27707
4069.65260,0.27544
4067.72385,0.27407
4065.79511,0.27318
4063.86636,0.27247
4061.93762,0.27155
4060.00887,0.27039
4058.08013,0.26902
4056.15138,0.26766
4054.22264,0.26667
4052.29389,0.26605
4050.36515,0.26557
4048.43640,0.26513
4046.50765,0.26468
4044.57891,0.26410
4042.65016,0.26336
4040.72142,0.26261
4038.79267,0.26216
4036.86393,0.26209
4034.93518,0.26199
4033.00644,0.26171
4031.07769,0.26161
4029.14895,0.26176
4027.22020,0.26192
4025.29146,0.26193
4023.36271,0.26189
4021.43397,0.26204
4019.50522,0.26239
4017.57648,0.26276
4015.64773,0.26304
4013.71898,0.26326
4011.79024,0.26354
4009.86149,0.26404
4007.93275,0.26454
4006.00400,0.26465
4004.07526,0.26462
4002.14651,0.26492
4000.21777,0.26546
3998.28902,0.26619
3996.36028,0.26724
3994.43153,0.26845
3992.50279,0.26936
3990.57404,0.26999
3988.64530,0.27077
3986.71655,0.27185
3984.78780,0.27314
3982.85906,0.27457
3980.93031,0.27606
3979.00157,0.27749
3977.07282,0.27889
3975.14408,0.28050
3973.21533,0.28244
3971.28659,0.28437
3969.35784,0.28598
3967.42910,0.28738
3965.50035,0.28892
3963.57161,0.29068
3961.64286,0.29249
3959.71412,0.29437
3957.78537,0.29634
3955.85663,0.29812
3953.92788,0.29971
3951.99913,0.30169
3950.07039,0.30422
3948.14164,0.30675
3946.21290,0.30900
3944.28415,0.31126
3942.35541,0.31387
3940.42666,0.31671
3938.49792,0.31942
3936.56917,0.32204
3934.64043,0.32454
3932.71168,0.32697
3930.78294,0.32946
3928.85419,0.33174
3926.92545,0.33371
3924.99670,0.33568
3923.06795,0.33778
3921.13921,0.33973
3919.21046,0.34151
3917.28172,0.34318
3915.35297,0.34461
3913.42423,0.34574
3911.49548,0.34671
3909.56674,0.34766
3907.63799,0.34873
3905.70925,0.34997
3903.78050,0.35115
3901.85176,0.35181
3899.92301,0.35196
3897.99427,0.35200
3896.06552,0.35227
3894.13678,0.35284
3892.20803,0.35350
3890.27928,0.35396
3888.35054,0.35442
3886.42179,0.35526
3884.49305,0.35624
3882.56430,0.35691
3880.63556,0.35735
3878.70681,0.35763
3876.77807,0.35768
3874.84932,0.35767
3872.92058,0.35783
3870.99183,0.35818
3869.06309,0.35839
3867.13434,0.35841
3865.20560,0.35852
3863.27685,0.35871
3861.34811,0.35883
3859.41936,0.35893
3857.49061,0.35912
3855.56187,0.35940
3853.63312,0.35982
3851.70438,0.36033
3849.77563,0.36083
3847.84689,0.36122
3845.91814,0.36147
3843.98940,0.36190
3842.06065,0.36303
3840.13191,0.36473
3838.20316,0.36644
3836.27442,0.36768
3834.34567,0.36855
3832.41693,0.36943
3830.48818,0.37024
3828.55943,0.37092
3826.63069,0.37173
3824.70194,0.37257
3822.77320,0.37346
3820.84445,0.37460
3818.91571,0.37550
3816.98696,0.37583
3815.05822,0.37586
3813.12947,0.37603
3811.20073,0.37649
3809.27198,0.37701
3807.34324,0.37720
3805.41449,0.37703
3803.48575,0.37684
3801.55700,0.37689
3799.62826,0.37734
3797.69951,0.37787
3795.77076,0.37828
3793.84202,0.37887
3791.91327,0.37966
3789.98453,0.38035
3788.05578,0.38092
3786.12704,0.38165
3784.19829,0.38257
3782.26955,0.38351
3780.34080,0.38474
3778.41206,0.38631
3776.48331,0.38787
3774.55457,0.38946
3772.62582,0.39118
3770.69708,0.39311
3768.76833,0.39518
3766.83959,0.39715
3764.91084,0.39926
3762.98209,0.40161
3761.05335,0.40401
3759.12460,0.40635
3757.19586,0.40834
3755.26711,0.40993
3753.33837,0.41179
3751.40962,0.41450
3749.48088,0.41721
3747.55213,0.41868
3745.62339,0.41953
3743.69464,0.42095
3741.76590,0.42262
3739.83715,0.42392
3737.90841,0.42515
3735.97966,0.42655
3734.05091,0.42797
3732.12217,0.42906
3730.19342,0.42962
3728.26468,0.43003
3726.33593,0.43090
3724.40719,0.43228
3722.47844,0.43374
3720.54970,0.43497
3718.62095,0.43580
3716.69221,0.43641
3714.76346,0.43702
3712.83472,0.43758
3710.90597,0.43813
3708.97723,0.43885
3707.04848,0.43978
3705.11974,0.44062
3703.19099,0.44113
3701.26224,0.44143
3699.33350,0.44151
3697.40475,0.44113
3695.47601,0.44050
3693.54726,0.44009
3691.61852,0.43971
3689.68977,0.43890
3687.76103,0.43774
3685.83228,0.43673
3683.90354,0.43583
3681.97479,0.43488
3680.04605,0.43381
3678.11730,0.43260
3676.18856,0.43141
3674.25981,0.43026
3672.33107,0.42889
3670.40232,0.42709
3668.47357,0.42513
3666.54483,0.42338
3664.61608,0.42157
3662.68734,0.41953
3660.75859,0.41753
3658.82985,0.41569
3656.90110,0.41368
3654.97236,0.41155
3653.04361,0.40983
3651.11487,0.40805
3649.18612,0.40548
3647.25738,0.40268
3645.32863,0.40037
3643.39989,0.39842
3641.47114,0.39659
3639.54239,0.39467
3637.61365,0.39249
3635.68490,0.39007
3633.75616,0.38771
3631.82741,0.38553
3629.89867,0.38324
3627.96992,0.38113
3626.04118,0.37945
3624.11243,0.37778
3622.18369,0.37599
3620.25494,0.37382
3618.32620,0.37125
3616.39745,0.36894
3614.46871,0.36715
3612.53996,0.36549
3610.61122,0.36364
3608.68247,0.36169
3606.75372,0.35988
3604.82498,0.35831
3602.89623,0.35702
3600.96749,0.35586
3599.03874,0.35465
3597.11000,0.35322
3595.18125,0.35171
3593.25251,0.35035
3591.32376,0.34904
3589.39502,0.34762
3587.46627,0.34616
3585.53753,0.34467
3583.60878,0.34318
3581.68004,0.34183
3579.75129,0.34048
3577.82254,0.33882
3575.89380,0.33693
3573.96505,0.33526
3572.03631,0.33386
3570.10756,0.33236
3568.17882,0.33069
3566.25007,0.32904
3564.32133,0.32744
3562.39258,0.32587
3560.46384,0.32422
3558.53509,0.32250
3556.60635,0.32082
3554.67760,0.31903
3552.74886,0.31698
3550.82011,0.31481
3548.89137,0.31278
3546.96262,0.31103
3545.03387,0.30932
3543.10513,0.30725
3541.17638,0.30493
3539.24764,0.30273
3537.31889,0.30070
3535.39015,0.29849
3533.46140,0.29611
3531.53266,0.29387
3529.60391,0.29177
3527.67517,0.28981
3525.74642,0.28787
3523.81768,0.28565
3521.88893,0.28327
3519.96019,0.28123
3518.03144,0.27958
3516.10270,0.27787
3514.17395,0.27588
3512.24520,0.27384
3510.31646,0.27195
3508.38771,0.26994
3506.45897,0.26773
3504.53022,0.26568
3502.60148,0.26407
3500.67273,0.26254
3498.74399,0.26054
3496.81524,0.25803
3494.88650,0.25535
3492.95775,0.25258
3491.02901,0.24966
3489.10026,0.24685
3487.17152,0.24410
3485.24277,0.24075
3483.31402,0.23682
3481.38528,0.23315
3479.45653,0.22971
3477.52779,0.22575
3475.59904,0.22155
3473.67030,0.21745
3471.74155,0.21301
3469.81281,0.20793
3467.88406,0.20252
3465.95532,0.19705
3464.02657,0.19181
3462.09783,0.18725
3460.16908,0.18355
3458.24034,0.18035
3456.31159,0.17738
3454.38285,0.17477
3452.45410,0.17246
3450.52535,0.17030
3448.59661,0.16836
3446.66786,0.16626
3444.73912,0.16330
3442.81037,0.15993
3440.88163,0.15688
3438.95288,0.15371
3437.02414,0.14979
3435.09539,0.14511
3433.16665,0.13990
3431.23790,0.13435
3429.30916,0.12843
3427.38041,0.12205
3425.45167,0.11552
3423.52292,0.10932
3421.59418,0.10394
3419.66543,0.09951
3417.73668,0.09584
3415.80794,0.09272
3413.87919,0.09009
3411.95045,0.08838
3410.02170,0.08762
3408.09296,0.08697
3406.16421,0.08601
3404.23547,0.08483
3402.30672,0.08336
3400.37798,0.08164
3398.44923,0.07988
3396.52049,0.07815
3394.59174,0.07640
3392.66300,0.07463
3390.73425,0.07295
3388.80550,0.07110
3386.87676,0.06885
3384.94801,0.06672
3383.01927,0.06518
3381.09052,0.06403
3379.16178,0.06296
3377.23303,0.06190
3375.30429,0.06072
3373.37554,0.05946
3371.44680,0.05840
3369.51805,0.05766
3367.58931,0.05706
3365.66056,0.05637
3363.73182,0.05547
3361.80307,0.05460
3359.87433,0.05408
3357.94558,0.05363
3356.01683,0.05299
3354.08809,0.05241
3352.15934,0.05205
3350.23060,0.05193
3348.30185,0.05171
3346.37311,0.05101
3344.44436,0.05026
3342.51562,0.04988
3340.58687,0.04952
3338.65813,0.04887
3336.72938,0.04839
3334.80064,0.04836
3332.87189,0.04823
3330.94315,0.04771
3329.01440,0.04728
3327.08566,0.04731
3325.15691,0.04737
3323.22816,0.04698
3321.29942,0.04641
3319.37067,0.04601
3317.44193,0.04575
3315.51318,0.04565
3313.58444,0.04553
3311.65569,0.04519
3309.72695,0.04484
3307.79820,0.04466
3305.86946,0.04457
3303.94071,0.04433
3302.01197,0.04405
3300.08322,0.04420
3298.15448,0.04470
3296.22573,0.04488
3294.29698,0.04454
3292.36824,0.04420
3290.43949,0.04409
3288.51075,0.04412
3286.58200,0.04428
3284.65326,0.04451
3282.72451,0.04469
3280.79577,0.04478
3278.86702,0.04488
3276.93828,0.04510
3275.00953,0.04530
3273.08079,0.04540
3271.15204,0.04555
3269.22330,0.04591
3267.29455,0.04637
3265.36581,0.04672
3263.43706,0.04700
3261.50831,0.04717
3259.57957,0.04724
3257.65082,0.04751
3255.72208,0.04797
3253.79333,0.04833
3251.86459,0.04862
3249.93584,0.04902
3248.00710,0.04948
3246.07835,0.04987
3244.14961,0.05023
3242.22086,0.05064
3240.29212,0.05108
3238.36337,0.05156
3236.43463,0.05215
3234.50588,0.05286
3232.57713,0.05347
3230.64839,0.05382
3228.71964,0.05418
3226.79090,0.05491
3224.86215,0.05571
3222.93341,0.05609
3221.00466,0.05617
3219.07592,0.05653
3217.14717,0.05718
3215.21843,0.05768
3213.28968,0.05796
3211.36094,0.05832
3209.43219,0.05886
3207.50345,0.05949
3205.57470,0.06012
3203.64596,0.06052
3201.71721,0.06052
3199.78846,0.06041
3197.85972,0.06057
3195.93097,0.06092
3194.00223,0.06121
3192.07348,0.06156
3190.14474,0.06227
3188.21599,0.06323
3186.28725,0.06387
3184.35850,0.06409
3182.42976,0.06435
3180.50101,0.06487
3178.57227,0.06550
3176.64352,0.06606
3174.71478,0.06647
3172.78603,0.06685
3170.85729,0.06740
3168.92854,0.06812
3166.99979,0.06887
3165.07105,0.06937
3163.14230,0.06956
3161.21356,0.06992
3159.28481,0.07068
3157.35607,0.07148
3155.42732,0.07200
3153.49858,0.07226
3151.56983,0.07248
3149.64109,0.07271
3147.71234,0.07295
3145.78360,0.07337
3143.85485,0.07386
3141.92611,0.07407
3139.99736,0.07416
3138.06861,0.07453
3136.13987,0.07497
3134.21112,0.07515
3132.28238,0.07531
3130.35363,0.07579
3128.42489,0.07637
3126.49614,0.07670
3124.56740,0.07692
3122.63865,0.07722
3120.70991,0.07746
3118.78116,0.07771
3116.85242,0.07802
3114.92367,0.07823
3112.99493,0.07841
3111.06618,0.07877
3109.13744,0.07917
3107.20869,0.07917
3105.27994,0.07888
3103.35120,0.07875
3101.42245,0.07859
3099.49371,0.07825
3097.56496,0.07788
3095.63622,0.07746
3093.70747,0.07713
3091.77873,0.07704
3089.84998,0.07692
3087.92124,0.07654
3085.99249,0.07605
3084.06375,0.07564
3082.13500,0.07529
3080.20626,0.07505
3078.27751,0.07492
3076.34877,0.07483
3074.42002,0.07470
3072.49127,0.07457
3070.56253,0.07455
3068.63378,0.07459
3066.70504,0.07465
3064.77629,0.07479
3062.84755,0.07486
3060.91880,0.07498
3058.99006,0.07518
3057.06131,0.07519
3055.13257,0.07513
3053.20382,0.07532
3051.27508,0.07572
3049.34633,0.07621
3047.41759,0.07655
3045.48884,0.07666
3043.56009,0.07664
3041.63135,0.07640
3039.70260,0.07604
3037.77386,0.07572
3035.84511,0.07537
3033.91637,0.07504
3031.98762,0.07471
3030.05888,0.07439
3028.13013,0.07427
3026.20139,0.07444
3024.27264,0.07463
3022.34390,0.07465
3020.41515,0.07442
3018.48641,0.07394
3016.55766,0.07336
3014.62892,0.07266
3012.70017,0.07153
3010.77142,0.06994
3008.84268,0.06824
3006.91393,0.06649
3004.98519,0.06434
3003.05644,0.06171
3001.12770,0.05888
2999.19895,0.05601
2997.27021,0.05321
2995.34146,0.05086
2993.41272,0.04893
2991.48397,0.04704
2989.55523,0.04530
2987.62648,0.04401
2985.69774,0.04298
2983.76899,0.04184
2981.84025,0.04081
2979.91150,0.04022
2977.98275,0.03977
2976.05401,0.03930
2974.12526,0.03915
2972.19652,0.03944
2970.26777,0.03998
2968.33903,0.04064
2966.41028,0.04143
2964.48154,0.04234
2962.55279,0.04345
2960.62405,0.04466
2958.69530,0.04555
2956.76656,0.04602
2954.83781,0.04619
2952.90907,0.04604
2950.98032,0.04572
2949.05157,0.04530
2947.12283,0.04467
2945.19408,0.04404
2943.26534,0.04350
2941.33659,0.04275
2939.40785,0.04189
2937.47910,0.04124
2935.55036,0.04082
2933.62161,0.04055
2931.69287,0.04046
2929.76412,0.04057
2927.83538,0.04083
2925.90663,0.04101
2923.97789,0.04111
2922.04914,0.04128
2920.12040,0.04149
2918.19165,0.04168
2916.26290,0.04163
2914.33416,0.04143
2912.40541,0.04141
2910.47667,0.04147
2908.54792,0.04147
2906.61918,0.04156
2904.69043,0.04170
2902.76169,0.04176
2900.83294,0.04178
2898.90420,0.04175
2896.97545,0.04154
2895.04671,0.04132
2893.11796,0.04143
2891.18922,0.04179
2889.26047,0.04197
2887.33172,0.04197
2885.40298,0.04199
2883.47423,0.04204
2881.54549,0.04205
2879.61674,0.04201
2877.68800,0.04193
2875.75925,0.04186
2873.83051,0.04187
2871.90176,0.04198
2869.97302,0.04217
2868.04427,0.04252
2866.11553,0.04294
2864.18678,0.04331
2862.25804,0.04364
2860.32929,0.04388
2858.40055,0.04410
2856.47180,0.04460
2854.54305,0.04546
2852.61431,0.04645
2850.68556,0.04749
2848.75682,0.04862
2846.82807,0.04981
2844.89933,0.05103
2842.97058,0.05234
2841.04184,0.05396
2839.11309,0.05586
2837.18435,0.05780
2835.25560,0.05987
2833.32686,0.06223
2831.39811,0.06457
2829.46937,0.06664
2827.54062,0.06849
2825.61188,0.07008
2823.68313,0.07134
2821.75438,0.07244
2819.82564,0.07358
2817.89689,0.07471
2815.96815,0.07561
2814.03940,0.07624
2812.11066,0.07688
2810.18191,0.07768
2808.25317,0.07849
2806.32442,0.07907
2804.39568,0.07934
2802.46693,0.07936
2800.53819,0.07935
2798.60944,0.07950
2796.68070,0.07991
2794.75195,0.08055
2792.82320,0.08133
2790.89446,0.08222
2788.96571,0.08307
2787.03697,0.08369
2785.10822,0.08418
2783.17948,0.08485
2781.25073,0.08577
2779.32199,0.08674
2777.39324,0.08775
2775.46450,0.08890
2773.53575,0.09001
2771.60701,0.09089
2769.67826,0.09173
2767.74952,0.09272
2765.82077,0.09388
2763.89203,0.09510
2761.96328,0.09627
2760.03453,0.09741
2758.10579,0.09858
2756.17704,0.09963
2754.24830,0.10057
2752.31955,0.10161
2750.39081,0.10287
2748.46206,0.10416
2746.53332,0.10514
2744.60457,0.10577
2742.67583,0.10631
2740.74708,0.10699
2738.81834,0.10781
2736.88959,0.10872
2734.96085,0.10983
2733.03210,0.11131
2731.10336,0.11301
2729.17461,0.11455
2727.24586,0.11599
2725.31712,0.11771
2723.38837,0.11989
2721.45963,0.12246
2719.53088,0.12520
2717.60214,0.12777
2715.67339,0.12994
2713.74465,0.13178
2711.81590,0.13356
2709.88716,0.13532
2707.95841,0.13693
2706.02967,0.13842
2704.10092,0.13996
2702.17218,0.14172
2700.24343,0.14380
2698.31468,0.14601
2696.38594,0.14807
2694.45719,0.14997
2692.52845,0.15191
2690.59970,0.15391
2688.67096,0.15568
2686.74221,0.15710
2684.81347,0.15823
2682.88472,0.15909
2680.95598,0.15972
2679.02723,0.16027
2677.09849,0.16088
2675.16974,0.16149
2673.24100,0.16208
2671.31225,0.16283
2669.38351,0.16381
2667.45476,0.16504
2665.52601,0.16651
2663.59727,0.16817
2661.66852,0.17001
2659.73978,0.17182
2657.81103,0.17335
2655.88229,0.17463
2653.95354,0.17571
2652.02480,0.17657
2650.09605,0.17731
2648.16731,0.17793
2646.23856,0.17843
2644.30982,0.17905
2642.38107,0.17983
2640.45233,0.18078
2638.52358,0.18207
2636.59484,0.18366
2634.66609,0.18532
2632.73734,0.18714
2630.80860,0.18926
2628.87985,0.19143
2626.95111,0.19351
2625.02236,0.19558
2623.09362,0.19757
2621.16487,0.19932
2619.23613,0.20070
2617.30738,0.20160
2615.37864,0.20202
2613.44989,0.20205
2611.52115,0.20183
2609.59240,0.20146
2607.66366,0.20114
2605.73491,0.20085
2603.80616,0.20043
2601.87742,0.19993
2599.94867,0.19952
2598.01993,0.19930
2596.09118,0.19934
2594.16244,0.19954
2592.23369,0.19965
2590.30495,0.19968
2588.37620,0.19994
2586.44746,0.20071
2584.51871,0.20209
2582.58997,0.20397
2580.66122,0.20609
2578.73248,0.20847
2576.80373,0.21138
2574.87499,0.21492
2572.94624,0.21891
2571.01749,0.22299
2569.08875,0.22702
2567.16000,0.23093
2565.23126,0.23460
2563.30251,0.23806
2561.37377,0.24123
2559.44502,0.24376
2557.51628,0.24562
2555.58753,0.24703
2553.65879,0.24827
2551.73004,0.24950
2549.80130,0.25071
2547.87255,0.25179
2545.94381,0.25266
2544.01506,0.25330
2542.08631,0.25394
2540.15757,0.25483
2538.22882,0.25592
2536.30008,0.25709
2534.37133,0.25832
2532.44259,0.25953
2530.51384,0.26064
2528.58510,0.26156
2526.65635,0.26225
2524.72761,0.26296
2522.79886,0.26386
2520.87012,0.26473
2518.94137,0.26533
2517.01263,0.26575
2515.08388,0.26602
2513.15514,0.26608
2511.22639,0.26609
2509.29764,0.26621
2507.36890,0.26629
2505.44015,0.26620
2503.51141,0.26603
2501.58266,0.26589
2499.65392,0.26573
2497.72517,0.26553
2495.79643,0.26542
2493.86768,0.26545
2491.93894,0.26555
2490.01019,0.26563
2488.08145,0.26573
2486.15270,0.26580
2484.22396,0.26576
2482.29521,0.26570
2480.36647,0.26561
2478.43772,0.26549
2476.50897,0.26543
2474.58023,0.26539
2472.65148,0.26546
2470.72274,0.26583
2468.79399,0.26651
2466.86525,0.26731
2464.93650,0.26806
2463.00776,0.26873
2461.07901,0.26935
2459.15027,0.26987
2457.22152,0.27027
2455.29278,0.27082
2453.36403,0.27165
2451.43529,0.27258
2449.50654,0.27353
2447.57779,0.27450
2445.64905,0.27544
2443.72030,0.27643
2441.79156,0.27765
2439.86281,0.27890
2437.93407,0.28002
2436.00532,0.28110
2434.07658,0.28218
2432.14783,0.28315
2430.21909,0.28399
2428.29034,0.28472
2426.36160,0.28539
2424.43285,0.28603
2422.50411,0.28656
2420.57536,0.28673
2418.64662,0.28639
2416.71787,0.28570
2414.78912,0.28496
2412.86038,0.28416
2410.93163,0.28330
2409.00289,0.28244
2407.07414,0.28155
2405.14540,0.28058
2403.21665,0.27970
2401.28791,0.27896
2399.35916,0.27822
2397.43042,0.27739
2395.50167,0.27636
2393.57293,0.27526
2391.64418,0.27438
2389.71544,0.27360
2387.78669,0.27264
2385.85795,0.27161
2383.92920,0.27078
2382.00045,0.27023
2380.07171,0.26981
2378.14296,0.26929
2376.21422,0.26859
2374.28547,0.26791
2372.35673,0.26740
2370.42798,0.26694
2368.49924,0.26653
2366.57049,0.26621
2364.64175,0.26581
2362.71300,0.26533
2360.78426,0.26494
2358.85551,0.26460
2356.92677,0.26428
2354.99802,0.26402
2353.06927,0.26359
2351.14053,0.26288
2349.21178,0.26202
2347.28304,0.26102
2345.35429,0.25982
2343.42555,0.25851
2341.49680,0.25723
2339.56806,0.25600
2337.63931,0.25459
2335.71057,0.25279
2333.78182,0.25064
2331.85308,0.24822
2329.92433,0.24554
2327.99559,0.24262
2326.06684,0.23949
2324.13810,0.23625
2322.20935,0.23283
2320.28060,0.22907
2318.35186,0.22498
2316.42311,0.22062
2314.49437,0.21599
2312.56562,0.21108
2310.63688,0.20586
2308.70813,0.20031
2306.77939,0.19441
2304.85064,0.18827
2302.92190,0.18189
2300.99315,0.17509
2299.06441,0.16795
2297.13566,0.16082
2295.20692,0.15368
2293.27817,0.14637
2291.34943,0.13904
2289.42068,0.13199
2287.49193,0.12532
2285.56319,0.11902
2283.63444,0.11328
2281.70570,0.10840
2279.77695,0.10449
2277.84821,0.10157
2275.91946,0.09972
2273.99072,0.09902
2272.06197,0.09969
2270.13323,0.10180
2268.20448,0.10513
2266.27574,0.10947
2264.34699,0.11482
2262.41825,0.12110
2260.48950,0.12811
2258.56075,0.13537
2256.63201,0.14245
2254.70326,0.14937
2252.77452,0.15632
2250.84577,0.16306
2248.91703,0.16920
2246.98828,0.17471
2245.05954,0.17968
2243.13079,0.18400
2241.20205,0.18778
2239.27330,0.19119
2237.34456,0.19429
2235.41581,0.19729
2233.48707,0.20038
2231.55832,0.20336
2229.62958,0.20585
2227.70083,0.20780
2225.77208,0.20944
2223.84334,0.21097
2221.91459,0.21239
2219.98585,0.21377
2218.05710,0.21513
2216.12836,0.21642
2214.19961,0.21766
2212.27087,0.21895
2210.34212,0.22024
2208.41338,0.22150
2206.48463,0.22279
2204.55589,0.22413
2202.62714,0.22547
2200.69840,0.22665
2198.76965,0.22754
2196.84090,0.22826
2194.91216,0.22897
2192.98341,0.22978
2191.05467,0.23059
2189.12592,0.23128
2187.19718,0.23188
2185.26843,0.23250
2183.33969,0.23307
2181.41094,0.23352
2179.48220,0.23391
2177.55345,0.23432
2175.62471,0.23474
2173.69596,0.23516
2171.76722,0.23556
2169.83847,0.23590
2167.90973,0.23614
2165.98098,0.23642
2164.05223,0.23691
2162.12349,0.23750
2160.19474,0.23800
2158.26600,0.23841
2156.33725,0.23882
2154.40851,0.23936
2152.47976,0.23999
2150.55102,0.24062
2148.62227,0.24130
2146.69353,0.24207
2144.76478,0.24271
2142.83604,0.24319
2140.90729,0.24367
2138.97855,0.24419
2137.04980,0.24473
2135.12106,0.24532
2133.19231,0.24589
2131.26356,0.24644
2129.33482,0.24691
2127.40607,0.24729
2125.47733,0.24769
2123.54858,0.24809
2121.61984,0.24848
2119.69109,0.24886
2117.76235,0.24914
2115.83360,0.24945
2113.90486,0.24982
2111.97611,0.25005
2110.04737,0.25012
2108.11862,0.25018
2106.18988,0.25020
2104.26113,0.25002
2102.33238,0.24962
2100.40364,0.24917
2098.47489,0.24875
2096.54615,0.24823
2094.61740,0.24759
2092.68866,0.24695
2090.75991,0.24639
2088.83117,0.24590
2086.90242,0.24541
2084.97368,0.24484
2083.04493,0.24425
2081.11619,0.24366
2079.18744,0.24298
2077.25870,0.24220
2075.32995,0.24143
2073.40121,0.24083
2071.47246,0.24035
2069.54371,0.23986
2067.61497,0.23932
2065.68622,0.23867
2063.75748,0.23798
2061.82873,0.23745
2059.89999,0.23712
2057.97124,0.23673
2056.04250,0.23599
2054.11375,0.23496
2052.18501,0.23395
2050.25626,0.23309
2048.32752,0.23221
2046.39877,0.23107
2044.47003,0.22964
2042.54128,0.22810
2040.61254,0.22654
2038.68379,0.22497
2036.75504,0.22347
2034.82630,0.22208
2032.89755,0.22066
2030.96881,0.21928
2029.04006,0.21818
2027.11132,0.21724
2025.18257,0.21619
2023.25383,0.21516
2021.32508,0.21439
2019.39634,0.21387
2017.46759,0.21345
2015.53885,0.21311
2013.61010,0.21286
2011.68136,0.21271
2009.75261,0.21273
2007.82386,0.21290
2005.89512,0.21312
2003.96637,0.21338
2002.03763,0.21372
2000.10888,0.21419
1998.18014,0.21461
1996.25139,0.21490
1994.32265,0.21525
1992.39390,0.21570
1990.46516,0.21602
1988.53641,0.21617
1986.60767,0.21631
1984.67892,0.21644
1982.75018,0.21647
1980.82143,0.21644
1978.89269,0.21645
1976.96394,0.21643
1975.03519,0.21633
1973.10645,0.21635
1971.17770,0.21657
1969.24896,0.21682
1967.32021,0.21686
1965.39147,0.21664
1963.46272,0.21638
1961.53398,0.21625
1959.60523,0.21615
1957.67649,0.21612
1955.74774,0.21624
1953.81900,0.21628
1951.89025,0.21606
1949.96151,0.21581
1948.03276,0.21563
1946.10402,0.21541
1944.17527,0.21514
1942.24652,0.21488
1940.31778,0.21462
1938.38903,0.21436
1936.46029,0.21410
1934.53154,0.21381
1932.60280,0.21340
1930.67405,0.21274
1928.74531,0.21193
1926.81656,0.21121
1924.88782,0.21068
1922.95907,0.21012
1921.03033,0.20958
1919.10158,0.20922
1917.17284,0.20899
1915.24409,0.20891
1913.31534,0.20901
1911.38660,0.20922
1909.45785,0.20943
1907.52911,0.20968
1905.60036,0.21009
1903.67162,0.21050
1901.74287,0.21075
1899.81413,0.21081
1897.88538,0.21066
1895.95664,0.21048
1894.02789,0.21046
1892.09915,0.21047
1890.17040,0.21031
1888.24166,0.21012
1886.31291,0.21017
1884.38417,0.21046
1882.45542,0.21086
1880.52667,0.21132
1878.59793,0.21183
1876.66918,0.21232
1874.74044,0.21273
1872.81169,0.21309
1870.88295,0.21337
1868.95420,0.21351
1867.02546,0.21357
1865.09671,0.21363
1863.16797,0.21351
1861.23922,0.21321
1859.31048,0.21290
1857.38173,0.21252
1855.45299,0.21196
1853.52424,0.21132
1851.59549,0.21075
1849.66675,0.21018
1847.73800,0.20950
1845.80926,0.20874
1843.88051,0.20790
1841.95177,0.20683
1840.02302,0.20553
1838.09428,0.20418
1836.16553,0.20293
1834.23679,0.20176
1832.30804,0.20046
1830.37930,0.19893
1828.45055,0.19736
1826.52181,0.19579
1824.59306,0.19405
1822.66432,0.19226
1820.73557,0.19044
1818.80682,0.18831
1816.87808,0.18591
1814.94933,0.18350
1813.02059,0.18115
1811.09184,0.17864
1809.16310,0.17596
1807.23435,0.17325
1805.30561,0.17049
1803.37686,0.16762
1801.44812,0.16461
1799.51937,0.16159
1797.59063,0.15854
1795.66188,0.15546
1793.73314,0.15236
1791.80439,0.14917
1789.87565,0.14611
1787.94690,0.14339
1786.01815,0.14082
1784.08941,0.13817
1782.16066,0.13551
1780.23192,0.13295
1778.30317,0.13063
1776.37443,0.12857
1774.44568,0.12648
1772.51694,0.12388
1770.58819,0.12084
1768.65945,0.11764
1766.73070,0.11426
1764.80196,0.11059
1762.87321,0.10603
1760.94447,0.10050
1759.01572,0.09491
1757.08697,0.08884
1755.15823,0.08200
1753.22948,0.07484
1751.30074,0.06710
1749.37199,0.05933
1747.44325,0.05281
1745.51450,0.04762
1743.58576,0.04343
1741.65701,0.04006
1739.72827,0.03743
1737.79952,0.03572
1735.87078,0.03465
1733.94203,0.03374
1732.01329,0.03320
1730.08454,0.03306
1728.15580,0.03309
1726.22705,0.03336
1724.29830,0.03382
1722.36956,0.03428
1720.44081,0.03478
1718.51207,0.03529
1716.58332,0.03570
1714.65458,0.03615
1712.72583,0.03660
1710.79709,0.03688
1708.86834,0.03714
1706.93960,0.03747
1705.01085,0.03772
1703.08211,0.03780
1701.15336,0.03785
1699.22462,0.03796
1697.29587,0.03805
1695.36713,0.03799
1693.43838,0.03797
1691.50963,0.03812
1689.58089,0.03828
1687.65214,0.03842
1685.72340,0.03844
1683.79465,0.03813
1681.86591,0.03761
1679.93716,0.03714
1678.00842,0.03674
1676.07967,0.03632
1674.15093,0.03588
1672.22218,0.03561
1670.29344,0.03542
1668.36469,0.03519
1666.43595,0.03496
1664.50720,0.03453
1662.57845,0.03380
1660.64971,0.03320
1658.72096,0.03292
1656.79222,0.03274
1654.86347,0.03238
1652.93473,0.03156
1651.00598,0.03087
1649.07724,0.03078
1647.14849,0.03074
1645.21975,0.03043
1643.29100,0.03032
1641.36226,0.03068
1639.43351,0.03134
1637.50477,0.03231
1635.57602,0.03371
1633.64728,0.03497
1631.71853,0.03581
1629.78978,0.03648
1627.86104,0.03690
1625.93229,0.03696
1624.00355,0.03677
1622.07480,0.03633
1620.14606,0.03583
1618.21731,0.03531
1616.28857,0.03468
1614.35982,0.03413
1612.43108,0.03371
1610.50233,0.03332
1608.57359,0.03292
1606.64484,0.03260
1604.71610,0.03251
1602.78735,0.03258
1600.85861,0.03264
1598.92986,0.03283
1597.00111,0.03320
1595.07237,0.03352
1593.14362,0.03376
1591.21488,0.03408
1589.28613,0.03447
1587.35739,0.03473
1585.42864,0.03482
1583.49990,0.03488
1581.57115,0.03493
1579.64241,0.03503
1577.71366,0.03492
1575.78492,0.03407
1573.85617,0.03289
1571.92743,0.03196
1569.99868,0.03115
1568.06993,0.03062
1566.14119,0.03040
1564.21244,0.03033
1562.28370,0.03049
1560.35495,0.03066
1558.42621,0.03044
1556.49746,0.03015
1554.56872,0.03021
1552.63997,0.03064
1550.71123,0.03116
1548.78248,0.03152
1546.85374,0.03191
1544.92499,0.03238
1542.99625,0.03278
1541.06750,0.03315
1539.13876,0.03350
1537.21001,0.03377
1535.28126,0.03410
1533.35252,0.03442
1531.42377,0.03478
1529.49503,0.03525
1527.56628,0.03569
1525.63754,0.03604
1523.70879,0.03628
1521.78005,0.03646
1519.85130,0.03686
1517.92256,0.03728
1515.99381,0.03733
1514.06507,0.03712
1512.13632,0.03699
1510.20758,0.03709
1508.27883,0.03743
1506.35008,0.03779
1504.42134,0.03810
1502.49259,0.03854
1500.56385,0.03903
1498.63510,0.03927
1496.70636,0.03921
1494.77761,0.03916
1492.84887,0.03915
1490.92012,0.03904
1488.99138,0.03890
1487.06263,0.03885
1485.13389,0.03883
1483.20514,0.03874
1481.27640,0.03843
1479.34765,0.03798
1477.41891,0.03770
1475.49016,0.03773
1473.56141,0.03798
1471.63267,0.03814
1469.70392,0.03822
1467.77518,0.03832
1465.84643,0.03839
1463.91769,0.03840
1461.98894,0.03835
1460.06020,0.03826
1458.13145,0.03807
1456.20271,0.03776
1454.27396,0.03758
1452.34522,0.03765
1450.41647,0.03790
1448.48773,0.03837
1446.55898,0.03897
1444.63024,0.03960
1442.70149,0.04035
1440.77274,0.04127
1438.84400,0.04228
1436.91525,0.04318
1434.98651,0.04390
1433.05776,0.04453
1431.12902,0.04500
1429.20027,0.04501
1427.27153,0.04448
1425.34278,0.04383
1423.41404,0.04327
1421.48529,0.04266
1419.55655,0.04184
1417.62780,0.04103
1415.69906,0.04059
1413.77031,0.04035
1411.84156,0.04008
1409.91282,0.03996
1407.98407,0.04027
1406.05533,0.04086
1404.12658,0.04131
1402.19784,0.04152
1400.26909,0.04168
1398.34035,0.04188
1396.41160,0.04205
1394.48286,0.04193
1392.55411,0.04156
1390.62537,0.04113
1388.69662,0.04054
1386.76788,0.03970
1384.83913,0.03864
1382.91039,0.03752
1380.98164,0.03656
1379.05289,0.03590
1377.12415,0.03562
1375.19540,0.03574
1373.26666,0.03624
1371.33791,0.03730
1369.40917,0.03893
1367.48042,0.04079
1365.55168,0.04262
1363.62293,0.04429
1361.69419,0.04546
1359.76544,0.04586
1357.83670,0.04566
1355.90795,0.04506
1353.97921,0.04427
1352.05046,0.04343
1350.12172,0.04258
1348.19297,0.04166
1346.26422,0.04077
1344.33548,0.04015
1342.40673,0.04004
1340.47799,0.04032
1338.54924,0.04065
1336.62050,0.04088
1334.69175,0.04101
1332.76301,0.04096
1330.83426,0.04080
1328.90552,0.04044
1326.97677,0.03977
1325.04803,0.03895
1323.11928,0.03825
1321.19054,0.03776
1319.26179,0.03737
1317.33304,0.03696
1315.40430,0.03655
1313.47555,0.03622
1311.54681,0.03587
1309.61806,0.03541
1307.68932,0.03501
1305.76057,0.03474
1303.83183,0.03447
1301.90308,0.03423
1299.97434,0.03423
1298.04559,0.03451
1296.11685,0.03490
1294.18810,0.03525
1292.25936,0.03553
1290.33061,0.03568
1288.40187,0.03572
1286.47312,0.03581
1284.54437,0.03588
1282.61563,0.03585
1280.68688,0.03566
1278.75814,0.03536
1276.82939,0.03514
1274.90065,0.03508
1272.97190,0.03504
1271.04316,0.03496
1269.11441,0.03479
1267.18567,0.03464
1265.25692,0.03468
1263.32818,0.03475
1261.39943,0.03474
1259.47069,0.03468
1257.54194,0.03446
1255.61320,0.03409
1253.68445,0.03384
1251.75570,0.03374
1249.82696,0.03359
1247.89821,0.03337
1245.96947,0.03308
1244.04072,0.03263
1242.11198,0.03212
1240.18323,0.03177
1238.25449,0.03165
1236.32574,0.03167
1234.39700,0.03158
1232.46825,0.03134
1230.53951,0.03135
1228.61076,0.03180
1226.68202,0.03240
1224.75327,0.03289
1222.82452,0.03331
1220.89578,0.03383
1218.96703,0.03445
1217.03829,0.03509
1215.10954,0.03565
1213.18080,0.03589
1211.25205,0.03576
1209.32331,0.03560
1207.39456,0.03565
1205.46582,0.03577
1203.53707,0.03582
1201.60833,0.03585
1199.67958,0.03589
1197.75084,0.03593
1195.82209,0.03609
1193.89335,0.03615
1191.96460,0.03584
1190.03585,0.03526
1188.10711,0.03460
1186.17836,0.03401
1184.24962,0.03360
1182.32087,0.03311
1180.39213,0.03245
1178.46338,0.03185
1176.53464,0.03138
1174.60589,0.03095
1172.67715,0.03052
1170.74840,0.03011
1168.81966,0.02979
1166.89091,0.02967
1164.96217,0.02967
1163.03342,0.02959
1161.10467,0.02934
1159.17593,0.02917
1157.24718,0.02916
1155.31844,0.02921
1153.38969,0.02924
1151.46095,0.02911
1149.53220,0.02873
1147.60346,0.02839
1145.67471,0.02830
1143.74597,0.02834
1141.81722,0.02833
1139.88848,0.02824
1137.95973,0.02832
1136.03099,0.02853
1134.10224,0.02852
1132.17350,0.02844
1130.24475,0.02864
1128.31600,0.02895
1126.38726,0.02921
1124.45851,0.02958
1122.52977,0.03002
1120.60102,0.03031
1118.67228,0.03077
1116.74353,0.03170
1114.81479,0.03265
1112.88604,0.03328
1110.95730,0.03382
1109.02855,0.03443
1107.09981,0.03533
1105.17106,0.03655
1103.24232,0.03754
1101.31357,0.03813
1099.38483,0.03866
1097.45608,0.03915
1095.52733,0.03945
1093.59859,0.03975
1091.66984,0.04019
1089.74110,0.04072
1087.81235,0.04125
1085.88361,0.04172
1083.95486,0.04200
1082.02612,0.04221
1080.09737,0.04262
1078.16863,0.04310
1076.23988,0.04349
1074.31114,0.04399
1072.38239,0.04447
1070.45365,0.04467
1068.52490,0.04491
1066.59615,0.04536
1064.66741,0.04574
1062.73866,0.04603
1060.80992,0.04641
1058.88117,0.04684
1056.95243,0.04718
1055.02368,0.04757
1053.09494,0.04823
1051.16619,0.04897
1049.23745,0.04955
1047.30870,0.05007
1045.37996,0.05073
1043.45121,0.05133
1041.52247,0.05160
1039.59372,0.05183
1037.66498,0.05226
1035.73623,0.05255
1033.80748,0.05262
1031.87874,0.05284
1029.94999,0.05294
1028.02125,0.05253
1026.09250,0.05174
1024.16376,0.05091
1022.23501,0.05037
1020.30627,0.05022
1018.37752,0.05017
1016.44878,0.04998
1014.52003,0.04984
1012.59129,0.04991
1010.66254,0.05003
1008.73380,0.05008
1006.80505,0.05014
1004.87631,0.05043
1002.94756,0.05111
1001.01881,0.05220
999.09007,0.05387
997.16132,0.05620
995.23258,0.05891
993.30383,0.06150
991.37509,0.06383
989.44634,0.06604
987.51760,0.06801
985.58885,0.06930
983.66011,0.06992
981.73136,0.07032
979.80262,0.07069
977.87387,0.07086
975.94513,0.07055
974.01638,0.06976
972.08763,0.06889
970.15889,0.06833
968.23014,0.06828
966.30140,0.06871
964.37265,0.06957
962.44391,0.07080
960.51516,0.07199
958.58642,0.07271
956.65767,0.07306
954.72893,0.07327
952.80018,0.07322
950.87144,0.07244
948.94269,0.07048
947.01395,0.06746
945.08520,0.06397
943.15646,0.06054
941.22771,0.05767
939.29896,0.05557
937.37022,0.05406
935.44147,0.05309
933.51273,0.05265
931.58398,0.05242
929.65524,0.05222
927.72649,0.05228
925.79775,0.05268
923.86900,0.05311
921.94026,0.05363
920.01151,0.05473
918.08277,0.05629
916.15402,0.05758
914.22528,0.05832
912.29653,0.05877
910.36779,0.05918
908.43904,0.05970
906.51029,0.06049
904.58155,0.06166
902.65280,0.06308
900.72406,0.06453
898.79531,0.06570
896.86657,0.06634
894.93782,0.06648
893.00908,0.06649
891.08033,0.06660
889.15159,0.06629
887.22284,0.06514
885.29410,0.06368
883.36535,0.06261
881.43661,0.06197
879.50786,0.06149
877.57911,0.06103
875.65037,0.06064
873.72162,0.06022
871.79288,0.05963
869.86413,0.05927
867.93539,0.05947
866.00664,0.05989
864.07790,0.06027
862.14915,0.06086
860.22041,0.06180
858.29166,0.06273
856.36292,0.06324
854.43417,0.06332
852.50543,0.06337
850.57668,0.06375
848.64794,0.06424
846.71919,0.06444
844.79044,0.06425
842.86170,0.06375
840.93295,0.06301
839.00421,0.06217
837.07546,0.06129
835.14672,0.06019
833.21797,0.05880
831.28923,0.05725
829.36048,0.05578
827.43174,0.05451
825.50299,0.05317
823.57425,0.05173
821.64550,0.05067
819.71676,0.05010
817.78801,0.05007
815.85926,0.05068
813.93052,0.05144
812.00177,0.05196
810.07303,0.05266
808.14428,0.05381
806.21554,0.05532
804.28679,0.05674
802.35805,0.05766
800.42930,0.05865
798.50056,0.06020
796.57181,0.06179
794.64307,0.06287
792.71432,0.06338
790.78558,0.06334
788.85683,0.06280
786.92809,0.06226
784.99934,0.06228
783.07059,0.06264
781.14185,0.06278
779.21310,0.06251
777.28436,0.06162
775.35561,0.06010
773.42687,0.05844
771.49812,0.05721
769.56938,0.05665
767.64063,0.05636
765.71189,0.05581
763.78314,0.05488
761.85440,0.05392
759.92565,0.05346
757.99691,0.05366
756.06816,0.05454
754.13942,0.05609
752.21067,0.05793
750.28192,0.05984
748.35318,0.06187
746.42443,0.06381
744.49569,0.06552
742.56694,0.06693
740.63820,0.06788
738.70945,0.06848
736.78071,0.06915
734.85196,0.06968
732.92322,0.06952
730.99447,0.06868
729.06573,0.06730
727.13698,0.06564
725.20824,0.06414
723.27949,0.06293
721.35074,0.06180
719.42200,0.06031
717.49325,0.05834
715.56451,0.05619
713.63576,0.05443
711.70702,0.05348
709.77827,0.05321
707.84953,0.05342
705.92078,0.05403
703.99204,0.05459
702.06329,0.05451
700.13455,0.05382
698.20580,0.05293
696.27706,0.05217
694.34831,0.05174
692.41957,0.05145
690.49082,0.05115
688.56207,0.05089
686.63333,0.05050
684.70458,0.04996
682.77584,0.04973
680.84709,0.04982
678.91835,0.04967
676.98960,0.04923
675.06086,0.04870
673.13211,0.04817
671.20337,0.04777
669.27462,0.04751
667.34588,0.04749
665.41713,0.04783
663.48839,0.04844
661.55964,0.04923
659.63090,0.05006
657.70215,0.05070
655.77340,0.05133
653.84466,0.05201
651.91591,0.05250
649.98717,0.05315
648.05842,0.05432
646.12968,0.05567
644.20093,0.05661
642.27219,0.05685
640.34344,0.05683
638.41470,0.05696
636.48595,0.05676
634.55721,0.05610
632.62846,0.05610
630.69972,0.05714
628.77097,0.05814
626.84222,0.05891
624.91348,0.05991
622.98473,0.06060
621.05599,0.06053
619.12724,0.06011
617.19850,0.05963
615.26975,0.05906
613.34101,0.05848
611.41226,0.05797
609.48352,0.05743
607.55477,0.05666
605.62603,0.05591
603.69728,0.05552
601.76854,0.05613
599.83979,0.05825
