7497.03301,0.67945
7495.10426,0.67138
7493.17552,0.66662
7491.24677,0.66720
7489.31803,0.67260
7487.38928,0.67715
7485.46054,0.67598
7483.53179,0.66896
7481.60305,0.66193
7479.67430,0.66031
7477.74556,0.66323
7475.81681,0.66853
7473.88807,0.67521
7471.95932,0.67987
7470.03057,0.68011
7468.10183,0.67804
7466.17308,0.67506
7464.24434,0.67069
7462.31559,0.66685
7460.38685,0.66723
7458.45810,0.67061
7456.52936,0.67087
7454.60061,0.66792
7452.67187,0.66701
7450.74312,0.66864
7448.81438,0.66965
7446.88563,0.67001
7444.95689,0.67061
7443.02814,0.67028
7441.09940,0.66941
7439.17065,0.66885
7437.24190,0.66851
7435.31316,0.66810
7433.38441,0.66713
7431.45567,0.66694
7429.52692,0.66844
7427.59818,0.67048
7425.66943,0.67181
7423.74069,0.67028
7421.81194,0.66589
7419.88320,0.66252
7417.95445,0.66270
7416.02571,0.66614
7414.09696,0.67025
7412.16822,0.67135
7410.23947,0.67010
7408.31073,0.67002
7406.38198,0.67065
7404.45323,0.66830
7402.52449,0.66387
7400.59574,0.66196
7398.66700,0.66274
7396.73825,0.66489
7394.80951,0.66682
7392.88076,0.66529
7390.95202,0.66170
7389.02327,0.65912
7387.09453,0.66041
7385.16578,0.66688
7383.23704,0.67183
7381.30829,0.67004
7379.37955,0.66571
7377.45080,0.66359
7375.52205,0.66382
7373.59331,0.66466
7371.66456,0.66409
7369.73582,0.66012
7367.80707,0.65509
7365.87833,0.65334
7363.94958,0.65587
7362.02084,0.66074
7360.09209,0.66352
7358.16335,0.66357
7356.23460,0.66346
7354.30586,0.66265
7352.37711,0.66251
7350.44837,0.66385
7348.51962,0.66224
7346.59088,0.65573
7344.66213,0.64988
7342.73338,0.65082
7340.80464,0.65567
7338.87589,0.65825
7336.94715,0.66012
7335.01840,0.66384
7333.08966,0.66693
7331.16091,0.66621
7329.23217,0.66254
7327.30342,0.66233
7325.37468,0.66754
7323.44593,0.66878
7321.51719,0.66200
7319.58844,0.65632
7317.65970,0.65733
7315.73095,0.66080
7313.80221,0.66157
7311.87346,0.65892
7309.94471,0.65502
7308.01597,0.65159
7306.08722,0.64979
7304.15848,0.65366
7302.22973,0.66402
7300.30099,0.67185
7298.37224,0.67122
7296.44350,0.66724
7294.51475,0.66334
7292.58601,0.65777
7290.65726,0.65176
7288.72852,0.64914
7286.79977,0.64972
7284.87103,0.65151
7282.94228,0.65430
7281.01353,0.65654
7279.08479,0.65620
7277.15604,0.65358
7275.22730,0.65121
7273.29855,0.65114
7271.36981,0.65247
7269.44106,0.65386
7267.51232,0.65288
7265.58357,0.64757
7263.65483,0.64328
7261.72608,0.64572
7259.79734,0.65103
7257.86859,0.65335
7255.93985,0.65295
7254.01110,0.65311
7252.08236,0.65501
7250.15361,0.65516
7248.22486,0.65150
7246.29612,0.64679
7244.36737,0.64515
7242.43863,0.64927
7240.50988,0.65384
7238.58114,0.65221
7236.65239,0.64728
7234.72365,0.64293
7232.79490,0.63960
7230.86616,0.63918
7228.93741,0.64197
7227.00867,0.64507
7225.07992,0.64661
7223.15118,0.64533
7221.22243,0.64229
7219.29369,0.64165
7217.36494,0.64385
7215.43619,0.64537
7213.50745,0.64433
7211.57870,0.64242
7209.64996,0.64199
7207.72121,0.64272
7205.79247,0.64434
7203.86372,0.64760
7201.93498,0.65090
7200.00623,0.65101
7198.07749,0.64826
7196.14874,0.64590
7194.22000,0.64442
7192.29125,0.64274
7190.36251,0.64243
7188.43376,0.64447
7186.50501,0.64548
7184.57627,0.64333
7182.64752,0.64062
7180.71878,0.64058
7178.79003,0.64418
7176.86129,0.64756
7174.93254,0.64641
7173.00380,0.64325
7171.07505,0.64358
7169.14631,0.64739
7167.21756,0.65009
7165.28882,0.64993
7163.36007,0.64881
7161.43133,0.64860
7159.50258,0.64903
7157.57384,0.64954
7155.64509,0.65149
7153.71634,0.65296
7151.78760,0.65136
7149.85885,0.65031
7147.93011,0.65290
7146.00136,0.65550
7144.07262,0.65314
7142.14387,0.64657
7140.21513,0.64182
7138.28638,0.64273
7136.35764,0.64603
7134.42889,0.64692
7132.50015,0.64647
7130.57140,0.64922
7128.64266,0.65407
7126.71391,0.65438
7124.78516,0.64935
7122.85642,0.64585
7120.92767,0.64843
7118.99893,0.65288
7117.07018,0.65350
7115.14144,0.65205
7113.21269,0.65123
7111.28395,0.65170
7109.35520,0.65375
7107.42646,0.65488
7105.49771,0.65340
7103.56897,0.65121
7101.64022,0.65093
7099.71148,0.65129
7097.78273,0.65036
7095.85399,0.65106
7093.92524,0.65378
7091.99649,0.65477
7090.06775,0.65431
7088.13900,0.65470
7086.21026,0.65457
7084.28151,0.65279
7082.35277,0.65166
7080.42402,0.65200
7078.49528,0.65264
7076.56653,0.65300
7074.63779,0.65290
7072.70904,0.65277
7070.78030,0.65296
7068.85155,0.65439
7066.92281,0.65735
7064.99406,0.65924
7063.06532,0.65866
7061.13657,0.65656
7059.20782,0.65396
7057.27908,0.65296
7055.35033,0.65407
7053.42159,0.65483
7051.49284,0.65427
7049.56410,0.65352
7047.63535,0.65432
7045.70661,0.65593
7043.77786,0.65546
7041.84912,0.65335
7039.92037,0.65247
7037.99163,0.65425
7036.06288,0.65675
7034.13414,0.65650
7032.20539,0.65390
7030.27664,0.65298
7028.34790,0.65605
7026.41915,0.65983
7024.49041,0.65982
7022.56166,0.65589
7020.63292,0.65059
7018.70417,0.64715
7016.77543,0.64731
7014.84668,0.64927
7012.91794,0.64981
7010.98919,0.64881
7009.06045,0.64883
7007.13170,0.65019
7005.20296,0.65083
7003.27421,0.64992
7001.34547,0.64884
6999.41672,0.64866
6997.48797,0.64937
6995.55923,0.65121
6993.63048,0.65395
6991.70174,0.65497
6989.77299,0.65242
6987.84425,0.65000
6985.91550,0.65030
6983.98676,0.65073
6982.05801,0.65048
6980.12927,0.64943
6978.20052,0.64754
6976.27178,0.64718
6974.34303,0.64970
6972.41429,0.65371
6970.48554,0.65528
6968.55680,0.65266
6966.62805,0.65074
6964.69930,0.65353
6962.77056,0.65713
6960.84181,0.65708
6958.91307,0.65560
6956.98432,0.65608
6955.05558,0.65816
6953.12683,0.65981
6951.19809,0.65809
6949.26934,0.65325
6947.34060,0.65083
6945.41185,0.65300
6943.48311,0.65610
6941.55436,0.65756
6939.62562,0.65827
6937.69687,0.66004
6935.76812,0.66158
6933.83938,0.66009
6931.91063,0.65737
6929.98189,0.65630
6928.05314,0.65486
6926.12440,0.65085
6924.19565,0.64698
6922.26691,0.64777
6920.33816,0.65288
6918.40942,0.65702
6916.48067,0.65809
6914.55193,0.65819
6912.62318,0.65915
6910.69444,0.66125
6908.76569,0.66215
6906.83695,0.65994
6904.90820,0.65601
6902.97945,0.65279
6901.05071,0.65159
6899.12196,0.65165
6897.19322,0.65257
6895.26447,0.65461
6893.33573,0.65603
6891.40698,0.65590
6889.47824,0.65627
6887.54949,0.65759
6885.62075,0.65697
6883.69200,0.65446
6881.76326,0.65361
6879.83451,0.65491
6877.90577,0.65637
6875.97702,0.65671
6874.04828,0.65619
6872.11953,0.65593
6870.19078,0.65508
6868.26204,0.65343
6866.33329,0.65383
6864.40455,0.65604
6862.47580,0.65709
6860.54706,0.65644
6858.61831,0.65530
6856.68957,0.65554
6854.76082,0.65704
6852.83208,0.65750
6850.90333,0.65704
6848.97459,0.65660
6847.04584,0.65639
6845.11710,0.65732
6843.18835,0.65831
6841.25960,0.65740
6839.33086,0.65572
6837.40211,0.65496
6835.47337,0.65525
6833.54462,0.65665
6831.61588,0.65924
6829.68713,0.66182
6827.75839,0.66242
6825.82964,0.66062
6823.90090,0.65711
6821.97215,0.65330
6820.04341,0.65163
6818.11466,0.65240
6816.18592,0.65362
6814.25717,0.65369
6812.32843,0.65308
6810.39968,0.65376
6808.47093,0.65541
6806.54219,0.65703
6804.61344,0.65807
6802.68470,0.65677
6800.75595,0.65436
6798.82721,0.65421
6796.89846,0.65631
6794.96972,0.65732
6793.04097,0.65537
6791.11223,0.65270
6789.18348,0.65129
6787.25474,0.65143
6785.32599,0.65324
6783.39725,0.65433
6781.46850,0.65303
6779.53975,0.65138
6777.61101,0.64960
6775.68226,0.64803
6773.75352,0.64843
6771.82477,0.64820
6769.89603,0.64714
6767.96728,0.64867
6766.03854,0.65080
6764.10979,0.65123
6762.18105,0.65163
6760.25230,0.65191
6758.32356,0.65070
6756.39481,0.64963
6754.46607,0.64938
6752.53732,0.64844
6750.60858,0.64899
6748.67983,0.65194
6746.75108,0.65232
6744.82234,0.64848
6742.89359,0.64505
6740.96485,0.64443
6739.03610,0.64548
6737.10736,0.64692
6735.17861,0.64602
6733.24987,0.64318
6731.32112,0.64267
6729.39238,0.64392
6727.46363,0.64437
6725.53489,0.64380
6723.60614,0.64250
6721.67740,0.64147
6719.74865,0.64037
6717.81991,0.63740
6715.89116,0.63333
6713.96241,0.63121
6712.03367,0.63174
6710.10492,0.63317
6708.17618,0.63474
6706.24743,0.63557
6704.31869,0.63566
6702.38994,0.63690
6700.46120,0.63780
6698.53245,0.63574
6696.60371,0.63256
6694.67496,0.63010
6692.74622,0.62827
6690.81747,0.62764
6688.88873,0.62733
6686.95998,0.62547
6685.03123,0.62351
6683.10249,0.62406
6681.17374,0.62551
6679.24500,0.62501
6677.31625,0.62322
6675.38751,0.62193
6673.45876,0.62322
6671.53002,0.62750
6669.60127,0.62935
6667.67253,0.62572
6665.74378,0.62205
6663.81504,0.62219
6661.88629,0.62444
6659.95755,0.62747
6658.02880,0.62996
6656.10006,0.63035
6654.17131,0.62993
6652.24256,0.62949
6650.31382,0.62772
6648.38507,0.62522
6646.45633,0.62402
6644.52758,0.62448
6642.59884,0.62563
6640.67009,0.62599
6638.74135,0.62512
6636.81260,0.62545
6634.88386,0.62758
6632.95511,0.62811
6631.02637,0.62604
6629.09762,0.62343
6627.16888,0.62191
6625.24013,0.62216
6623.31139,0.62328
6621.38264,0.62410
6619.45389,0.62584
6617.52515,0.62867
6615.59640,0.62957
6613.66766,0.62828
6611.73891,0.62708
6609.81017,0.62529
6607.88142,0.62259
6605.95268,0.62111
6604.02393,0.62140
6602.09519,0.62319
6600.16644,0.62561
6598.23770,0.62677
6596.30895,0.62718
6594.38021,0.62770
6592.45146,0.62719
6590.52271,0.62603
6588.59397,0.62652
6586.66522,0.62871
6584.73648,0.62972
6582.80773,0.62875
6580.87899,0.62779
6578.95024,0.62759
6577.02150,0.62758
6575.09275,0.62731
6573.16401,0.62731
6571.23526,0.62857
6569.30652,0.63033
6567.37777,0.63068
6565.44903,0.62996
6563.52028,0.63033
6561.59154,0.63207
6559.66279,0.63369
6557.73404,0.63424
6555.80530,0.63371
6553.87655,0.63300
6551.94781,0.63288
6550.01906,0.63334
6548.09032,0.63468
6546.16157,0.63644
6544.23283,0.63678
6542.30408,0.63646
6540.37534,0.63784
6538.44659,0.64037
6536.51785,0.64239
6534.58910,0.64337
6532.66036,0.64241
6530.73161,0.64069
6528.80287,0.64162
6526.87412,0.64326
6524.94537,0.64219
6523.01663,0.64051
6521.08788,0.64076
6519.15914,0.64372
6517.23039,0.64756
6515.30165,0.64936
6513.37290,0.65000
6511.44416,0.65046
6509.51541,0.65003
6507.58667,0.64938
6505.65792,0.64867
6503.72918,0.64800
6501.80043,0.64818
6499.87169,0.64773
6497.94294,0.64567
6496.01419,0.64432
6494.08545,0.64511
6492.15670,0.64720
6490.22796,0.64844
6488.29921,0.64724
6486.37047,0.64517
6484.44172,0.64475
6482.51298,0.64616
6480.58423,0.64835
6478.65549,0.65061
6476.72674,0.65173
6474.79800,0.65136
6472.86925,0.65050
6470.94051,0.64946
6469.01176,0.64890
6467.08302,0.64919
6465.15427,0.64880
6463.22552,0.64800
6461.29678,0.64878
6459.36803,0.64997
6457.43929,0.65023
6455.51054,0.65070
6453.58180,0.65138
6451.65305,0.65115
6449.72431,0.65013
6447.79556,0.64984
6445.86682,0.65044
6443.93807,0.65050
6442.00933,0.65007
6440.08058,0.64966
6438.15184,0.64974
6436.22309,0.65134
6434.29434,0.65331
6432.36560,0.65355
6430.43685,0.65331
6428.50811,0.65391
6426.57936,0.65330
6424.65062,0.65121
6422.72187,0.64996
6420.79313,0.65029
6418.86438,0.65080
6416.93564,0.65006
6415.00689,0.64962
6413.07815,0.65124
6411.14940,0.65238
6409.22066,0.65098
6407.29191,0.64983
6405.36317,0.65149
6403.43442,0.65406
6401.50567,0.65471
6399.57693,0.65388
6397.64818,0.65317
6395.71944,0.65184
6393.79069,0.64992
6391.86195,0.64978
6389.93320,0.65110
6388.00446,0.65221
6386.07571,0.65284
6384.14697,0.65272
6382.21822,0.65241
6380.28948,0.65295
6378.36073,0.65443
6376.43199,0.65611
6374.50324,0.65627
6372.57450,0.65500
6370.64575,0.65416
6368.71700,0.65378
6366.78826,0.65380
6364.85951,0.65500
6362.93077,0.65592
6361.00202,0.65475
6359.07328,0.65221
6357.14453,0.64979
6355.21579,0.64861
6353.28704,0.64895
6351.35830,0.65032
6349.42955,0.65233
6347.50081,0.65455
6345.57206,0.65731
6343.64332,0.65934
6341.71457,0.65743
6339.78582,0.65382
6337.85708,0.65320
6335.92833,0.65426
6333.99959,0.65381
6332.07084,0.65216
6330.14210,0.65174
6328.21335,0.65253
6326.28461,0.65219
6324.35586,0.65166
6322.42712,0.65244
6320.49837,0.65300
6318.56963,0.65316
6316.64088,0.65368
6314.71214,0.65405
6312.78339,0.65339
6310.85465,0.65155
6308.92590,0.65063
6306.99715,0.65210
6305.06841,0.65371
6303.13966,0.65308
6301.21092,0.65117
6299.28217,0.65043
6297.35343,0.65181
6295.42468,0.65418
6293.49594,0.65551
6291.56719,0.65512
6289.63845,0.65423
6287.70970,0.65362
6285.78096,0.65283
6283.85221,0.65185
6281.92347,0.65140
6279.99472,0.65202
6278.06598,0.65354
6276.13723,0.65444
6274.20848,0.65389
6272.27974,0.65301
6270.35099,0.65239
6268.42225,0.65201
6266.49350,0.65200
6264.56476,0.65138
6262.63601,0.64989
6260.70727,0.64987
6258.77852,0.65181
6256.84978,0.65285
6254.92103,0.65274
6252.99229,0.65381
6251.06354,0.65591
6249.13480,0.65694
6247.20605,0.65567
6245.27730,0.65244
6243.34856,0.64932
6241.41981,0.64867
6239.49107,0.64967
6237.56232,0.65010
6235.63358,0.65083
6233.70483,0.65300
6231.77609,0.65495
6229.84734,0.65435
6227.91860,0.65169
6225.98985,0.65003
6224.06111,0.65009
6222.13236,0.65008
6220.20362,0.65015
6218.27487,0.65108
6216.34613,0.65331
6214.41738,0.65641
6212.48863,0.65726
6210.55989,0.65493
6208.63114,0.65247
6206.70240,0.65106
6204.77365,0.64966
6202.84491,0.64822
6200.91616,0.64759
6198.98742,0.64783
6197.05867,0.64862
6195.12993,0.64961
6193.20118,0.65014
6191.27244,0.65042
6189.34369,0.65160
6187.41495,0.65294
6185.48620,0.65261
6183.55746,0.65145
6181.62871,0.65047
6179.69996,0.64894
6177.77122,0.64742
6175.84247,0.64690
6173.91373,0.64757
6171.98498,0.64918
6170.05624,0.65035
6168.12749,0.65009
6166.19875,0.64957
6164.27000,0.64956
6162.34126,0.64850
6160.41251,0.64645
6158.48377,0.64581
6156.55502,0.64660
6154.62628,0.64750
6152.69753,0.64841
6150.76878,0.64848
6148.84004,0.64702
6146.91129,0.64587
6144.98255,0.64658
6143.05380,0.64817
6141.12506,0.64920
6139.19631,0.64921
6137.26757,0.64808
6135.33882,0.64623
6133.41008,0.64489
6131.48133,0.64510
6129.55259,0.64609
6127.62384,0.64579
6125.69510,0.64411
6123.76635,0.64290
6121.83761,0.64315
6119.90886,0.64401
6117.98011,0.64352
6116.05137,0.64176
6114.12262,0.64122
6112.19388,0.64178
6110.26513,0.64092
6108.33639,0.63932
6106.40764,0.63932
6104.47890,0.63971
6102.55015,0.63851
6100.62141,0.63709
6098.69266,0.63643
6096.76392,0.63553
6094.83517,0.63497
6092.90643,0.63536
6090.97768,0.63560
6089.04893,0.63536
6087.12019,0.63477
6085.19144,0.63366
6083.26270,0.63279
6081.33395,0.63292
6079.40521,0.63322
6077.47646,0.63251
6075.54772,0.63183
6073.61897,0.63246
6071.69023,0.63293
6069.76148,0.63260
6067.83274,0.63311
6065.90399,0.63437
6063.97525,0.63472
6062.04650,0.63446
6060.11776,0.63446
6058.18901,0.63399
6056.26026,0.63263
6054.33152,0.63134
6052.40277,0.63080
6050.47403,0.63081
6048.54528,0.63086
6046.61654,0.63017
6044.68779,0.62830
6042.75905,0.62627
6040.83030,0.62550
6038.90156,0.62593
6036.97281,0.62639
6035.04407,0.62585
6033.11532,0.62438
6031.18658,0.62326
6029.25783,0.62294
6027.32909,0.62206
6025.40034,0.62015
6023.47159,0.61881
6021.54285,0.61916
6019.61410,0.62032
6017.68536,0.62034
6015.75661,0.61802
6013.82787,0.61526
6011.89912,0.61444
6009.97038,0.61442
6008.04163,0.61315
6006.11289,0.61058
6004.18414,0.60833
6002.25540,0.60814
6000.32665,0.60879
5998.39791,0.60793
5996.46916,0.60621
5994.54041,0.60501
5992.61167,0.60361
5990.68292,0.60109
5988.75418,0.59834
5986.82543,0.59697
5984.89669,0.59669
5982.96794,0.59502
5981.03920,0.59105
5979.11045,0.58739
5977.18171,0.58568
5975.25296,0.58364
5973.32422,0.58004
5971.39547,0.57717
5969.46673,0.57546
5967.53798,0.57312
5965.60924,0.57013
5963.68049,0.56692
5961.75174,0.56268
5959.82300,0.55761
5957.89425,0.55294
5955.96551,0.54888
5954.03676,0.54543
5952.10802,0.54241
5950.17927,0.53930
5948.25053,0.53681
5946.32178,0.53561
5944.39304,0.53490
5942.46429,0.53408
5940.53555,0.53341
5938.60680,0.53368
5936.67806,0.53476
5934.74931,0.53590
5932.82057,0.53719
5930.89182,0.53830
5928.96307,0.53909
5927.03433,0.54047
5925.10558,0.54171
5923.17684,0.54125
5921.24809,0.53969
5919.31935,0.53845
5917.39060,0.53780
5915.46186,0.53665
5913.53311,0.53405
5911.60437,0.53135
5909.67562,0.52955
5907.74688,0.52775
5905.81813,0.52572
5903.88939,0.52342
5901.96064,0.52079
5900.03189,0.51970
5898.10315,0.52131
5896.17440,0.52322
5894.24566,0.52347
5892.31691,0.52435
5890.38817,0.52796
5888.45942,0.53207
5886.53068,0.53488
5884.60193,0.53711
5882.67319,0.53885
5880.74444,0.54043
5878.81570,0.54249
5876.88695,0.54455
5874.95821,0.54595
5873.02946,0.54706
5871.10072,0.54805
5869.17197,0.54816
5867.24322,0.54798
5865.31448,0.54858
5863.38573,0.54890
5861.45699,0.54794
5859.52824,0.54706
5857.59950,0.54783
5855.67075,0.54915
5853.74201,0.54889
5851.81326,0.54732
5849.88452,0.54636
5847.95577,0.54614
5846.02703,0.54503
5844.09828,0.54312
5842.16954,0.54212
5840.24079,0.54229
5838.31205,0.54247
5836.38330,0.54214
5834.45455,0.54129
5832.52581,0.54004
5830.59706,0.53865
5828.66832,0.53679
5826.73957,0.53532
5824.81083,0.53534
5822.88208,0.53542
5820.95334,0.53458
5819.02459,0.53372
5817.09585,0.53284
5815.16710,0.53138
5813.23836,0.52936
5811.30961,0.52731
5809.38087,0.52593
5807.45212,0.52499
5805.52337,0.52338
5803.59463,0.52127
5801.66588,0.52012
5799.73714,0.51995
5797.80839,0.51910
5795.87965,0.51729
5793.95090,0.51533
5792.02216,0.51355
5790.09341,0.51250
5788.16467,0.51200
5786.23592,0.51153
5784.30718,0.51126
5782.37843,0.51096
5780.44969,0.51036
5778.52094,0.50969
5776.59220,0.50914
5774.66345,0.50866
5772.73470,0.50791
5770.80596,0.50751
5768.87721,0.50816
5766.94847,0.50925
5765.01972,0.51026
5763.09098,0.51065
5761.16223,0.51052
5759.23349,0.51197
5757.30474,0.51544
5755.37600,0.51807
5753.44725,0.51843
5751.51851,0.51866
5749.58976,0.52056
5747.66102,0.52280
5745.73227,0.52374
5743.80352,0.52408
5741.87478,0.52488
5739.94603,0.52631
5738.01729,0.52873
5736.08854,0.53159
5734.15980,0.53325
5732.23105,0.53343
5730.30231,0.53371
5728.37356,0.53532
5726.44482,0.53813
5724.51607,0.54128
5722.58733,0.54345
5720.65858,0.54404
5718.72984,0.54421
5716.80109,0.54549
5714.87235,0.54797
5712.94360,0.55054
5711.01485,0.55240
5709.08611,0.55351
5707.15736,0.55444
5705.22862,0.55564
5703.29987,0.55632
5701.37113,0.55644
5699.44238,0.55773
5697.51364,0.56016
5695.58489,0.56155
5693.65615,0.56180
5691.72740,0.56228
5689.79866,0.56252
5687.86991,0.56214
5685.94117,0.56197
5684.01242,0.56205
5682.08368,0.56240
5680.15493,0.56300
5678.22618,0.56285
5676.29744,0.56195
5674.36869,0.56090
5672.43995,0.55963
5670.51120,0.55875
5668.58246,0.55862
5666.65371,0.55863
5664.72497,0.55877
5662.79622,0.55958
5660.86748,0.56123
5658.93873,0.56289
5657.00999,0.56348
5655.08124,0.56282
5653.15250,0.56149
5651.22375,0.56112
5649.29500,0.56259
5647.36626,0.56450
5645.43751,0.56586
5643.50877,0.56732
5641.58002,0.56899
5639.65128,0.57013
5637.72253,0.57043
5635.79379,0.57043
5633.86504,0.57082
5631.93630,0.57143
5630.00755,0.57225
5628.07881,0.57359
5626.15006,0.57497
5624.22132,0.57596
5622.29257,0.57623
5620.36383,0.57598
5618.43508,0.57639
5616.50633,0.57781
5614.57759,0.57934
5612.64884,0.58041
5610.72010,0.58150
5608.79135,0.58273
5606.86261,0.58335
5604.93386,0.58320
5603.00512,0.58268
5601.07637,0.58216
5599.14763,0.58177
5597.21888,0.58124
5595.29014,0.58064
5593.36139,0.58065
5591.43265,0.58153
5589.50390,0.58282
5587.57516,0.58360
5585.64641,0.58338
5583.71766,0.58280
5581.78892,0.58222
5579.86017,0.58165
5577.93143,0.58126
5576.00268,0.58067
5574.07394,0.57959
5572.14519,0.57895
5570.21645,0.57943
5568.28770,0.57985
5566.35896,0.57911
5564.43021,0.57813
5562.50147,0.57824
5560.57272,0.57922
5558.64398,0.57974
5556.71523,0.57978
5554.78648,0.58063
5552.85774,0.58207
5550.92899,0.58260
5549.00025,0.58235
5547.07150,0.58224
5545.14276,0.58183
5543.21401,0.58111
5541.28527,0.58108
5539.35652,0.58174
5537.42778,0.58225
5535.49903,0.58208
5533.57029,0.58135
5531.64154,0.58097
5529.71280,0.58147
5527.78405,0.58230
5525.85531,0.58301
5523.92656,0.58381
5521.99781,0.58433
5520.06907,0.58375
5518.14032,0.58273
5516.21158,0.58254
5514.28283,0.58290
5512.35409,0.58323
5510.42534,0.58373
5508.49660,0.58440
5506.56785,0.58467
5504.63911,0.58427
5502.71036,0.58381
5500.78162,0.58415
5498.85287,0.58528
5496.92413,0.58635
5494.99538,0.58682
5493.06664,0.58737
5491.13789,0.58848
5489.20914,0.58933
5487.28040,0.58949
5485.35165,0.58946
5483.42291,0.58933
5481.49416,0.58891
5479.56542,0.58892
5477.63667,0.59006
5475.70793,0.59105
5473.77918,0.59108
5471.85044,0.59094
5469.92169,0.59091
5467.99295,0.59097
5466.06420,0.59064
5464.13546,0.58941
5462.20671,0.58835
5460.27796,0.58849
5458.34922,0.58912
5456.42047,0.58930
5454.49173,0.58913
5452.56298,0.58910
5450.63424,0.58948
5448.70549,0.58973
5446.77675,0.58954
5444.84800,0.58950
5442.91926,0.59005
5440.99051,0.59109
5439.06177,0.59189
5437.13302,0.59220
5435.20428,0.59254
5433.27553,0.59279
5431.34679,0.59300
5429.41804,0.59407
5427.48929,0.59631
5425.56055,0.59815
5423.63180,0.59874
5421.70306,0.59921
5419.77431,0.60021
5417.84557,0.60133
5415.91682,0.60223
5413.98808,0.60308
5412.05933,0.60395
5410.13059,0.60451
5408.20184,0.60493
5406.27310,0.60547
5404.34435,0.60659
5402.41561,0.60867
5400.48686,0.61055
5398.55811,0.61075
5396.62937,0.60991
5394.70062,0.61001
5392.77188,0.61155
5390.84313,0.61311
5388.91439,0.61379
5386.98564,0.61405
5385.05690,0.61452
5383.12815,0.61523
5381.19941,0.61576
5379.27066,0.61585
5377.34192,0.61562
5375.41317,0.61535
5373.48443,0.61514
5371.55568,0.61518
5369.62694,0.61575
5367.69819,0.61655
5365.76944,0.61649
5363.84070,0.61549
5361.91195,0.61481
5359.98321,0.61512
5358.05446,0.61620
5356.12572,0.61724
5354.19697,0.61769
5352.26823,0.61783
5350.33948,0.61794
5348.41074,0.61775
5346.48199,0.61734
5344.55325,0.61723
5342.62450,0.61734
5340.69576,0.61732
5338.76701,0.61736
5336.83827,0.61750
5334.90952,0.61748
5332.98077,0.61741
5331.05203,0.61798
5329.12328,0.61885
5327.19454,0.61859
5325.26579,0.61759
5323.33705,0.61730
5321.40830,0.61801
5319.47956,0.61925
5317.55081,0.62006
5315.62207,0.62001
5313.69332,0.61975
5311.76458,0.61965
5309.83583,0.61966
5307.90709,0.62007
5305.97834,0.62044
5304.04959,0.62027
5302.12085,0.62016
5300.19210,0.62034
5298.26336,0.62031
5296.33461,0.61993
5294.40587,0.61948
5292.47712,0.61915
5290.54838,0.61894
5288.61963,0.61863
5286.69089,0.61815
5284.76214,0.61814
5282.83340,0.61832
5280.90465,0.61768
5278.97591,0.61628
5277.04716,0.61494
5275.11842,0.61492
5273.18967,0.61594
5271.26092,0.61569
5269.33218,0.61432
5267.40343,0.61370
5265.47469,0.61353
5263.54594,0.61299
5261.61720,0.61244
5259.68845,0.61214
5257.75971,0.61216
5255.83096,0.61247
5253.90222,0.61267
5251.97347,0.61247
5250.04473,0.61208
5248.11598,0.61184
5246.18724,0.61138
5244.25849,0.61042
5242.32975,0.60955
5240.40100,0.60904
5238.47225,0.60870
5236.54351,0.60877
5234.61476,0.60896
5232.68602,0.60863
5230.75727,0.60825
5228.82853,0.60823
5226.89978,0.60801
5224.97104,0.60763
5223.04229,0.60759
5221.11355,0.60798
5219.18480,0.60804
5217.25606,0.60711
5215.32731,0.60613
5213.39857,0.60587
5211.46982,0.60575
5209.54107,0.60567
5207.61233,0.60611
5205.68358,0.60653
5203.75484,0.60634
5201.82609,0.60608
5199.89735,0.60622
5197.96860,0.60625
5196.03986,0.60577
5194.11111,0.60552
5192.18237,0.60599
5190.25362,0.60645
5188.32488,0.60645
5186.39613,0.60633
5184.46739,0.60651
5182.53864,0.60689
5180.60990,0.60706
5178.68115,0.60757
5176.75240,0.60832
5174.82366,0.60820
5172.89491,0.60747
5170.96617,0.60731
5169.03742,0.60783
5167.10868,0.60848
5165.17993,0.60894
5163.25119,0.60922
5161.32244,0.60935
5159.39370,0.60919
5157.46495,0.60894
5155.53621,0.60886
5153.60746,0.60851
5151.67872,0.60819
5149.74997,0.60854
5147.82123,0.60877
5145.89248,0.60805
5143.96373,0.60718
5142.03499,0.60722
5140.10624,0.60793
5138.17750,0.60857
5136.24875,0.60849
5134.32001,0.60748
5132.39126,0.60648
5130.46252,0.60629
5128.53377,0.60678
5126.60503,0.60726
5124.67628,0.60671
5122.74754,0.60554
5120.81879,0.60532
5118.89005,0.60574
5116.96130,0.60577
5115.03255,0.60554
5113.10381,0.60532
5111.17506,0.60523
5109.24632,0.60505
5107.31757,0.60434
5105.38883,0.60323
5103.46008,0.60219
5101.53134,0.60147
5099.60259,0.60103
5097.67385,0.60079
5095.74510,0.60065
5093.81636,0.60041
5091.88761,0.60002
5089.95887,0.59938
5088.03012,0.59834
5086.10138,0.59754
5084.17263,0.59742
5082.24388,0.59703
5080.31514,0.59586
5078.38639,0.59486
5076.45765,0.59459
5074.52890,0.59412
5072.60016,0.59304
5070.67141,0.59200
5068.74267,0.59114
5066.81392,0.59031
5064.88518,0.58984
5062.95643,0.58965
5061.02769,0.58936
5059.09894,0.58880
5057.17020,0.58804
5055.24145,0.58740
5053.31270,0.58696
5051.38396,0.58616
5049.45521,0.58464
5047.52647,0.58307
5045.59772,0.58195
5043.66898,0.58114
5041.74023,0.58072
5039.81149,0.58046
5037.88274,0.57992
5035.95400,0.57904
5034.02525,0.57801
5032.09651,0.57710
5030.16776,0.57620
5028.23902,0.57537
5026.31027,0.57482
5024.38153,0.57390
5022.45278,0.57245
5020.52403,0.57165
5018.59529,0.57149
5016.66654,0.57087
5014.73780,0.56987
5012.80905,0.56865
5010.88031,0.56710
5008.95156,0.56555
5007.02282,0.56419
5005.09407,0.56340
5003.16533,0.56328
5001.23658,0.56323
4999.30784,0.56305
4997.37909,0.56262
4995.45035,0.56131
4993.52160,0.55923
4991.59286,0.55731
4989.66411,0.55602
4987.73536,0.55501
4985.80662,0.55381
4983.87787,0.55236
4981.94913,0.55072
4980.02038,0.54839
4978.09164,0.54567
4976.16289,0.54392
4974.23415,0.54337
4972.30540,0.54278
4970.37666,0.54087
4968.44791,0.53785
4966.51917,0.53525
4964.59042,0.53341
4962.66168,0.53134
4960.73293,0.52916
4958.80418,0.52733
4956.87544,0.52540
4954.94669,0.52326
4953.01795,0.52157
4951.08920,0.52013
4949.16046,0.51812
4947.23171,0.51583
4945.30297,0.51394
4943.37422,0.51217
4941.44548,0.51055
4939.51673,0.50940
4937.58799,0.50845
4935.65924,0.50718
4933.73050,0.50527
4931.80175,0.50339
4929.87301,0.50220
4927.94426,0.50137
4926.01551,0.50051
4924.08677,0.49946
4922.15802,0.49831
4920.22928,0.49711
4918.30053,0.49570
4916.37179,0.49421
4914.44304,0.49280
4912.51430,0.49140
4910.58555,0.48988
4908.65681,0.48817
4906.72806,0.48648
4904.79932,0.48508
4902.87057,0.48389
4900.94183,0.48272
4899.01308,0.48171
4897.08434,0.48104
4895.15559,0.48045
4893.22684,0.47989
4891.29810,0.47930
4889.36935,0.47825
4887.44061,0.47704
4885.51186,0.47655
4883.58312,0.47676
4881.65437,0.47667
4879.72563,0.47579
4877.79688,0.47446
4875.86814,0.47304
4873.93939,0.47175
4872.01065,0.47051
4870.08190,0.46901
4868.15316,0.46748
4866.22441,0.46638
4864.29566,0.46543
4862.36692,0.46423
4860.43817,0.46304
4858.50943,0.46224
4856.58068,0.46173
4854.65194,0.46119
4852.72319,0.46084
4850.79445,0.46106
4848.86570,0.46128
4846.93696,0.46085
4845.00821,0.46022
4843.07947,0.46023
4841.15072,0.46100
4839.22198,0.46172
4837.29323,0.46194
4835.36449,0.46189
4833.43574,0.46188
4831.50699,0.46211
4829.57825,0.46243
4827.64950,0.46285
4825.72076,0.46370
4823.79201,0.46488
4821.86327,0.46616
4819.93452,0.46742
4818.00578,0.46849
4816.07703,0.46935
4814.14829,0.47019
4812.21954,0.47148
4810.29080,0.47338
4808.36205,0.47519
4806.43331,0.47632
4804.50456,0.47714
4802.57582,0.47840
4800.64707,0.48027
4798.71832,0.48211
4796.78958,0.48333
4794.86083,0.48399
4792.93209,0.48462
4791.00334,0.48574
4789.07460,0.48724
4787.14585,0.48877
4785.21711,0.49029
4783.28836,0.49194
4781.35962,0.49349
4779.43087,0.49460
4777.50213,0.49565
4775.57338,0.49696
4773.64464,0.49809
4771.71589,0.49871
4769.78714,0.49900
4767.85840,0.49941
4765.92965,0.50018
4764.00091,0.50100
4762.07216,0.50160
4760.14342,0.50205
4758.21467,0.50267
4756.28593,0.50380
4754.35718,0.50526
4752.42844,0.50630
4750.49969,0.50656
4748.57095,0.50659
4746.64220,0.50710
4744.71346,0.50782
4742.78471,0.50781
4740.85597,0.50710
4738.92722,0.50658
4736.99847,0.50653
4735.06973,0.50665
4733.14098,0.50664
4731.21224,0.50658
4729.28349,0.50650
4727.35475,0.50594
4725.42600,0.50513
4723.49726,0.50484
4721.56851,0.50492
4719.63977,0.50455
4717.71102,0.50383
4715.78228,0.50346
4713.85353,0.50348
4711.92479,0.50328
4709.99604,0.50262
4708.06729,0.50184
4706.13855,0.50113
4704.20980,0.50045
4702.28106,0.49983
4700.35231,0.49926
4698.42357,0.49866
4696.49482,0.49793
4694.56608,0.49707
4692.63733,0.49634
4690.70859,0.49554
4688.77984,0.49437
4686.85110,0.49322
4684.92235,0.49224
4682.99361,0.49094
4681.06486,0.48931
4679.13612,0.48761
4677.20737,0.48605
4675.27862,0.48478
4673.34988,0.48355
4671.42113,0.48223
4669.49239,0.48134
4667.56364,0.48067
4665.63490,0.47924
4663.70615,0.47720
4661.77741,0.47577
4659.84866,0.47520
4657.91992,0.47479
4655.99117,0.47418
4654.06243,0.47369
4652.13368,0.47368
4650.20494,0.47366
4648.27619,0.47321
4646.34745,0.47257
4644.41870,0.47204
4642.48995,0.47159
4640.56121,0.47110
4638.63246,0.47063
4636.70372,0.47029
4634.77497,0.46994
4632.84623,0.46948
4630.91748,0.46926
4628.98874,0.46950
4627.05999,0.46974
4625.13125,0.46957
4623.20250,0.46908
4621.27376,0.46876
4619.34501,0.46860
4617.41627,0.46817
4615.48752,0.46757
4613.55877,0.46705
4611.63003,0.46667
4609.70128,0.46650
4607.77254,0.46651
4605.84379,0.46660
4603.91505,0.46669
4601.98630,0.46664
4600.05756,0.46670
4598.12881,0.46716
4596.20007,0.46765
4594.27132,0.46783
4592.34258,0.46792
4590.41383,0.46810
4588.48509,0.46848
4586.55634,0.46915
4584.62760,0.46951
4582.69885,0.46924
4580.77010,0.46904
4578.84136,0.46928
4576.91261,0.46937
4574.98387,0.46904
4573.05512,0.46865
4571.12638,0.46834
4569.19763,0.46798
4567.26889,0.46738
4565.34014,0.46674
4563.41140,0.46652
4561.48265,0.46639
4559.55391,0.46588
4557.62516,0.46532
4555.69642,0.46489
4553.76767,0.46446
4551.83893,0.46415
4549.91018,0.46397
4547.98143,0.46382
4546.05269,0.46395
4544.12394,0.46421
4542.19520,0.46415
4540.26645,0.46376
4538.33771,0.46339
4536.40896,0.46328
4534.48022,0.46313
4532.55147,0.46247
4530.62273,0.46164
4528.69398,0.46127
4526.76524,0.46128
4524.83649,0.46137
4522.90775,0.46143
4520.97900,0.46139
4519.05025,0.46114
4517.12151,0.46056
4515.19276,0.46004
4513.26402,0.46010
4511.33527,0.46021
4509.40653,0.45991
4507.47778,0.45961
4505.54904,0.45926
4503.62029,0.45830
4501.69155,0.45711
4499.76280,0.45645
4497.83406,0.45603
4495.90531,0.45529
4493.97657,0.45433
4492.04782,0.45330
4490.11908,0.45218
4488.19033,0.45112
4486.26158,0.45001
4484.33284,0.44860
4482.40409,0.44712
4480.47535,0.44598
4478.54660,0.44508
4476.61786,0.44367
4474.68911,0.44151
4472.76037,0.43908
4470.83162,0.43655
4468.90288,0.43388
4466.97413,0.43116
4465.04539,0.42828
4463.11664,0.42515
4461.18790,0.42175
4459.25915,0.41799
4457.33041,0.41396
4455.40166,0.40961
4453.47291,0.40471
4451.54417,0.39934
4449.61542,0.39371
4447.68668,0.38785
4445.75793,0.38162
4443.82919,0.37496
4441.90044,0.36814
4439.97170,0.36146
4438.04295,0.35498
4436.11421,0.34833
4434.18546,0.34131
4432.25672,0.33447
4430.32797,0.32814
4428.39923,0.32211
4426.47048,0.31616
4424.54173,0.31051
4422.61299,0.30539
4420.68424,0.30079
4418.75550,0.29663
4416.82675,0.29295
4414.89801,0.29018
4412.96926,0.28870
4411.04052,0.28829
4409.11177,0.28878
4407.18303,0.29014
4405.25428,0.29219
4403.32554,0.29465
4401.39679,0.29730
4399.46805,0.29994
4397.53930,0.30211
4395.61056,0.30333
4393.68181,0.30366
4391.75306,0.30359
4389.82432,0.30319
4387.89557,0.30216
4385.96683,0.30050
4384.03808,0.29849
4382.10934,0.29645
4380.18059,0.29436
4378.25185,0.29211
4376.32310,0.28965
4374.39436,0.28682
4372.46561,0.28362
4370.53687,0.28039
4368.60812,0.27734
4366.67938,0.27423
4364.75063,0.27060
4362.82189,0.26650
4360.89314,0.26267
4358.96439,0.25923
4357.03565,0.25583
4355.10690,0.25242
4353.17816,0.24918
4351.24941,0.24621
4349.32067,0.24338
4347.39192,0.24060
4345.46318,0.23794
4343.53443,0.23587
4341.60569,0.23477
4339.67694,0.23412
4337.74820,0.23318
4335.81945,0.23220
4333.89071,0.23166
4331.96196,0.23144
4330.03321,0.23132
4328.10447,0.23151
4326.17572,0.23239
4324.24698,0.23392
4322.31823,0.23582
4320.38949,0.23800
4318.46074,0.24020
4316.53200,0.24222
4314.60325,0.24472
4312.67451,0.24806
4310.74576,0.25159
4308.81702,0.25526
4306.88827,0.25936
4304.95953,0.26352
4303.03078,0.26734
4301.10204,0.27094
4299.17329,0.27434
4297.24454,0.27723
4295.31580,0.27959
4293.38705,0.28189
4291.45831,0.28428
4289.52956,0.28629
4287.60082,0.28762
4285.67207,0.28838
4283.74333,0.28879
4281.81458,0.28887
4279.88584,0.28866
4277.95709,0.28869
4276.02835,0.28902
4274.09960,0.28901
4272.17086,0.28869
4270.24211,0.28885
4268.31336,0.28980
4266.38462,0.29107
4264.45587,0.29221
4262.52713,0.29329
4260.59838,0.29466
4258.66964,0.29657
4256.74089,0.29858
4254.81215,0.30009
4252.88340,0.30129
4250.95466,0.30249
4249.02591,0.30337
4247.09717,0.30398
4245.16842,0.30468
4243.23968,0.30532
4241.31093,0.30589
4239.38219,0.30663
4237.45344,0.30751
4235.52469,0.30830
4233.59595,0.30893
4231.66720,0.30948
4229.73846,0.31020
4227.80971,0.31148
4225.88097,0.31325
4223.95222,0.31506
4222.02348,0.31669
4220.09473,0.31831
4218.16599,0.32020
4216.23724,0.32240
4214.30850,0.32458
4212.37975,0.32630
4210.45101,0.32773
4208.52226,0.32937
4206.59352,0.33112
4204.66477,0.33258
4202.73602,0.33386
4200.80728,0.33511
4198.87853,0.33622
4196.94979,0.33705
4195.02104,0.33741
4193.09230,0.33731
4191.16355,0.33699
4189.23481,0.33665
4187.30606,0.33642
4185.37732,0.33620
4183.44857,0.33585
4181.51983,0.33504
4179.59108,0.33376
4177.66234,0.33243
4175.73359,0.33131
4173.80484,0.33047
4171.87610,0.32969
4169.94735,0.32876
4168.01861,0.32794
4166.08986,0.32715
4164.16112,0.32611
4162.23237,0.32498
4160.30363,0.32391
4158.37488,0.32293
4156.44614,0.32215
4154.51739,0.32155
4152.58865,0.32083
4150.65990,0.32002
4148.73116,0.31942
4146.80241,0.31907
4144.87367,0.31889
4142.94492,0.31875
4141.01617,0.31849
4139.08743,0.31824
4137.15868,0.31817
4135.22994,0.31811
4133.30119,0.31788
4131.37245,0.31757
4129.44370,0.31719
4127.51496,0.31660
4125.58621,0.31596
4123.65747,0.31546
4121.72872,0.31482
4119.79998,0.31387
4117.87123,0.31268
4115.94249,0.31141
4114.01374,0.31034
4112.08500,0.30954
4110.15625,0.30882
4108.22750,0.30799
4106.29876,0.30678
4104.37001,0.30538
4102.44127,0.30399
4100.51252,0.30251
4098.58378,0.30100
4096.65503,0.29940
4094.72629,0.29768
4092.79754,0.29606
4090.86880,0.29448
4088.94005,0.29260
4087.01131,0.29050
4085.08256,0.28855
4083.15382,0.28680
4081.22507,0.28518
4079.29632,0.28364
4077.36758,0.28202
4075.43883,0.28019
4073.51009,0.27840
4071.58134,0.27687
4069.65260,0.27558
4067.72385,0.27452
4065.79511,0.27361
4063.86636,0.27257
4061.93762,0.27123
4060.00887,0.26990
4058.08013,0.26890
4056.15138,0.26808
4054.22264,0.26733
4052.29389,0.26670
4050.36515,0.26607
4048.43640,0.26538
4046.50765,0.26471
4044.57891,0.26400
4042.65016,0.26328
4040.72142,0.26274
4038.79267,0.26236
4036.86393,0.26203
4034.93518,0.26172
4033.00644,0.26158
4031.07769,0.26162
4029.14895,0.26170
4027.22020,0.26180
4025.29146,0.26195
4023.36271,0.26219
4021.43397,0.26242
4019.50522,0.26249
4017.57648,0.26257
4015.64773,0.26293
4013.71898,0.26347
4011.79024,0.26385
4009.86149,0.26405
4007.93275,0.26456
4006.00400,0.26536
4004.07526,0.26593
4002.14651,0.26606
4000.21777,0.26613
3998.28902,0.26663
3996.36028,0.26755
3994.43153,0.26843
3992.50279,0.26918
3990.57404,0.27011
3988.64530,0.27129
3986.71655,0.27269
3984.78780,0.27414
3982.85906,0.27534
3980.93031,0.27632
3979.00157,0.27748
3977.07282,0.27911
3975.14408,0.28082
3973.21533,0.28238
3971.28659,0.28411
3969.35784,0.28595
3967.42910,0.28749
3965.50035,0.28890
3963.57161,0.29055
3961.64286,0.29240
3959.71412,0.29425
3957.78537,0.29617
3955.85663,0.29831
3953.92788,0.30056
3951.99913,0.30273
3950.07039,0.30473
3948.14164,0.30654
3946.21290,0.30859
3944.28415,0.31116
3942.35541,0.31396
3940.42666,0.31664
3938.49792,0.31919
3936.56917,0.32181
3934.64043,0.32448
3932.71168,0.32718
3930.78294,0.32985
3928.85419,0.33209
3926.92545,0.33395
3924.99670,0.33594
3923.06795,0.33807
3921.13921,0.34000
3919.21046,0.34166
3917.28172,0.34303
3915.35297,0.34418
3913.42423,0.34538
3911.49548,0.34667
3909.56674,0.34784
3907.63799,0.34900
3905.70925,0.35026
3903.78050,0.35127
3901.85176,0.35191
3899.92301,0.35240
3897.99427,0.35274
3896.06552,0.35304
3894.13678,0.35364
3892.20803,0.35448
3890.27928,0.35499
3888.35054,0.35516
3886.42179,0.35552
3884.49305,0.35619
3882.56430,0.35687
3880.63556,0.35740
3878.70681,0.35781
3876.77807,0.35824
3874.84932,0.35885
3872.92058,0.35948
3870.99183,0.35962
3869.06309,0.35926
3867.13434,0.35894
3865.20560,0.35892
3863.27685,0.35911
3861.34811,0.35927
3859.41936,0.35927
3857.49061,0.35925
3855.56187,0.35955
3853.63312,0.36039
3851.70438,0.36117
3849.77563,0.36141
3847.84689,0.36164
3845.91814,0.36222
3843.98940,0.36311
3842.06065,0.36415
3840.13191,0.36520
3838.20316,0.36634
3836.27442,0.36739
3834.34567,0.36829
3832.41693,0.36941
3830.48818,0.37061
3828.55943,0.37153
3826.63069,0.37233
3824.70194,0.37319
3822.77320,0.37412
3820.84445,0.37505
3818.91571,0.37568
3816.98696,0.37601
3815.05822,0.37622
3813.12947,0.37644
3811.20073,0.37670
3809.27198,0.37702
3807.34324,0.37740
3805.41449,0.37760
3803.48575,0.37768
3801.55700,0.37800
3799.62826,0.37834
3797.69951,0.37845
3795.77076,0.37862
3793.84202,0.37899
3791.91327,0.37951
3789.98453,0.38016
3788.05578,0.38084
3786.12704,0.38174
3784.19829,0.38293
3782.26955,0.38420
3780.34080,0.38562
3778.41206,0.38716
3776.48331,0.38866
3774.55457,0.39019
3772.62582,0.39179
3770.69708,0.39363
3768.76833,0.39575
3766.83959,0.39786
3764.91084,0.39994
3762.98209,0.40193
3761.05335,0.40388
3759.12460,0.40611
3757.19586,0.40850
3755.26711,0.41068
3753.33837,0.41275
3751.40962,0.41479
3749.48088,0.41641
3747.55213,0.41773
3745.62339,0.41932
3743.69464,0.42126
3741.76590,0.42290
3739.83715,0.42423
3737.90841,0.42569
3735.97966,0.42718
3734.05091,0.42822
3732.12217,0.42896
3730.19342,0.42991
3728.26468,0.43112
3726.33593,0.43253
3724.40719,0.43384
3722.47844,0.43467
3720.54970,0.43518
3718.62095,0.43559
3716.69221,0.43614
3714.76346,0.43698
3712.83472,0.43795
3710.90597,0.43877
3708.97723,0.43950
3707.04848,0.44024
3705.11974,0.44064
3703.19099,0.44065
3701.26224,0.44070
3699.33350,0.44098
3697.40475,0.44108
3695.47601,0.44065
3693.54726,0.43995
3691.61852,0.43928
3689.68977,0.43841
3687.76103,0.43719
3685.83228,0.43622
3683.90354,0.43551
3681.97479,0.43455
3680.04605,0.43327
3678.11730,0.43203
3676.18856,0.43093
3674.25981,0.42962
3672.33107,0.42777
3670.40232,0.42549
3668.47357,0.42342
3666.54483,0.42179
3664.61608,0.42008
3662.68734,0.41813
3660.75859,0.41615
3658.82985,0.41427
3656.90110,0.41226
3654.97236,0.41006
3653.04361,0.40799
3651.11487,0.40603
3649.18612,0.40387
3647.25738,0.40119
3645.32863,0.39837
3643.39989,0.39597
3641.47114,0.39395
3639.54239,0.39194
3637.61365,0.38974
3635.68490,0.38736
3633.75616,0.38511
3631.82741,0.38324
3629.89867,0.38132
3627.96992,0.37905
3626.04118,0.37671
3624.11243,0.37431
3622.18369,0.37213
3620.25494,0.37040
3618.32620,0.36871
3616.39745,0.36684
3614.46871,0.36492
3612.53996,0.36273
3610.61122,0.36031
3608.68247,0.35816
3606.75372,0.35648
3604.82498,0.35507
3602.89623,0.35369
3600.96749,0.35225
3599.03874,0.35077
3597.11000,0.34927
3595.18125,0.34790
3593.25251,0.34684
3591.32376,0.34587
3589.39502,0.34467
3587.46627,0.34313
3585.53753,0.34151
3583.60878,0.34004
3581.68004,0.33855
3579.75129,0.33692
3577.82254,0.33525
3575.89380,0.33358
3573.96505,0.33196
3572.03631,0.33055
3570.10756,0.32921
3568.17882,0.32763
3566.25007,0.32577
3564.32133,0.32387
3562.39258,0.32202
3560.46384,0.32018
3558.53509,0.31839
3556.60635,0.31650
3554.67760,0.31445
3552.74886,0.31267
3550.82011,0.31151
3548.89137,0.31036
3546.96262,0.30855
3545.03387,0.30621
3543.10513,0.30384
3541.17638,0.30160
3539.24764,0.29959
3537.31889,0.29779
3535.39015,0.29576
3533.46140,0.29340
3531.53266,0.29111
3529.60391,0.28883
3527.67517,0.28647
3525.74642,0.28434
3523.81768,0.28235
3521.88893,0.28028
3519.96019,0.27841
3518.03144,0.27671
3516.10270,0.27493
3514.17395,0.27309
3512.24520,0.27111
3510.31646,0.26903
3508.38771,0.26703
3506.45897,0.26519
3504.53022,0.26354
3502.60148,0.26195
3500.67273,0.25988
3498.74399,0.25719
3496.81524,0.25434
3494.88650,0.25183
3492.95775,0.24979
3491.02901,0.24782
3489.10026,0.24531
3487.17152,0.24214
3485.24277,0.23874
3483.31402,0.23547
3481.38528,0.23212
3479.45653,0.22830
3477.52779,0.22425
3475.59904,0.22018
3473.67030,0.21585
3471.74155,0.21130
3469.81281,0.20661
3467.88406,0.20162
3465.95532,0.19653
3464.02657,0.19143
3462.09783,0.18655
3460.16908,0.18251
3458.24034,0.17933
3456.31159,0.17666
3454.38285,0.17442
3452.45410,0.17232
3450.52535,0.17015
3448.59661,0.16813
3446.66786,0.16613
3444.73912,0.16364
3442.81037,0.16050
3440.88163,0.15707
3438.95288,0.15365
3437.02414,0.14985
3435.09539,0.14528
3433.16665,0.14016
3431.23790,0.13458
3429.30916,0.12854
3427.38041,0.12236
3425.45167,0.11621
3423.52292,0.11006
3421.59418,0.10420
3419.66543,0.09910
3417.73668,0.09513
3415.80794,0.09234
3413.87919,0.09035
3411.95045,0.08879
3410.02170,0.08766
3408.09296,0.08689
3406.16421,0.08605
3404.23547,0.08507
3402.30672,0.08395
3400.37798,0.08256
3398.44923,0.08101
3396.52049,0.07930
3394.59174,0.07718
3392.66300,0.07482
3390.73425,0.07263
3388.80550,0.07083
3386.87676,0.06930
3384.94801,0.06775
3383.01927,0.06593
3381.09052,0.06408
3379.16178,0.06260
3377.23303,0.06159
3375.30429,0.06078
3373.37554,0.05980
3371.44680,0.05863
3369.51805,0.05763
3367.58931,0.05700
3365.66056,0.05655
3363.73182,0.05625
3361.80307,0.05593
3359.87433,0.05527
3357.94558,0.05439
3356.01683,0.05375
3354.08809,0.05338
3352.15934,0.05295
3350.23060,0.05245
3348.30185,0.05196
3346.37311,0.05139
3344.44436,0.05091
3342.51562,0.05058
3340.58687,0.05010
3338.65813,0.04940
3336.72938,0.04884
3334.80064,0.04855
3332.87189,0.04821
3330.94315,0.04756
3329.01440,0.04678
3327.08566,0.04644
3325.15691,0.04656
3323.22816,0.04649
3321.29942,0.04609
3319.37067,0.04583
3317.44193,0.04584
3315.51318,0.04568
3313.58444,0.04516
3311.65569,0.04478
3309.72695,0.04491
3307.79820,0.04513
3305.86946,0.04506
3303.94071,0.04475
3302.01197,0.04452
3300.08322,0.04464
3298.15448,0.04480
3296.22573,0.04468
3294.29698,0.04447
3292.36824,0.04445
3290.43949,0.04460
3288.51075,0.04464
3286.58200,0.04446
3284.65326,0.04444
3282.72451,0.04467
3280.79577,0.04484
3278.86702,0.04487
3276.93828,0.04492
3275.00953,0.04512
3273.08079,0.04529
3271.15204,0.04531
3269.22330,0.04544
3267.29455,0.04576
3265.36581,0.04603
3263.43706,0.04629
3261.50831,0.04668
3259.57957,0.04710
3257.65082,0.04744
3255.72208,0.04770
3253.79333,0.04798
3251.86459,0.04855
3249.93584,0.04930
3248.00710,0.04967
3246.07835,0.04987
3244.14961,0.05050
3242.22086,0.05125
3240.29212,0.05174
3238.36337,0.05232
3236.43463,0.05299
3234.50588,0.05350
3232.57713,0.05376
3230.64839,0.05384
3228.71964,0.05415
3226.79090,0.05475
3224.86215,0.05523
3222.93341,0.05582
3221.00466,0.05667
3219.07592,0.05730
3217.14717,0.05759
3215.21843,0.05776
3213.28968,0.05806
3211.36094,0.05869
3209.43219,0.05942
3207.50345,0.05969
3205.57470,0.05956
3203.64596,0.05963
3201.71721,0.05993
3199.78846,0.06034
3197.85972,0.06096
3195.93097,0.06171
3194.00223,0.06227
3192.07348,0.06234
3190.14474,0.06230
3188.21599,0.06278
3186.28725,0.06352
3184.35850,0.06409
3182.42976,0.06480
3180.50101,0.06561
3178.57227,0.06624
3176.64352,0.06688
3174.71478,0.06743
3172.78603,0.06767
3170.85729,0.06781
3168.92854,0.06804
3166.99979,0.06849
3165.07105,0.06906
3163.14230,0.06953
3161.21356,0.07007
3159.28481,0.07085
3157.35607,0.07153
3155.42732,0.07187
3153.49858,0.07210
3151.56983,0.07235
3149.64109,0.07271
3147.71234,0.07325
3145.78360,0.07370
3143.85485,0.07394
3141.92611,0.07426
3139.99736,0.07462
3138.06861,0.07485
3136.13987,0.07497
3134.21112,0.07504
3132.28238,0.07528
3130.35363,0.07576
3128.42489,0.07633
3126.49614,0.07687
3124.56740,0.07723
3122.63865,0.07746
3120.70991,0.07778
3118.78116,0.07808
3116.85242,0.07830
3114.92367,0.07851
3112.99493,0.07859
3111.06618,0.07860
3109.13744,0.07869
3107.20869,0.07881
3105.27994,0.07895
3103.35120,0.07905
3101.42245,0.07886
3099.49371,0.07842
3097.56496,0.07795
3095.63622,0.07761
3093.70747,0.07730
3091.77873,0.07677
3089.84998,0.07614
3087.92124,0.07576
3085.99249,0.07566
3084.06375,0.07568
3082.13500,0.07564
3080.20626,0.07548
3078.27751,0.07514
3076.34877,0.07466
3074.42002,0.07436
3072.49127,0.07444
3070.56253,0.07463
3068.63378,0.07466
3066.70504,0.07464
3064.77629,0.07483
3062.84755,0.07522
3060.91880,0.07554
3058.99006,0.07565
3057.06131,0.07556
3055.13257,0.07545
3053.20382,0.07557
3051.27508,0.07590
3049.34633,0.07615
3047.41759,0.07621
3045.48884,0.07631
3043.56009,0.07654
3041.63135,0.07679
3039.70260,0.07673
3037.77386,0.07611
3035.84511,0.07545
3033.91637,0.07515
3031.98762,0.07482
3030.05888,0.07441
3028.13013,0.07430
3026.20139,0.07442
3024.27264,0.07452
3022.34390,0.07452
3020.41515,0.07446
3018.48641,0.07441
3016.55766,0.07422
3014.62892,0.07347
3012.70017,0.07206
3010.77142,0.07045
3008.84268,0.06894
3006.91393,0.06723
3004.98519,0.06498
3003.05644,0.06231
3001.12770,0.05945
2999.19895,0.05649
2997.27021,0.05357
2995.34146,0.05089
2993.41272,0.04850
2991.48397,0.04641
2989.55523,0.04476
2987.62648,0.04348
2985.69774,0.04229
2983.76899,0.04129
2981.84025,0.04072
2979.91150,0.04061
2977.98275,0.04058
2976.05401,0.04018
2974.12526,0.03971
2972.19652,0.03964
2970.26777,0.03992
2968.33903,0.04044
2966.41028,0.04121
2964.48154,0.04228
2962.55279,0.04360
2960.62405,0.04481
2958.69530,0.04565
2956.76656,0.04614
2954.83781,0.04634
2952.90907,0.04637
2950.98032,0.04622
2949.05157,0.04572
2947.12283,0.04496
2945.19408,0.04410
2943.26534,0.04322
2941.33659,0.04249
2939.40785,0.04191
2937.47910,0.04133
2935.55036,0.04075
2933.62161,0.04039
2931.69287,0.04040
2929.76412,0.04065
2927.83538,0.04094
2925.90663,0.04111
2923.97789,0.04123
2922.04914,0.04149
2920.12040,0.04169
2918.19165,0.04157
2916.26290,0.04143
2914.33416,0.04155
2912.40541,0.04187
2910.47667,0.04214
2908.54792,0.04223
2906.61918,0.04224
2904.69043,0.04220
2902.76169,0.04201
2900.83294,0.04167
2898.90420,0.04152
2896.97545,0.04178
2895.04671,0.04218
2893.11796,0.04246
2891.18922,0.04261
2889.26047,0.04257
2887.33172,0.04233
2885.40298,0.04209
2883.47423,0.04204
2881.54549,0.04213
2879.61674,0.04216
2877.68800,0.04208
2875.75925,0.04197
2873.83051,0.04195
2871.90176,0.04204
2869.97302,0.04217
2868.04427,0.04230
2866.11553,0.04261
2864.18678,0.04318
2862.25804,0.04382
2860.32929,0.04444
2858.40055,0.04492
2856.47180,0.04529
2854.54305,0.04584
2852.61431,0.04670
2850.68556,0.04769
2848.75682,0.04871
2846.82807,0.04987
2844.89933,0.05126
2842.97058,0.05271
2841.04184,0.05415
2839.11309,0.05591
2837.18435,0.05806
2835.25560,0.06029
2833.32686,0.06248
2831.39811,0.06468
2829.46937,0.06667
2827.54062,0.06828
2825.61188,0.06966
2823.68313,0.07100
2821.75438,0.07233
2819.82564,0.07357
2817.89689,0.07468
2815.96815,0.07565
2814.03940,0.07657
2812.11066,0.07743
2810.18191,0.07797
2808.25317,0.07831
2806.32442,0.07880
2804.39568,0.07927
2802.46693,0.07949
2800.53819,0.07965
2798.60944,0.07985
2796.68070,0.07999
2794.75195,0.08031
2792.82320,0.08109
2790.89446,0.08207
2788.96571,0.08299
2787.03697,0.08384
2785.10822,0.08457
2783.17948,0.08523
2781.25073,0.08606
2779.32199,0.08723
2777.39324,0.08846
2775.46450,0.08929
2773.53575,0.08980
2771.60701,0.09041
2769.67826,0.09126
2767.74952,0.09233
2765.82077,0.09366
2763.89203,0.09509
2761.96328,0.09632
2760.03453,0.09742
2758.10579,0.09863
2756.17704,0.09983
2754.24830,0.10082
2752.31955,0.10178
2750.39081,0.10271
2748.46206,0.10357
2746.53332,0.10451
2744.60457,0.10559
2742.67583,0.10659
2740.74708,0.10743
2738.81834,0.10811
2736.88959,0.10885
2734.96085,0.10987
2733.03210,0.11113
2731.10336,0.11262
2729.17461,0.11435
2727.24586,0.11618
2725.31712,0.11815
2723.38837,0.12043
2721.45963,0.12287
2719.53088,0.12511
2717.60214,0.12718
2715.67339,0.12935
2713.74465,0.13160
2711.81590,0.13358
2709.88716,0.13526
2707.95841,0.13688
2706.02967,0.13858
2704.10092,0.14045
2702.17218,0.14243
2700.24343,0.14436
2698.31468,0.14624
2696.38594,0.14816
2694.45719,0.15015
2692.52845,0.15214
2690.59970,0.15403
2688.67096,0.15576
2686.74221,0.15732
2684.81347,0.15859
2682.88472,0.15944
2680.95598,0.15994
2679.02723,0.16042
2677.09849,0.16106
2675.16974,0.16176
2673.24100,0.16249
2671.31225,0.16336
2669.38351,0.16434
2667.45476,0.16542
2665.52601,0.16666
2663.59727,0.16808
2661.66852,0.16961
2659.73978,0.17139
2657.81103,0.17332
2655.88229,0.17493
2653.95354,0.17602
2652.02480,0.17684
2650.09605,0.17758
2648.16731,0.17820
2646.23856,0.17868
2644.30982,0.17927
2642.38107,0.18011
2640.45233,0.18104
2638.52358,0.18217
2636.59484,0.18369
2634.66609,0.18550
2632.73734,0.18740
2630.80860,0.18939
2628.87985,0.19149
2626.95111,0.19367
2625.02236,0.19581
2623.09362,0.19771
2621.16487,0.19930
2619.23613,0.20062
2617.30738,0.20172
2615.37864,0.20246
2613.44989,0.20267
2611.52115,0.20239
2609.59240,0.20189
2607.66366,0.20136
2605.73491,0.20091
2603.80616,0.20060
2601.87742,0.20030
2599.94867,0.19997
2598.01993,0.19971
2596.09118,0.19955
2594.16244,0.19946
2592.23369,0.19950
2590.30495,0.19972
2588.37620,0.20014
2586.44746,0.20086
2584.51871,0.20206
2582.58997,0.20376
2580.66122,0.20596
2578.73248,0.20863
2576.80373,0.21178
2574.87499,0.21534
2572.94624,0.21909
2571.01749,0.22303
2569.08875,0.22722
2567.16000,0.23137
2565.23126,0.23514
2563.30251,0.23844
2561.37377,0.24133
2559.44502,0.24371
2557.51628,0.24547
2555.58753,0.24684
2553.65879,0.24814
2551.73004,0.24939
2549.80130,0.25056
2547.87255,0.25167
2545.94381,0.25265
2544.01506,0.25341
2542.08631,0.25408
2540.15757,0.25496
2538.22882,0.25611
2536.30008,0.25741
2534.37133,0.25869
2532.44259,0.25976
2530.51384,0.26058
2528.58510,0.26140
2526.65635,0.26244
2524.72761,0.26350
2522.79886,0.26429
2520.87012,0.26489
2518.94137,0.26541
2517.01263,0.26582
2515.08388,0.26614
2513.15514,0.26637
2511.22639,0.26638
2509.29764,0.26636
2507.36890,0.26649
2505.44015,0.26652
2503.51141,0.26626
2501.58266,0.26597
2499.65392,0.26587
2497.72517,0.26583
2495.79643,0.26573
2493.86768,0.26571
2491.93894,0.26587
2490.01019,0.26606
2488.08145,0.26606
2486.15270,0.26585
2484.22396,0.26567
2482.29521,0.26566
2480.36647,0.26566
2478.43772,0.26554
2476.50897,0.26545
2474.58023,0.26553
2472.65148,0.26582
2470.72274,0.26632
2468.79399,0.26687
2466.86525,0.26739
2464.93650,0.26799
2463.00776,0.26870
2461.07901,0.26947
2459.15027,0.27030
2457.22152,0.27099
2455.29278,0.27152
2453.36403,0.27217
2451.43529,0.27298
2449.50654,0.27384
2447.57779,0.27487
2445.64905,0.27599
2443.72030,0.27702
2441.79156,0.27806
2439.86281,0.27918
2437.93407,0.28022
2436.00532,0.28124
2434.07658,0.28239
2432.14783,0.28360
2430.21909,0.28463
2428.29034,0.28541
2426.36160,0.28606
2424.43285,0.28655
2422.50411,0.28679
2420.57536,0.28686
2418.64662,0.28669
2416.71787,0.28620
2414.78912,0.28546
2412.86038,0.28451
2410.93163,0.28346
2409.00289,0.28248
2407.07414,0.28158
2405.14540,0.28074
2403.21665,0.27989
2401.28791,0.27900
2399.35916,0.27821
2397.43042,0.27751
2395.50167,0.27667
2393.57293,0.27564
2391.64418,0.27459
2389.71544,0.27357
2387.78669,0.27262
2385.85795,0.27178
2383.92920,0.27102
2382.00045,0.27026
2380.07171,0.26955
2378.14296,0.26891
2376.21422,0.26828
2374.28547,0.26764
2372.35673,0.26710
2370.42798,0.26673
2368.49924,0.26645
2366.57049,0.26614
2364.64175,0.26581
2362.71300,0.26567
2360.78426,0.26569
2358.85551,0.26543
2356.92677,0.26472
2354.99802,0.26402
2353.06927,0.26353
2351.14053,0.26299
2349.21178,0.26217
2347.28304,0.26118
2345.35429,0.26024
2343.42555,0.25922
2341.49680,0.25797
2339.56806,0.25645
2337.63931,0.25473
2335.71057,0.25283
2333.78182,0.25060
2331.85308,0.24810
2329.92433,0.24556
2327.99559,0.24289
2326.06684,0.23986
2324.13810,0.23653
2322.20935,0.23299
2320.28060,0.22920
2318.35186,0.22517
2316.42311,0.22089
2314.49437,0.21633
2312.56562,0.21136
2310.63688,0.20592
2308.70813,0.20016
2306.77939,0.19425
2304.85064,0.18822
2302.92190,0.18194
2300.99315,0.17525
2299.06441,0.16813
2297.13566,0.16078
2295.20692,0.15344
2293.27817,0.14611
2291.34943,0.13877
2289.42068,0.13162
2287.49193,0.12498
2285.56319,0.11893
2283.63444,0.11343
2281.70570,0.10857
2279.77695,0.10451
2277.84821,0.10148
2275.91946,0.09976
2273.99072,0.09937
2272.06197,0.10011
2270.13323,0.10201
2268.20448,0.10519
2266.27574,0.10955
2264.34699,0.11490
2262.41825,0.12117
2260.48950,0.12814
2258.56075,0.13542
2256.63201,0.14279
2254.70326,0.15009
2252.77452,0.15702
2250.84577,0.16345
2248.91703,0.16941
2246.98828,0.17483
2245.05954,0.17958
2243.13079,0.18379
2241.20205,0.18785
2239.27330,0.19169
2237.34456,0.19508
2235.41581,0.19823
2233.48707,0.20131
2231.55832,0.20413
2229.62958,0.20649
2227.70083,0.20839
2225.77208,0.21004
2223.84334,0.21156
2221.91459,0.21285
2219.98585,0.21404
2218.05710,0.21524
2216.12836,0.21639
2214.19961,0.21762
2212.27087,0.21906
2210.34212,0.22054
2208.41338,0.22181
2206.48463,0.22290
2204.55589,0.22401
2202.62714,0.22524
2200.69840,0.22647
2198.76965,0.22760
2196.84090,0.22859
2194.91216,0.22946
2192.98341,0.23028
2191.05467,0.23109
2189.12592,0.23187
2187.19718,0.23249
2185.26843,0.23293
2183.33969,0.23335
2181.41094,0.23384
2179.48220,0.23435
2177.55345,0.23482
2175.62471,0.23526
2173.69596,0.23559
2171.76722,0.23578
2169.83847,0.23600
2167.90973,0.23640
2165.98098,0.23689
2164.05223,0.23725
2162.12349,0.23752
2160.19474,0.23786
2158.26600,0.23822
2156.33725,0.23862
2154.40851,0.23911
2152.47976,0.23975
2150.55102,0.24057
2148.62227,0.24139
2146.69353,0.24203
2144.76478,0.24266
2142.83604,0.24338
2140.90729,0.24398
2138.97855,0.24451
2137.04980,0.24515
2135.12106,0.24570
2133.19231,0.24602
2131.26356,0.24628
2129.33482,0.24667
2127.40607,0.24723
2125.47733,0.24787
2123.54858,0.24843
2121.61984,0.24893
2119.69109,0.24946
2117.76235,0.24979
2115.83360,0.24985
2113.90486,0.24993
2111.97611,0.25008
2110.04737,0.25023
2108.11862,0.25030
2106.18988,0.25017
2104.26113,0.24979
2102.33238,0.24938
2100.40364,0.24909
2098.47489,0.24882
2096.54615,0.24835
2094.61740,0.24774
2092.68866,0.24717
2090.75991,0.24655
2088.83117,0.24589
2086.90242,0.24530
2084.97368,0.24478
2083.04493,0.24434
2081.11619,0.24384
2079.18744,0.24308
2077.25870,0.24221
2075.32995,0.24145
2073.40121,0.24088
2071.47246,0.24039
2069.54371,0.23985
2067.61497,0.23930
2065.68622,0.23888
2063.75748,0.23850
2061.82873,0.23806
2059.89999,0.23755
2057.97124,0.23690
2056.04250,0.23616
2054.11375,0.23546
2052.18501,0.23464
2050.25626,0.23352
2048.32752,0.23214
2046.39877,0.23072
2044.47003,0.22949
2042.54128,0.22841
2040.61254,0.22707
2038.68379,0.22533
2036.75504,0.22359
2034.82630,0.22214
2032.89755,0.22083
2030.96881,0.21945
2029.04006,0.21808
2027.11132,0.21694
2025.18257,0.21593
2023.25383,0.21495
2021.32508,0.21424
2019.39634,0.21376
2017.46759,0.21331
2015.53885,0.21302
2013.61010,0.21293
2011.68136,0.21287
2009.75261,0.21294
2007.82386,0.21320
2005.89512,0.21352
2003.96637,0.21380
2002.03763,0.21412
2000.10888,0.21451
1998.18014,0.21491
1996.25139,0.21534
1994.32265,0.21577
1992.39390,0.21601
1990.46516,0.21609
1988.53641,0.21622
1986.60767,0.21650
1984.67892,0.21682
1982.75018,0.21692
1980.82143,0.21684
1978.89269,0.21683
1976.96394,0.21695
1975.03519,0.21700
1973.10645,0.21691
1971.17770,0.21678
1969.24896,0.21672
1967.32021,0.21678
1965.39147,0.21686
1963.46272,0.21677
1961.53398,0.21659
1959.60523,0.21656
1957.67649,0.21652
1955.74774,0.21627
1953.81900,0.21597
1951.89025,0.21580
1949.96151,0.21567
1948.03276,0.21549
1946.10402,0.21532
1944.17527,0.21518
1942.24652,0.21502
1940.31778,0.21485
1938.38903,0.21465
1936.46029,0.21440
1934.53154,0.21406
1932.60280,0.21355
1930.67405,0.21294
1928.74531,0.21233
1926.81656,0.21161
1924.88782,0.21081
1922.95907,0.21013
1921.03033,0.20965
1919.10158,0.20934
1917.17284,0.20919
1915.24409,0.20920
1913.31534,0.20936
1911.38660,0.20958
1909.45785,0.20979
1907.52911,0.21001
1905.60036,0.21031
1903.67162,0.21069
1901.74287,0.21104
1899.81413,0.21119
1897.88538,0.21116
1895.95664,0.21107
1894.02789,0.21098
1892.09915,0.21083
1890.17040,0.21061
1888.24166,0.21042
1886.31291,0.21045
1884.38417,0.21074
1882.45542,0.21114
1880.52667,0.21153
1878.59793,0.21197
1876.66918,0.21252
1874.74044,0.21315
1872.81169,0.21367
1870.88295,0.21390
1868.95420,0.21389
1867.02546,0.21383
1865.09671,0.21375
1863.16797,0.21363
1861.23922,0.21340
1859.31048,0.21300
1857.38173,0.21249
1855.45299,0.21200
1853.52424,0.21164
1851.59549,0.21117
1849.66675,0.21044
1847.73800,0.20975
1845.80926,0.20911
1843.88051,0.20812
1841.95177,0.20687
1840.02302,0.20579
1838.09428,0.20488
1836.16553,0.20380
1834.23679,0.20245
1832.30804,0.20100
1830.37930,0.19942
1828.45055,0.19759
1826.52181,0.19563
1824.59306,0.19372
1822.66432,0.19196
1820.73557,0.19022
1818.80682,0.18834
1816.87808,0.18627
1814.94933,0.18405
1813.02059,0.18164
1811.09184,0.17890
1809.16310,0.17600
1807.23435,0.17326
1805.30561,0.17069
1803.37686,0.16796
1801.44812,0.16485
1799.51937,0.16169
1797.59063,0.15871
1795.66188,0.15575
1793.73314,0.15260
1791.80439,0.14922
1789.87565,0.14605
1787.94690,0.14338
1786.01815,0.14089
1784.08941,0.13830
1782.16066,0.13580
1780.23192,0.13347
1778.30317,0.13113
1776.37443,0.12882
1774.44568,0.12651
1772.51694,0.12386
1770.58819,0.12085
1768.65945,0.11771
1766.73070,0.11442
1764.80196,0.11095
1762.87321,0.10675
1760.94447,0.10138
1759.01572,0.09541
1757.08697,0.08876
1755.15823,0.08164
1753.22948,0.07465
1751.30074,0.06721
1749.37199,0.05955
1747.44325,0.05291
1745.51450,0.04757
1743.58576,0.04339
1741.65701,0.04008
1739.72827,0.03733
1737.79952,0.03543
1735.87078,0.03426
1733.94203,0.03330
1732.01329,0.03278
1730.08454,0.03286
1728.15580,0.03320
1726.22705,0.03360
1724.29830,0.03402
1722.36956,0.03453
1720.44081,0.03516
1718.51207,0.03565
1716.58332,0.03587
1714.65458,0.03614
1712.72583,0.03655
1710.79709,0.03692
1708.86834,0.03720
1706.93960,0.03741
1705.01085,0.03761
1703.08211,0.03779
1701.15336,0.03793
1699.22462,0.03826
1697.29587,0.03868
1695.36713,0.03878
1693.43838,0.03867
1691.50963,0.03862
1689.58089,0.03862
1687.65214,0.03862
1685.72340,0.03841
1683.79465,0.03795
1681.86591,0.03763
1679.93716,0.03746
1678.00842,0.03729
1676.07967,0.03702
1674.15093,0.03654
1672.22218,0.03594
1670.29344,0.03544
1668.36469,0.03507
1666.43595,0.03470
1664.50720,0.03412
1662.57845,0.03347
1660.64971,0.03311
1658.72096,0.03293
1656.79222,0.03269
1654.86347,0.03231
1652.93473,0.03162
1651.00598,0.03106
1649.07724,0.03090
1647.14849,0.03067
1645.21975,0.03032
1643.29100,0.03027
1641.36226,0.03065
1639.43351,0.03144
1637.50477,0.03252
1635.57602,0.03372
1633.64728,0.03483
1631.71853,0.03567
1629.78978,0.03630
1627.86104,0.03670
1625.93229,0.03671
1624.00355,0.03635
1622.07480,0.03589
1620.14606,0.03564
1618.21731,0.03538
1616.28857,0.03480
1614.35982,0.03427
1612.43108,0.03402
1610.50233,0.03369
1608.57359,0.03318
1606.64484,0.03274
1604.71610,0.03255
1602.78735,0.03263
1600.85861,0.03273
1598.92986,0.03278
1597.00111,0.03297
1595.07237,0.03324
1593.14362,0.03351
1591.21488,0.03379
1589.28613,0.03413
1587.35739,0.03456
1585.42864,0.03494
1583.49990,0.03519
1581.57115,0.03531
1579.64241,0.03532
1577.71366,0.03494
1575.78492,0.03392
1573.85617,0.03290
1571.92743,0.03223
1569.99868,0.03150
1568.06993,0.03078
1566.14119,0.03039
1564.21244,0.03025
1562.28370,0.03030
1560.35495,0.03049
1558.42621,0.03061
1556.49746,0.03060
1554.56872,0.03076
1552.63997,0.03116
1550.71123,0.03161
1548.78248,0.03197
1546.85374,0.03230
1544.92499,0.03265
1542.99625,0.03301
1541.06750,0.03334
1539.13876,0.03358
1537.21001,0.03383
1535.28126,0.03416
1533.35252,0.03452
1531.42377,0.03488
1529.49503,0.03529
1527.56628,0.03574
1525.63754,0.03625
1523.70879,0.03676
1521.78005,0.03707
1519.85130,0.03713
1517.92256,0.03714
1515.99381,0.03711
1514.06507,0.03712
1512.13632,0.03737
1510.20758,0.03765
1508.27883,0.03771
1506.35008,0.03778
1504.42134,0.03808
1502.49259,0.03842
1500.56385,0.03879
1498.63510,0.03923
1496.70636,0.03951
1494.77761,0.03952
1492.84887,0.03944
1490.92012,0.03937
1488.99138,0.03925
1487.06263,0.03910
1485.13389,0.03889
1483.20514,0.03856
1481.27640,0.03813
1479.34765,0.03781
1477.41891,0.03779
1475.49016,0.03803
1473.56141,0.03830
1471.63267,0.03839
1469.70392,0.03840
1467.77518,0.03844
1465.84643,0.03839
1463.91769,0.03812
1461.98894,0.03782
1460.06020,0.03776
1458.13145,0.03771
1456.20271,0.03728
1454.27396,0.03697
1452.34522,0.03720
1450.41647,0.03778
1448.48773,0.03846
1446.55898,0.03910
1444.63024,0.03965
1442.70149,0.04026
1440.77274,0.04116
1438.84400,0.04223
1436.91525,0.04326
1434.98651,0.04424
1433.05776,0.04505
1431.12902,0.04540
1429.20027,0.04510
1427.27153,0.04447
1425.34278,0.04389
1423.41404,0.04332
1421.48529,0.04260
1419.55655,0.04176
1417.62780,0.04102
1415.69906,0.04064
1413.77031,0.04053
1411.84156,0.04053
1409.91282,0.04057
1407.98407,0.04071
1406.05533,0.04098
1404.12658,0.04130
1402.19784,0.04162
1400.26909,0.04192
1398.34035,0.04203
1396.41160,0.04178
1394.48286,0.04133
1392.55411,0.04101
1390.62537,0.04083
1388.69662,0.04030
1386.76788,0.03925
1384.83913,0.03810
1382.91039,0.03705
1380.98164,0.03613
1379.05289,0.03546
1377.12415,0.03518
1375.19540,0.03542
1373.26666,0.03623
1371.33791,0.03754
1369.40917,0.03913
1367.48042,0.04083
1365.55168,0.04247
1363.62293,0.04393
1361.69419,0.04509
1359.76544,0.04576
1357.83670,0.04575
1355.90795,0.04513
1353.97921,0.04429
1352.05046,0.04341
1350.12172,0.04242
1348.19297,0.04144
1346.26422,0.04072
1344.33548,0.04032
1342.40673,0.04023
1340.47799,0.04033
1338.54924,0.04054
1336.62050,0.04076
1334.69175,0.04080
1332.76301,0.04055
1330.83426,0.04026
1328.90552,0.04001
1326.97677,0.03966
1325.04803,0.03917
1323.11928,0.03860
1321.19054,0.03802
1319.26179,0.03753
1317.33304,0.03715
1315.40430,0.03692
1313.47555,0.03669
1311.54681,0.03627
1309.61806,0.03578
1307.68932,0.03541
1305.76057,0.03510
1303.83183,0.03484
1301.90308,0.03468
1299.97434,0.03451
1298.04559,0.03440
1296.11685,0.03451
1294.18810,0.03482
1292.25936,0.03516
1290.33061,0.03546
1288.40187,0.03576
1286.47312,0.03590
1284.54437,0.03576
1282.61563,0.03555
1280.68688,0.03551
1278.75814,0.03542
1276.82939,0.03520
1274.90065,0.03517
1272.97190,0.03534
1271.04316,0.03540
1269.11441,0.03524
1267.18567,0.03503
1265.25692,0.03485
1263.32818,0.03467
1261.39943,0.03447
1259.47069,0.03430
1257.54194,0.03434
1255.61320,0.03452
1253.68445,0.03443
1251.75570,0.03399
1249.82696,0.03354
1247.89821,0.03323
1245.96947,0.03290
1244.04072,0.03255
1242.11198,0.03232
1240.18323,0.03221
1238.25449,0.03211
1236.32574,0.03188
1234.39700,0.03155
1232.46825,0.03134
1230.53951,0.03142
1228.61076,0.03178
1226.68202,0.03234
1224.75327,0.03306
1222.82452,0.03370
1220.89578,0.03399
1218.96703,0.03412
1217.03829,0.03452
1215.10954,0.03505
1213.18080,0.03545
1211.25205,0.03581
1209.32331,0.03623
1207.39456,0.03662
1205.46582,0.03677
1203.53707,0.03659
1201.60833,0.03629
1199.67958,0.03614
1197.75084,0.03600
1195.82209,0.03573
1193.89335,0.03548
1191.96460,0.03527
1190.03585,0.03493
1188.10711,0.03454
1186.17836,0.03413
1184.24962,0.03364
1182.32087,0.03312
1180.39213,0.03272
1178.46338,0.03240
1176.53464,0.03205
1174.60589,0.03162
1172.67715,0.03107
1170.74840,0.03045
1168.81966,0.02990
1166.89091,0.02942
1164.96217,0.02895
1163.03342,0.02860
1161.10467,0.02859
1159.17593,0.02893
1157.24718,0.02926
1155.31844,0.02924
1153.38969,0.02889
1151.46095,0.02864
1149.53220,0.02869
1147.60346,0.02868
1145.67471,0.02841
1143.74597,0.02816
1141.81722,0.02808
1139.88848,0.02819
1137.95973,0.02837
1136.03099,0.02844
1134.10224,0.02842
1132.17350,0.02838
1130.24475,0.02841
1128.31600,0.02863
1126.38726,0.02891
1124.45851,0.02910
1122.52977,0.02936
1120.60102,0.02995
1118.67228,0.03097
1116.74353,0.03208
1114.81479,0.03281
1112.88604,0.03338
1110.95730,0.03429
1109.02855,0.03542
1107.09981,0.03643
1105.17106,0.03727
1103.24232,0.03781
1101.31357,0.03799
1099.38483,0.03822
1097.45608,0.03886
1095.52733,0.03963
1093.59859,0.04023
1091.66984,0.04086
1089.74110,0.04155
1087.81235,0.04204
1085.88361,0.04240
1083.95486,0.04282
1082.02612,0.04322
1080.09737,0.04338
1078.16863,0.04341
1076.23988,0.04352
1074.31114,0.04380
1072.38239,0.04427
1070.45365,0.04478
1068.52490,0.04517
1066.59615,0.04548
1064.66741,0.04574
1062.73866,0.04608
1060.80992,0.04660
1058.88117,0.04721
1056.95243,0.04781
1055.02368,0.04830
1053.09494,0.04860
1051.16619,0.04883
1049.23745,0.04924
1047.30870,0.04997
1045.37996,0.05073
1043.45121,0.05122
1041.52247,0.05157
1039.59372,0.05212
1037.66498,0.05271
1035.73623,0.05296
1033.80748,0.05303
1031.87874,0.05317
1029.94999,0.05308
1028.02125,0.05258
1026.09250,0.05203
1024.16376,0.05171
1022.23501,0.05140
1020.30627,0.05083
1018.37752,0.05025
1016.44878,0.04993
1014.52003,0.04981
1012.59129,0.04980
1010.66254,0.05003
1008.73380,0.05042
1006.80505,0.05077
1004.87631,0.05120
1002.94756,0.05190
1001.01881,0.05284
999.09007,0.05422
997.16132,0.05628
995.23258,0.05883
993.30383,0.06141
991.37509,0.06377
989.44634,0.06591
987.51760,0.06787
985.58885,0.06941
983.66011,0.07018
981.73136,0.07033
979.80262,0.07039
977.87387,0.07040
975.94513,0.07008
974.01638,0.06944
972.08763,0.06881
970.15889,0.06867
968.23014,0.06913
966.30140,0.06972
964.37265,0.07037
962.44391,0.07129
960.51516,0.07230
958.58642,0.07320
956.65767,0.07388
954.72893,0.07418
952.80018,0.07388
950.87144,0.07271
948.94269,0.07057
947.01395,0.06766
945.08520,0.06424
943.15646,0.06078
941.22771,0.05785
939.29896,0.05553
937.37022,0.05386
935.44147,0.05311
933.51273,0.05284
931.58398,0.05245
929.65524,0.05209
927.72649,0.05221
925.79775,0.05280
923.86900,0.05341
921.94026,0.05408
920.01151,0.05533
918.08277,0.05679
916.15402,0.05775
914.22528,0.05843
912.29653,0.05907
910.36779,0.05955
908.43904,0.05999
906.51029,0.06071
904.58155,0.06187
902.65280,0.06337
900.72406,0.06477
898.79531,0.06571
896.86657,0.06642
894.93782,0.06687
893.00908,0.06681
891.08033,0.06634
889.15159,0.06556
887.22284,0.06445
885.29410,0.06329
883.36535,0.06226
881.43661,0.06138
879.50786,0.06090
877.57911,0.06067
875.65037,0.06049
873.72162,0.06054
871.79288,0.06051
869.86413,0.06015
867.93539,0.05984
866.00664,0.05979
864.07790,0.06020
862.14915,0.06107
860.22041,0.06185
858.29166,0.06230
856.36292,0.06288
854.43417,0.06348
852.50543,0.06375
850.57668,0.06393
848.64794,0.06411
846.71919,0.06427
844.79044,0.06454
842.86170,0.06436
840.93295,0.06323
839.00421,0.06185
837.07546,0.06090
835.14672,0.06000
833.21797,0.05875
831.28923,0.05717
829.36048,0.05556
827.43174,0.05415
825.50299,0.05285
823.57425,0.05191
821.64550,0.05121
819.71676,0.05042
817.78801,0.05007
815.85926,0.05040
813.93052,0.05111
812.00177,0.05206
810.07303,0.05300
808.14428,0.05388
806.21554,0.05490
804.28679,0.05607
802.35805,0.05751
800.42930,0.05912
798.50056,0.06053
796.57181,0.06162
794.64307,0.06242
792.71432,0.06298
790.78558,0.06335
788.85683,0.06350
786.92809,0.06370
784.99934,0.06388
783.07059,0.06355
781.14185,0.06298
779.21310,0.06253
777.28436,0.06167
775.35561,0.06040
773.42687,0.05919
771.49812,0.05788
769.56938,0.05668
767.64063,0.05598
765.71189,0.05524
763.78314,0.05419
761.85440,0.05366
759.92565,0.05394
757.99691,0.05444
756.06816,0.05507
754.13942,0.05615
752.21067,0.05782
750.28192,0.05993
748.35318,0.06190
746.42443,0.06363
744.49569,0.06532
742.56694,0.06677
740.63820,0.06780
738.70945,0.06846
736.78071,0.06893
734.85196,0.06921
732.92322,0.06896
730.99447,0.06829
729.06573,0.06737
727.13698,0.06614
725.20824,0.06472
723.27949,0.06303
721.35074,0.06100
719.42200,0.05913
717.49325,0.05766
715.56451,0.05616
713.63576,0.05460
711.70702,0.05348
709.77827,0.05321
707.84953,0.05373
705.92078,0.05432
703.99204,0.05461
702.06329,0.05485
700.13455,0.05484
698.20580,0.05409
696.27706,0.05303
694.34831,0.05245
692.41957,0.05200
690.49082,0.05121
688.56207,0.05065
686.63333,0.05063
684.70458,0.05048
682.77584,0.04996
680.84709,0.04964
678.91835,0.04948
676.98960,0.04910
675.06086,0.04886
673.13211,0.04908
671.20337,0.04941
669.27462,0.04974
667.34588,0.05018
665.41713,0.05048
663.48839,0.05054
661.55964,0.05057
659.63090,0.05095
657.70215,0.05144
655.77340,0.05177
653.84466,0.05236
651.91591,0.05306
649.98717,0.05344
648.05842,0.05383
646.12968,0.05455
644.20093,0.05527
642.27219,0.05549
640.34344,0.05554
638.41470,0.05629
636.48595,0.05770
634.55721,0.05916
632.62846,0.06017
630.69972,0.06036
628.77097,0.05993
626.84222,0.05939
624.91348,0.05893
622.98473,0.05851
621.05599,0.05817
619.12724,0.05806
617.19850,0.05854
615.26975,0.05966
613.34101,0.06064
611.41226,0.06057
609.48352,0.05980
607.55477,0.05928
605.62603,0.05927
603.69728,0.05922
601.76854,0.05888
599.83979,0.05912
