4497.78948,-0.00825
4495.86076,-0.00836
4493.93203,-0.00843
4492.00330,-0.00850
4490.07458,-0.00842
4488.14585,-0.00817
4486.21712,-0.00798
4484.28840,-0.00799
4482.35967,-0.00800
4480.43095,-0.00784
4478.50222,-0.00777
4476.57349,-0.00792
4474.64477,-0.00808
4472.71604,-0.00815
4470.78732,-0.00813
4468.85859,-0.00810
4466.92986,-0.00811
4465.00114,-0.00809
4463.07241,-0.00800
4461.14368,-0.00799
4459.21496,-0.00806
4457.28623,-0.00810
4455.35751,-0.00799
4453.42878,-0.00778
4451.50005,-0.00767
4449.57133,-0.00781
4447.64260,-0.00801
4445.71387,-0.00804
4443.78515,-0.00791
4441.85642,-0.00773
4439.92770,-0.00764
4437.99897,-0.00769
4436.07024,-0.00787
4434.14152,-0.00805
4432.21279,-0.00811
4430.28407,-0.00803
4428.35534,-0.00795
4426.42661,-0.00782
4424.49789,-0.00764
4422.56916,-0.00765
4420.64043,-0.00784
4418.71171,-0.00790
4416.78298,-0.00780
4414.85426,-0.00768
4412.92553,-0.00760
4410.99680,-0.00761
4409.06808,-0.00766
4407.13935,-0.00774
4405.21062,-0.00779
4403.28190,-0.00778
4401.35317,-0.00774
4399.42445,-0.00769
4397.49572,-0.00765
4395.56699,-0.00762
4393.63827,-0.00758
4391.70954,-0.00749
4389.78082,-0.00747
4387.85209,-0.00757
4385.92336,-0.00762
4383.99464,-0.00755
4382.06591,-0.00744
4380.13718,-0.00736
4378.20846,-0.00739
4376.27973,-0.00755
4374.35101,-0.00772
4372.42228,-0.00783
4370.49355,-0.00785
4368.56483,-0.00779
4366.63610,-0.00770
4364.70737,-0.00764
4362.77865,-0.00752
4360.84992,-0.00745
4358.92120,-0.00759
4356.99247,-0.00776
4355.06374,-0.00774
4353.13502,-0.00767
4351.20629,-0.00766
4349.27757,-0.00761
4347.34884,-0.00753
4345.42011,-0.00751
4343.49139,-0.00749
4341.56266,-0.00742
4339.63393,-0.00740
4337.70521,-0.00748
4335.77648,-0.00751
4333.84776,-0.00744
4331.91903,-0.00742
4329.99030,-0.00749
4328.06158,-0.00749
4326.13285,-0.00746
4324.20412,-0.00746
4322.27540,-0.00740
4320.34667,-0.00732
4318.41795,-0.00729
4316.48922,-0.00738
4314.56049,-0.00756
4312.63177,-0.00765
4310.70304,-0.00757
4308.77432,-0.00739
4306.84559,-0.00725
4304.91686,-0.00726
4302.98814,-0.00743
4301.05941,-0.00757
4299.13068,-0.00758
4297.20196,-0.00752
4295.27323,-0.00743
4293.34451,-0.00730
4291.41578,-0.00720
4289.48705,-0.00717
4287.55833,-0.00726
4285.62960,-0.00742
4283.70087,-0.00749
4281.77215,-0.00740
4279.84342,-0.00731
4277.91470,-0.00735
4275.98597,-0.00742
4274.05724,-0.00742
4272.12852,-0.00736
4270.19979,-0.00732
4268.27107,-0.00735
4266.34234,-0.00739
4264.41361,-0.00739
4262.48489,-0.00737
4260.55616,-0.00736
4258.62743,-0.00732
4256.69871,-0.00722
4254.76998,-0.00713
4252.84126,-0.00716
4250.91253,-0.00731
4248.98380,-0.00749
4247.05508,-0.00751
4245.12635,-0.00739
4243.19762,-0.00726
4241.26890,-0.00717
4239.34017,-0.00715
4237.41145,-0.00729
4235.48272,-0.00745
4233.55399,-0.00742
4231.62527,-0.00730
4229.69654,-0.00727
4227.76782,-0.00726
4225.83909,-0.00717
4223.91036,-0.00704
4221.98164,-0.00697
4220.05291,-0.00703
4218.12418,-0.00724
4216.19546,-0.00736
4214.26673,-0.00727
4212.33801,-0.00715
4210.40928,-0.00716
4208.48055,-0.00719
4206.55183,-0.00711
4204.62310,-0.00702
4202.69437,-0.00697
4200.76565,-0.00697
4198.83692,-0.00709
4196.90820,-0.00717
4194.97947,-0.00712
4193.05074,-0.00710
4191.12202,-0.00714
4189.19329,-0.00712
4187.26456,-0.00714
4185.33584,-0.00720
4183.40711,-0.00722
4181.47839,-0.00721
4179.54966,-0.00716
4177.62093,-0.00706
4175.69221,-0.00693
4173.76348,-0.00686
4171.83476,-0.00691
4169.90603,-0.00697
4167.97730,-0.00692
4166.04858,-0.00682
4164.11985,-0.00681
4162.19112,-0.00688
4160.26240,-0.00696
4158.33367,-0.00702
4156.40495,-0.00704
4154.47622,-0.00698
4152.54749,-0.00693
4150.61877,-0.00697
4148.69004,-0.00702
4146.76131,-0.00699
4144.83259,-0.00689
4142.90386,-0.00676
4140.97514,-0.00669
4139.04641,-0.00669
4137.11768,-0.00669
4135.18896,-0.00669
4133.26023,-0.00680
4131.33151,-0.00697
4129.40278,-0.00701
4127.47405,-0.00695
4125.54533,-0.00688
4123.61660,-0.00685
4121.68787,-0.00686
4119.75915,-0.00687
4117.83042,-0.00681
4115.90170,-0.00678
4113.97297,-0.00682
4112.04424,-0.00686
4110.11552,-0.00678
4108.18679,-0.00655
4106.25806,-0.00633
4104.32934,-0.00637
4102.40061,-0.00664
4100.47189,-0.00689
4098.54316,-0.00693
4096.61443,-0.00688
4094.68571,-0.00687
4092.75698,-0.00683
4090.82826,-0.00666
4088.89953,-0.00651
4086.97080,-0.00647
4085.04208,-0.00643
4083.11335,-0.00643
4081.18462,-0.00648
4079.25590,-0.00653
4077.32717,-0.00657
4075.39845,-0.00655
4073.46972,-0.00650
4071.54099,-0.00651
4069.61227,-0.00657
4067.68354,-0.00660
4065.75481,-0.00657
4063.82609,-0.00654
4061.89736,-0.00655
4059.96864,-0.00658
4058.03991,-0.00663
4056.11118,-0.00668
4054.18246,-0.00672
4052.25373,-0.00677
4050.32501,-0.00676
4048.39628,-0.00662
4046.46755,-0.00632
4044.53883,-0.00613
4042.61010,-0.00625
4040.68137,-0.00645
4038.75265,-0.00660
4036.82392,-0.00665
4034.89520,-0.00652
4032.96647,-0.00633
4031.03774,-0.00628
4029.10902,-0.00625
4027.18029,-0.00610
4025.25156,-0.00602
4023.32284,-0.00613
4021.39411,-0.00621
4019.46539,-0.00619
4017.53666,-0.00615
4015.60793,-0.00620
4013.67921,-0.00629
4011.75048,-0.00623
4009.82176,-0.00605
4007.89303,-0.00602
4005.96430,-0.00621
4004.03558,-0.00639
4002.10685,-0.00648
4000.17812,-0.00651
3998.24940,-0.00637
3996.32067,-0.00611
3994.39195,-0.00588
3992.46322,-0.00570
3990.53449,-0.00568
3988.60577,-0.00593
3986.67704,-0.00611
3984.74831,-0.00600
3982.81959,-0.00584
3980.89086,-0.00584
3978.96214,-0.00575
3977.03341,-0.00532
3975.10468,-0.00495
3973.17596,-0.00506
3971.24723,-0.00534
3969.31851,-0.00565
3967.38978,-0.00594
3965.46105,-0.00582
3963.53233,-0.00526
3961.60360,-0.00489
3959.67487,-0.00492
3957.74615,-0.00504
3955.81742,-0.00522
3953.88870,-0.00530
3951.95997,-0.00480
3950.03124,-0.00395
3948.10252,-0.00378
3946.17379,-0.00408
3944.24506,-0.00406
3942.31634,-0.00426
3940.38761,-0.00491
3938.45889,-0.00536
3936.53016,-0.00520
3934.60143,-0.00421
3932.67271,-0.00304
3930.74398,-0.00320
3928.81526,-0.00407
3926.88653,-0.00402
3924.95780,-0.00339
3923.02908,-0.00345
3921.10035,-0.00369
3919.17162,-0.00337
3917.24290,-0.00348
3915.31417,-0.00453
3913.38545,-0.00547
3911.45672,-0.00580
3909.52799,-0.00543
3907.59927,-0.00410
3905.67054,-0.00168
3903.74181,0.00041
3901.81309,0.00041
3899.88436,-0.00099
3897.95564,-0.00271
3896.02691,-0.00337
3894.09818,-0.00275
3892.16946,-0.00222
3890.24073,-0.00302
3888.31201,-0.00333
3886.38328,-0.00245
3884.45455,-0.00155
3882.52583,-0.00162
3880.59710,-0.00260
3878.66837,-0.00373
3876.73965,-0.00391
3874.81092,-0.00295
3872.88220,-0.00136
3870.95347,-0.00045
3869.02474,-0.00096
3867.09602,-0.00108
3865.16729,-0.00014
3863.23856,-0.00043
3861.30984,-0.00207
3859.38111,-0.00269
3857.45239,-0.00187
3855.52366,-0.00005
3853.59493,0.00121
3851.66621,-0.00053
3849.73748,-0.00245
3847.80876,-0.00343
3845.88003,-0.00326
3843.95130,-0.00213
3842.02258,-0.00055
3840.09385,0.00102
3838.16512,0.00106
3836.23640,-0.00057
3834.30767,-0.00192
3832.37895,-0.00272
3830.45022,-0.00297
3828.52149,-0.00266
3826.59277,-0.00215
3824.66404,-0.00170
3822.73531,-0.00092
3820.80659,-0.00025
3818.87786,-0.00066
3816.94914,-0.00170
3815.02041,-0.00328
3813.09168,-0.00435
3811.16296,-0.00455
3809.23423,-0.00395
3807.30550,-0.00292
3805.37678,-0.00224
3803.44805,-0.00149
3801.51933,-0.00080
3799.59060,-0.00121
3797.66187,-0.00225
3795.73315,-0.00369
3793.80442,-0.00478
3791.87570,-0.00519
3789.94697,-0.00502
3788.01824,-0.00431
3786.08952,-0.00360
3784.16079,-0.00368
3782.23206,-0.00393
3780.30334,-0.00374
3778.37461,-0.00403
3776.44589,-0.00473
3774.51716,-0.00488
3772.58843,-0.00420
3770.65971,-0.00300
3768.73098,-0.00237
3766.80225,-0.00251
3764.87353,-0.00292
3762.94480,-0.00303
3761.01608,-0.00228
3759.08735,-0.00122
3757.15862,-0.00090
3755.22990,-0.00035
3753.30117,0.00164
3751.37245,0.00470
3749.44372,0.00468
3747.51499,0.00351
3745.58627,0.00247
3743.65754,0.00111
3741.72881,0.00046
3739.80009,0.00065
3737.87136,0.00174
3735.94264,0.00302
3734.01391,0.00161
3732.08518,-0.00081
3730.15646,-0.00177
3728.22773,-0.00133
3726.29900,-0.00020
3724.37028,0.00015
3722.44155,-0.00077
3720.51283,-0.00206
3718.58410,-0.00295
3716.65537,-0.00301
3714.72665,-0.00222
3712.79792,-0.00078
3710.86920,-0.00057
3708.94047,-0.00220
3707.01174,-0.00334
3705.08302,-0.00361
3703.15429,-0.00335
3701.22556,-0.00350
3699.29684,-0.00399
3697.36811,-0.00393
3695.43939,-0.00333
3693.51066,-0.00231
3691.58193,-0.00053
3689.65321,0.00042
3687.72448,-0.00153
3685.79575,-0.00323
3683.86703,-0.00390
3681.93830,-0.00360
3680.00958,-0.00233
3678.08085,-0.00054
3676.15212,0.00051
3674.22340,0.00005
3672.29467,0.00017
3670.36595,0.00011
3668.43722,-0.00186
3666.50849,-0.00356
3664.57977,-0.00435
3662.65104,-0.00449
3660.72231,-0.00419
3658.79359,-0.00358
3656.86486,-0.00283
3654.93614,-0.00236
3653.00741,-0.00166
3651.07868,0.00074
3649.14996,0.00336
3647.22123,0.00041
3645.29250,-0.00191
3643.36378,-0.00283
3641.43505,-0.00344
3639.50633,-0.00398
3637.57760,-0.00411
3635.64887,-0.00365
3633.72015,-0.00274
3631.79142,-0.00150
3629.86270,-0.00005
3627.93397,-0.00066
3626.00524,-0.00247
3624.07652,-0.00321
3622.14779,-0.00252
3620.21906,-0.00064
3618.29034,0.00027
3616.36161,0.00000
3614.43289,-0.00011
3612.50416,-0.00046
3610.57543,-0.00083
3608.64671,-0.00145
3606.71798,-0.00283
3604.78925,-0.00355
3602.86053,-0.00301
3600.93180,-0.00198
3599.00308,-0.00162
3597.07435,-0.00184
3595.14562,-0.00234
3593.21690,-0.00303
3591.28817,-0.00291
3589.35945,-0.00137
3587.43072,-0.00032
3585.50199,-0.00186
3583.57327,-0.00328
3581.64454,-0.00380
3579.71581,-0.00394
3577.78709,-0.00407
3575.85836,-0.00422
3573.92964,-0.00425
3572.00091,-0.00382
3570.07218,-0.00235
3568.14346,0.00019
3566.21473,0.00068
3564.28600,-0.00134
3562.35728,-0.00281
3560.42855,-0.00362
3558.49983,-0.00428
3556.57110,-0.00451
3554.64237,-0.00406
3552.71365,-0.00365
3550.78492,-0.00373
3548.85620,-0.00324
3546.92747,-0.00196
3544.99874,-0.00185
3543.07002,-0.00348
3541.14129,-0.00493
3539.21256,-0.00522
3537.28384,-0.00484
3535.35511,-0.00482
3533.42639,-0.00490
3531.49766,-0.00428
3529.56893,-0.00318
3527.64021,-0.00238
3525.71148,-0.00213
3523.78275,-0.00257
3521.85403,-0.00370
3519.92530,-0.00467
3517.99658,-0.00522
3516.06785,-0.00558
3514.13912,-0.00553
3512.21040,-0.00491
3510.28167,-0.00444
3508.35295,-0.00465
3506.42422,-0.00454
3504.49549,-0.00357
3502.56677,-0.00327
3500.63804,-0.00424
3498.70931,-0.00500
3496.78059,-0.00514
3494.85186,-0.00534
3492.92314,-0.00565
3490.99441,-0.00558
3489.06568,-0.00524
3487.13696,-0.00514
3485.20823,-0.00513
3483.27950,-0.00480
3481.35078,-0.00472
3479.42205,-0.00532
3477.49333,-0.00574
3475.56460,-0.00574
3473.63587,-0.00582
3471.70715,-0.00601
3469.77842,-0.00598
3467.84970,-0.00580
3465.92097,-0.00571
3463.99224,-0.00559
3462.06352,-0.00548
3460.13479,-0.00560
3458.20606,-0.00585
3456.27734,-0.00608
3454.34861,-0.00624
3452.41989,-0.00619
3450.49116,-0.00576
3448.56243,-0.00510
3446.63371,-0.00488
3444.70498,-0.00515
3442.77625,-0.00546
3440.84753,-0.00584
3438.91880,-0.00620
3436.99008,-0.00634
3435.06135,-0.00631
3433.13262,-0.00617
3431.20390,-0.00607
3429.27517,-0.00611
3427.34644,-0.00617
3425.41772,-0.00603
3423.48899,-0.00560
3421.56027,-0.00528
3419.63154,-0.00555
3417.70281,-0.00604
3415.77409,-0.00628
3413.84536,-0.00631
3411.91664,-0.00632
3409.98791,-0.00639
3408.05918,-0.00650
3406.13046,-0.00647
3404.20173,-0.00632
3402.27300,-0.00623
3400.34428,-0.00614
3398.41555,-0.00597
3396.48683,-0.00585
3394.55810,-0.00574
3392.62937,-0.00575
3390.70065,-0.00607
3388.77192,-0.00633
3386.84319,-0.00623
3384.91447,-0.00604
3382.98574,-0.00611
3381.05702,-0.00624
3379.12829,-0.00627
3377.19956,-0.00632
3375.27084,-0.00643
3373.34211,-0.00647
3371.41339,-0.00634
3369.48466,-0.00609
3367.55593,-0.00590
3365.62721,-0.00590
3363.69848,-0.00593
3361.76975,-0.00594
3359.84103,-0.00594
3357.91230,-0.00593
3355.98358,-0.00596
3354.05485,-0.00615
3352.12612,-0.00637
3350.19740,-0.00646
3348.26867,-0.00642
3346.33994,-0.00629
3344.41122,-0.00613
3342.48249,-0.00606
3340.55377,-0.00604
3338.62504,-0.00592
3336.69631,-0.00578
3334.76759,-0.00588
3332.83886,-0.00608
3330.91014,-0.00613
3328.98141,-0.00605
3327.05268,-0.00605
3325.12396,-0.00614
3323.19523,-0.00623
3321.26650,-0.00627
3319.33778,-0.00624
3317.40905,-0.00616
3315.48033,-0.00608
3313.55160,-0.00598
3311.62287,-0.00586
3309.69415,-0.00577
3307.76542,-0.00583
3305.83669,-0.00597
3303.90797,-0.00604
3301.97924,-0.00604
3300.05052,-0.00596
3298.12179,-0.00589
3296.19306,-0.00592
3294.26434,-0.00594
3292.33561,-0.00584
3290.40689,-0.00576
3288.47816,-0.00579
3286.54943,-0.00580
3284.62071,-0.00573
3282.69198,-0.00572
3280.76325,-0.00578
3278.83453,-0.00575
3276.90580,-0.00560
3274.97708,-0.00553
3273.04835,-0.00560
3271.11962,-0.00573
3269.19090,-0.00580
3267.26217,-0.00579
3265.33344,-0.00574
3263.40472,-0.00570
3261.47599,-0.00572
3259.54727,-0.00572
3257.61854,-0.00559
3255.68981,-0.00544
3253.76109,-0.00548
3251.83236,-0.00568
3249.90364,-0.00575
3247.97491,-0.00557
3246.04618,-0.00538
3244.11746,-0.00542
3242.18873,-0.00552
3240.26000,-0.00552
3238.33128,-0.00547
3236.40255,-0.00543
3234.47383,-0.00541
3232.54510,-0.00534
3230.61637,-0.00524
3228.68765,-0.00525
3226.75892,-0.00544
3224.83019,-0.00558
3222.90147,-0.00552
3220.97274,-0.00531
3219.04402,-0.00517
3217.11529,-0.00515
3215.18656,-0.00520
3213.25784,-0.00528
3211.32911,-0.00533
3209.40039,-0.00533
3207.47166,-0.00532
3205.54293,-0.00528
3203.61421,-0.00523
3201.68548,-0.00513
3199.75675,-0.00498
3197.82803,-0.00494
3195.89930,-0.00505
3193.97058,-0.00517
3192.04185,-0.00522
3190.11312,-0.00522
3188.18440,-0.00514
3186.25567,-0.00501
3184.32694,-0.00498
3182.39822,-0.00501
3180.46949,-0.00496
3178.54077,-0.00488
3176.61204,-0.00493
3174.68331,-0.00502
3172.75459,-0.00506
3170.82586,-0.00504
3168.89714,-0.00502
3166.96841,-0.00502
3165.03968,-0.00504
3163.11096,-0.00507
3161.18223,-0.00509
3159.25350,-0.00507
3157.32478,-0.00499
3155.39605,-0.00491
3153.46733,-0.00490
3151.53860,-0.00489
3149.60987,-0.00486
3147.68115,-0.00486
3145.75242,-0.00490
3143.82369,-0.00490
3141.89497,-0.00489
3139.96624,-0.00489
3138.03752,-0.00486
3136.10879,-0.00481
3134.18006,-0.00478
3132.25134,-0.00479
3130.32261,-0.00475
3128.39389,-0.00463
3126.46516,-0.00453
3124.53643,-0.00445
3122.60771,-0.00436
3120.67898,-0.00430
3118.75025,-0.00428
3116.82153,-0.00434
3114.89280,-0.00445
3112.96408,-0.00450
3111.03535,-0.00445
3109.10662,-0.00445
3107.17790,-0.00451
3105.24917,-0.00451
3103.32044,-0.00438
3101.39172,-0.00428
3099.46299,-0.00428
3097.53427,-0.00427
3095.60554,-0.00429
3093.67681,-0.00441
3091.74809,-0.00451
3089.81936,-0.00453
3087.89063,-0.00453
3085.96191,-0.00447
3084.03318,-0.00431
3082.10446,-0.00414
3080.17573,-0.00411
3078.24700,-0.00420
3076.31828,-0.00430
3074.38955,-0.00436
3072.46083,-0.00439
3070.53210,-0.00436
3068.60337,-0.00424
3066.67465,-0.00410
3064.74592,-0.00406
3062.81719,-0.00415
3060.88847,-0.00422
3058.95974,-0.00417
3057.03102,-0.00407
3055.10229,-0.00409
3053.17356,-0.00418
3051.24484,-0.00415
3049.31611,-0.00406
3047.38738,-0.00411
3045.45866,-0.00423
3043.52993,-0.00429
3041.60121,-0.00430
3039.67248,-0.00430
3037.74375,-0.00422
3035.81503,-0.00402
3033.88630,-0.00380
3031.95758,-0.00372
3030.02885,-0.00383
3028.10012,-0.00399
3026.17140,-0.00408
3024.24267,-0.00413
3022.31394,-0.00415
3020.38522,-0.00424
3018.45649,-0.00436
3016.52777,-0.00431
3014.59904,-0.00412
3012.67031,-0.00394
3010.74159,-0.00391
3008.81286,-0.00399
3006.88413,-0.00403
3004.95541,-0.00401
3003.02668,-0.00403
3001.09796,-0.00412
2999.16923,-0.00416
2997.24050,-0.00410
2995.31178,-0.00404
2993.38305,-0.00405
2991.45433,-0.00409
2989.52560,-0.00407
2987.59687,-0.00405
2985.66815,-0.00411
2983.73942,-0.00413
2981.81069,-0.00409
2979.88197,-0.00405
2977.95324,-0.00402
2976.02452,-0.00399
2974.09579,-0.00393
2972.16706,-0.00389
2970.23834,-0.00388
2968.30961,-0.00387
2966.38088,-0.00381
2964.45216,-0.00374
2962.52343,-0.00373
2960.59471,-0.00378
2958.66598,-0.00382
2956.73725,-0.00379
2954.80853,-0.00374
2952.87980,-0.00374
2950.95108,-0.00377
2949.02235,-0.00381
2947.09362,-0.00379
2945.16490,-0.00376
2943.23617,-0.00378
2941.30744,-0.00378
2939.37872,-0.00373
2937.44999,-0.00368
2935.52127,-0.00363
2933.59254,-0.00353
2931.66381,-0.00343
2929.73509,-0.00338
2927.80636,-0.00332
2925.87763,-0.00325
2923.94891,-0.00323
2922.02018,-0.00324
2920.09146,-0.00327
2918.16273,-0.00334
2916.23400,-0.00341
2914.30528,-0.00346
2912.37655,-0.00349
2910.44783,-0.00355
2908.51910,-0.00365
2906.59037,-0.00372
2904.66165,-0.00368
2902.73292,-0.00363
2900.80419,-0.00363
2898.87547,-0.00366
2896.94674,-0.00368
2895.01802,-0.00369
2893.08929,-0.00369
2891.16056,-0.00368
2889.23184,-0.00367
2887.30311,-0.00372
2885.37438,-0.00380
2883.44566,-0.00384
2881.51693,-0.00385
2879.58821,-0.00383
2877.65948,-0.00381
2875.73075,-0.00380
2873.80203,-0.00378
2871.87330,-0.00372
2869.94458,-0.00366
2868.01585,-0.00361
2866.08712,-0.00359
2864.15840,-0.00359
2862.22967,-0.00356
2860.30094,-0.00348
2858.37222,-0.00336
2856.44349,-0.00324
2854.51477,-0.00319
2852.58604,-0.00321
2850.65731,-0.00327
2848.72859,-0.00333
2846.79986,-0.00338
2844.87113,-0.00341
2842.94241,-0.00345
2841.01368,-0.00350
2839.08496,-0.00351
2837.15623,-0.00348
2835.22750,-0.00347
2833.29878,-0.00348
2831.37005,-0.00349
2829.44133,-0.00349
2827.51260,-0.00351
2825.58387,-0.00354
2823.65515,-0.00356
2821.72642,-0.00356
2819.79769,-0.00355
2817.86897,-0.00353
2815.94024,-0.00348
2814.01152,-0.00344
2812.08279,-0.00344
2810.15406,-0.00348
2808.22534,-0.00349
2806.29661,-0.00349
2804.36788,-0.00349
2802.43916,-0.00347
2800.51043,-0.00342
2798.58171,-0.00339
2796.65298,-0.00340
2794.72425,-0.00340
2792.79553,-0.00337
2790.86680,-0.00338
2788.93808,-0.00341
2787.00935,-0.00339
2785.08062,-0.00336
2783.15190,-0.00336
2781.22317,-0.00335
2779.29444,-0.00333
2777.36572,-0.00330
2775.43699,-0.00326
2773.50827,-0.00324
2771.57954,-0.00326
2769.65081,-0.00331
2767.72209,-0.00334
2765.79336,-0.00335
2763.86463,-0.00334
2761.93591,-0.00332
2760.00718,-0.00328
2758.07846,-0.00324
2756.14973,-0.00324
2754.22100,-0.00328
2752.29228,-0.00329
2750.36355,-0.00325
2748.43483,-0.00320
2746.50610,-0.00318
2744.57737,-0.00317
2742.64865,-0.00320
2740.71992,-0.00325
2738.79119,-0.00327
2736.86247,-0.00326
2734.93374,-0.00324
2733.00502,-0.00323
2731.07629,-0.00323
2729.14756,-0.00321
2727.21884,-0.00318
2725.29011,-0.00316
2723.36138,-0.00314
2721.43266,-0.00310
2719.50393,-0.00309
2717.57521,-0.00310
2715.64648,-0.00311
2713.71775,-0.00311
2711.78903,-0.00310
2709.86030,-0.00309
2707.93157,-0.00311
2706.00285,-0.00313
2704.07412,-0.00312
2702.14540,-0.00309
2700.21667,-0.00308
2698.28794,-0.00307
2696.35922,-0.00307
2694.43049,-0.00309
2692.50177,-0.00308
2690.57304,-0.00302
2688.64431,-0.00299
2686.71559,-0.00299
2684.78686,-0.00303
2682.85813,-0.00307
2680.92941,-0.00307
2679.00068,-0.00304
2677.07196,-0.00302
2675.14323,-0.00304
2673.21450,-0.00307
2671.28578,-0.00307
2669.35705,-0.00303
2667.42832,-0.00299
2665.49960,-0.00296
2663.57087,-0.00295
2661.64215,-0.00299
2659.71342,-0.00305
2657.78469,-0.00308
2655.85597,-0.00309
2653.92724,-0.00306
2651.99852,-0.00304
2650.06979,-0.00304
2648.14106,-0.00310
2646.21234,-0.00316
2644.28361,-0.00317
2642.35488,-0.00314
2640.42616,-0.00311
2638.49743,-0.00309
2636.56871,-0.00310
2634.63998,-0.00315
2632.71125,-0.00317
2630.78253,-0.00313
2628.85380,-0.00304
2626.92507,-0.00300
2624.99635,-0.00302
2623.06762,-0.00306
2621.13890,-0.00312
2619.21017,-0.00316
2617.28144,-0.00317
2615.35272,-0.00312
2613.42399,-0.00307
2611.49527,-0.00308
2609.56654,-0.00311
2607.63781,-0.00311
2605.70909,-0.00309
2603.78036,-0.00305
2601.85163,-0.00301
2599.92291,-0.00301
2597.99418,-0.00299
2596.06546,-0.00293
2594.13673,-0.00287
2592.20800,-0.00283
2590.27928,-0.00285
2588.35055,-0.00291
2586.42182,-0.00289
2584.49310,-0.00283
2582.56437,-0.00281
2580.63565,-0.00282
2578.70692,-0.00282
2576.77819,-0.00285
2574.84947,-0.00285
2572.92074,-0.00278
2570.99202,-0.00276
2569.06329,-0.00283
2567.13456,-0.00290
2565.20584,-0.00292
2563.27711,-0.00295
2561.34838,-0.00298
2559.41966,-0.00297
2557.49093,-0.00290
2555.56221,-0.00286
2553.63348,-0.00289
2551.70475,-0.00296
2549.77603,-0.00299
2547.84730,-0.00296
2545.91857,-0.00288
2543.98985,-0.00279
2542.06112,-0.00274
2540.13240,-0.00269
2538.20367,-0.00268
2536.27494,-0.00269
2534.34622,-0.00268
2532.41749,-0.00268
2530.48877,-0.00270
2528.56004,-0.00273
2526.63131,-0.00275
2524.70259,-0.00275
2522.77386,-0.00277
2520.84513,-0.00279
2518.91641,-0.00276
2516.98768,-0.00271
2515.05896,-0.00270
2513.13023,-0.00271
2511.20150,-0.00267
2509.27278,-0.00263
2507.34405,-0.00265
2505.41532,-0.00267
2503.48660,-0.00264
2501.55787,-0.00263
2499.62915,-0.00268
2497.70042,-0.00270
2495.77169,-0.00267
2493.84297,-0.00262
2491.91424,-0.00257
2489.98552,-0.00251
2488.05679,-0.00248
2486.12806,-0.00254
2484.19934,-0.00261
2482.27061,-0.00264
2480.34188,-0.00265
2478.41316,-0.00266
2476.48443,-0.00264
2474.55571,-0.00257
2472.62698,-0.00250
2470.69825,-0.00246
2468.76953,-0.00243
2466.84080,-0.00243
2464.91207,-0.00248
2462.98335,-0.00256
2461.05462,-0.00261
2459.12590,-0.00264
2457.19717,-0.00266
2455.26844,-0.00271
2453.33972,-0.00273
2451.41099,-0.00270
2449.48227,-0.00265
2447.55354,-0.00265
2445.62481,-0.00267
2443.69609,-0.00262
2441.76736,-0.00255
2439.83863,-0.00253
2437.90991,-0.00247
2435.98118,-0.00237
2434.05246,-0.00233
2432.12373,-0.00233
2430.19500,-0.00232
2428.26628,-0.00235
2426.33755,-0.00245
2424.40882,-0.00246
2422.48010,-0.00238
2420.55137,-0.00234
2418.62265,-0.00236
2416.69392,-0.00239
2414.76519,-0.00245
2412.83647,-0.00250
2410.90774,-0.00245
2408.97902,-0.00236
2407.05029,-0.00229
2405.12156,-0.00224
2403.19284,-0.00224
2401.26411,-0.00223
2399.33538,-0.00223
2397.40666,-0.00226
2395.47793,-0.00232
2393.54921,-0.00232
2391.62048,-0.00227
2389.69175,-0.00219
2387.76303,-0.00209
2385.83430,-0.00189
2383.90557,-0.00164
2381.97685,-0.00151
2380.04812,-0.00161
2378.11940,-0.00196
2376.19067,-0.00254
2374.26194,-0.00323
2372.33322,-0.00404
2370.40449,-0.00524
2368.47576,-0.00679
2366.54704,-0.00822
2364.61831,-0.00921
2362.68959,-0.00962
2360.76086,-0.00939
2358.83213,-0.00892
2356.90341,-0.00829
2354.97468,-0.00725
2353.04596,-0.00579
2351.11723,-0.00443
2349.18850,-0.00382
2347.25978,-0.00421
2345.33105,-0.00556
2343.40232,-0.00707
2341.47360,-0.00774
2339.54487,-0.00778
2337.61615,-0.00765
2335.68742,-0.00738
2333.75869,-0.00683
2331.82997,-0.00620
2329.90124,-0.00579
2327.97251,-0.00558
2326.04379,-0.00529
2324.11506,-0.00472
2322.18634,-0.00390
2320.25761,-0.00316
2318.32888,-0.00280
2316.40016,-0.00262
2314.47143,-0.00231
2312.54271,-0.00189
2310.61398,-0.00153
2308.68525,-0.00139
2306.75653,-0.00147
2304.82780,-0.00165
2302.89907,-0.00184
2300.97035,-0.00197
2299.04162,-0.00200
2297.11290,-0.00204
2295.18417,-0.00211
2293.25544,-0.00218
2291.32672,-0.00224
2289.39799,-0.00233
2287.46926,-0.00243
2285.54054,-0.00248
2283.61181,-0.00250
2281.68309,-0.00255
2279.75436,-0.00259
2277.82563,-0.00255
2275.89691,-0.00260
2273.96818,-0.00273
2272.03946,-0.00278
2270.11073,-0.00277
2268.18200,-0.00277
2266.25328,-0.00277
2264.32455,-0.00274
2262.39582,-0.00270
2260.46710,-0.00268
2258.53837,-0.00263
2256.60965,-0.00253
2254.68092,-0.00240
2252.75219,-0.00230
2250.82347,-0.00219
2248.89474,-0.00208
2246.96601,-0.00207
2245.03729,-0.00208
2243.10856,-0.00209
2241.17984,-0.00219
2239.25111,-0.00239
2237.32238,-0.00249
2235.39366,-0.00240
2233.46493,-0.00232
2231.53621,-0.00230
2229.60748,-0.00229
2227.67875,-0.00234
2225.75003,-0.00249
2223.82130,-0.00268
2221.89257,-0.00281
2219.96385,-0.00273
2218.03512,-0.00258
2216.10640,-0.00263
2214.17767,-0.00283
2212.24894,-0.00297
2210.32022,-0.00303
2208.39149,-0.00299
2206.46276,-0.00280
2204.53404,-0.00262
2202.60531,-0.00255
2200.67659,-0.00262
2198.74786,-0.00284
2196.81913,-0.00310
2194.89041,-0.00324
2192.96168,-0.00327
2191.03296,-0.00330
2189.10423,-0.00327
2187.17550,-0.00322
2185.24678,-0.00332
2183.31805,-0.00343
2181.38932,-0.00340
2179.46060,-0.00336
2177.53187,-0.00329
2175.60315,-0.00329
2173.67442,-0.00353
2171.74569,-0.00384
2169.81697,-0.00395
2167.88824,-0.00393
2165.95951,-0.00405
2164.03079,-0.00422
2162.10206,-0.00418
2160.17334,-0.00391
2158.24461,-0.00341
2156.31588,-0.00280
2154.38716,-0.00237
2152.45843,-0.00216
2150.52971,-0.00202
2148.60098,-0.00198
2146.67225,-0.00208
2144.74353,-0.00220
2142.81480,-0.00223
2140.88607,-0.00220
2138.95735,-0.00210
2137.02862,-0.00197
2135.09990,-0.00192
2133.17117,-0.00201
2131.24244,-0.00216
2129.31372,-0.00226
2127.38499,-0.00236
2125.45626,-0.00247
2123.52754,-0.00256
2121.59881,-0.00258
2119.67009,-0.00254
2117.74136,-0.00253
2115.81263,-0.00257
2113.88391,-0.00260
2111.95518,-0.00267
2110.02646,-0.00283
2108.09773,-0.00293
2106.16900,-0.00282
2104.24028,-0.00269
2102.31155,-0.00264
2100.38282,-0.00256
2098.45410,-0.00246
2096.52537,-0.00243
2094.59665,-0.00237
2092.66792,-0.00221
2090.73919,-0.00203
2088.81047,-0.00197
2086.88174,-0.00204
2084.95301,-0.00213
2083.02429,-0.00214
2081.09556,-0.00213
2079.16684,-0.00219
2077.23811,-0.00224
2075.30938,-0.00228
2073.38066,-0.00234
2071.45193,-0.00234
2069.52321,-0.00220
2067.59448,-0.00184
2065.66575,-0.00143
2063.73703,-0.00140
2061.80830,-0.00171
2059.87957,-0.00198
2057.95085,-0.00210
2056.02212,-0.00209
2054.09340,-0.00210
2052.16467,-0.00227
2050.23594,-0.00238
2048.30722,-0.00220
2046.37849,-0.00199
2044.44976,-0.00188
2042.52104,-0.00174
2040.59231,-0.00177
2038.66359,-0.00201
2036.73486,-0.00223
2034.80613,-0.00234
2032.87741,-0.00237
2030.94868,-0.00214
2029.01996,-0.00174
2027.09123,-0.00151
2025.16250,-0.00152
2023.23378,-0.00164
2021.30505,-0.00162
2019.37632,-0.00120
2017.44760,-0.00076
2015.51887,-0.00095
2013.59015,-0.00152
2011.66142,-0.00182
2009.73269,-0.00168
2007.80397,-0.00145
2005.87524,-0.00143
2003.94651,-0.00148
2002.01779,-0.00145
2000.08906,-0.00151
1998.16034,-0.00176
1996.23161,-0.00178
1994.30288,-0.00119
1992.37416,-0.00050
1990.44543,-0.00048
1988.51670,-0.00092
1986.58798,-0.00125
1984.65925,-0.00132
1982.73053,-0.00134
1980.80180,-0.00158
1978.87307,-0.00186
1976.94435,-0.00194
1975.01562,-0.00186
1973.08690,-0.00173
1971.15817,-0.00139
1969.22944,-0.00064
1967.30072,-0.00010
1965.37199,-0.00054
1963.44326,-0.00120
1961.51454,-0.00134
1959.58581,-0.00117
1957.65709,-0.00097
1955.72836,-0.00080
1953.79963,-0.00078
1951.87091,-0.00092
1949.94218,-0.00095
1948.01345,-0.00056
1946.08473,0.00012
1944.15600,0.00061
1942.22728,0.00039
1940.29855,-0.00037
1938.36982,-0.00092
1936.44110,-0.00100
1934.51237,-0.00091
1932.58365,-0.00099
1930.65492,-0.00119
1928.72619,-0.00124
1926.79747,-0.00088
1924.86874,0.00003
1922.94001,0.00074
1921.01129,0.00053
1919.08256,0.00012
1917.15384,-0.00021
1915.22511,-0.00062
1913.29638,-0.00069
1911.36766,-0.00021
1909.43893,0.00027
1907.51020,0.00004
1905.58148,-0.00054
1903.65275,-0.00085
1901.72403,-0.00089
1899.79530,-0.00078
1897.86657,-0.00050
1895.93785,-0.00022
1894.00912,-0.00020
1892.08040,-0.00010
1890.15167,0.00014
1888.22294,-0.00006
1886.29422,-0.00041
1884.36549,-0.00059
1882.43676,-0.00080
1880.50804,-0.00096
1878.57931,-0.00098
1876.65059,-0.00094
1874.72186,-0.00074
1872.79313,-0.00007
1870.86441,0.00135
1868.93568,0.00260
1867.00695,0.00178
1865.07823,0.00040
1863.14950,-0.00018
1861.22078,-0.00022
1859.29205,-0.00028
1857.36332,-0.00050
1855.43460,-0.00069
1853.50587,-0.00072
1851.57715,-0.00050
1849.64842,0.00023
1847.71969,0.00150
1845.79097,0.00278
1843.86224,0.00263
1841.93351,0.00122
1840.00479,0.00041
1838.07606,0.00031
1836.14734,0.00024
1834.21861,0.00013
1832.28988,0.00055
1830.36116,0.00132
1828.43243,0.00149
1826.50370,0.00131
1824.57498,0.00106
1822.64625,0.00042
1820.71753,-0.00010
1818.78880,-0.00018
1816.86007,-0.00015
1814.93135,0.00000
1813.00262,0.00064
1811.07390,0.00124
1809.14517,0.00102
1807.21644,0.00048
1805.28772,0.00043
1803.35899,0.00121
1801.43026,0.00214
1799.50154,0.00226
1797.57281,0.00223
1795.64409,0.00265
1793.71536,0.00328
1791.78663,0.00310
1789.85791,0.00168
1787.92918,0.00070
1786.00045,0.00065
1784.07173,0.00099
1782.14300,0.00133
1780.21428,0.00149
1778.28555,0.00134
1776.35682,0.00150
1774.42810,0.00241
1772.49937,0.00349
1770.57065,0.00328
1768.64192,0.00223
1766.71319,0.00120
1764.78447,0.00089
1762.85574,0.00143
1760.92701,0.00194
1758.99829,0.00200
1757.06956,0.00184
1755.14084,0.00162
1753.21211,0.00224
1751.28338,0.00426
1749.35466,0.00618
1747.42593,0.00588
1745.49720,0.00478
1743.56848,0.00377
1741.63975,0.00303
1739.71103,0.00280
1737.78230,0.00295
1735.85357,0.00371
1733.92485,0.00503
1731.99612,0.00440
1730.06740,0.00241
1728.13867,0.00080
1726.20994,0.00027
1724.28122,0.00063
1722.35249,0.00122
1720.42376,0.00207
1718.49504,0.00439
1716.56631,0.00706
1714.63759,0.00514
1712.70886,0.00279
1710.78013,0.00178
1708.85141,0.00197
1706.92268,0.00320
1704.99395,0.00455
1703.06523,0.00504
1701.13650,0.00570
1699.20778,0.00706
1697.27905,0.00646
1695.35032,0.00354
1693.42160,0.00173
1691.49287,0.00166
1689.56415,0.00271
1687.63542,0.00379
1685.70669,0.00452
1683.77797,0.00506
1681.84924,0.00436
1679.92051,0.00307
1677.99179,0.00214
1676.06306,0.00204
1674.13434,0.00243
1672.20561,0.00292
1670.27688,0.00306
1668.34816,0.00158
1666.41943,0.00039
1664.49070,0.00042
1662.56198,0.00075
1660.63325,0.00027
1658.70453,0.00011
1656.77580,0.00092
1654.84707,0.00253
1652.91835,0.00354
1650.98962,0.00319
1649.06090,0.00370
1647.13217,0.00387
1645.20344,0.00191
1643.27472,0.00060
1641.34599,0.00038
1639.41726,0.00100
1637.48854,0.00228
1635.55981,0.00209
1633.63109,0.00023
1631.70236,-0.00064
1629.77363,-0.00060
1627.84491,-0.00007
1625.91618,0.00055
1623.98745,0.00108
1622.05873,0.00097
1620.13000,0.00064
1618.20128,0.00086
1616.27255,0.00075
1614.34382,-0.00020
1612.41510,-0.00070
1610.48637,-0.00054
1608.55764,-0.00029
1606.62892,-0.00047
1604.70019,-0.00065
1602.77147,-0.00070
1600.84274,-0.00104
1598.91401,-0.00135
1596.98529,-0.00118
1595.05656,-0.00091
1593.12784,-0.00095
1591.19911,-0.00111
1589.27038,-0.00135
1587.34166,-0.00163
1585.41293,-0.00168
1583.48420,-0.00150
1581.55548,-0.00118
1579.62675,-0.00043
1577.69803,0.00093
1575.76930,0.00149
1573.84057,0.00073
1571.91185,0.00059
1569.98312,0.00101
1568.05439,0.00104
1566.12567,0.00095
1564.19694,0.00124
1562.26822,0.00184
1560.33949,0.00323
1558.41076,0.00593
1556.48204,0.00588
1554.55331,0.00453
1552.62459,0.00346
1550.69586,0.00294
1548.76713,0.00274
1546.83841,0.00353
1544.90968,0.00631
1542.98095,0.01062
1541.05223,0.01080
1539.12350,0.00593
1537.19478,0.00457
1535.26605,0.00480
1533.33732,0.00465
1531.40860,0.00366
1529.47987,0.00372
1527.55114,0.00532
1525.62242,0.00729
1523.69369,0.00853
1521.76497,0.00871
1519.83624,0.00760
1517.90751,0.00697
1515.97879,0.00620
1514.05006,0.00544
1512.12134,0.00595
1510.19261,0.00805
1508.26388,0.01032
1506.33516,0.00649
1504.40643,0.00349
1502.47770,0.00306
1500.54898,0.00349
1498.62025,0.00419
1496.69153,0.00362
1494.76280,0.00222
1492.83407,0.00211
1490.90535,0.00384
1488.97662,0.00525
1487.04789,0.00320
1485.11917,0.00120
1483.19044,0.00049
1481.26172,0.00046
1479.33299,0.00064
1477.40426,0.00159
1475.47554,0.00369
1473.54681,0.00509
1471.61809,0.00300
1469.68936,0.00110
1467.76063,0.00072
1465.83191,0.00107
1463.90318,0.00106
1461.97445,0.00101
1460.04573,0.00215
1458.11700,0.00523
1456.18828,0.00562
1454.25955,0.00300
1452.33082,0.00150
1450.40210,0.00108
1448.47337,0.00117
1446.54464,0.00071
1444.61592,-0.00009
1442.68719,-0.00045
1440.75847,-0.00017
1438.82974,0.00085
1436.90101,0.00224
1434.97229,0.00226
1433.04356,0.00162
1431.11484,0.00138
1429.18611,0.00105
1427.25738,0.00063
1425.32866,0.00072
1423.39993,0.00115
1421.47120,0.00176
1419.54248,0.00286
1417.61375,0.00266
1415.68503,0.00108
1413.75630,0.00024
1411.82757,0.00016
1409.89885,0.00002
1407.97012,-0.00009
1406.04139,0.00023
1404.11267,0.00034
1402.18394,0.00029
1400.25522,0.00109
1398.32649,0.00259
1396.39776,0.00328
1394.46904,0.00223
1392.54031,0.00074
1390.61159,0.00036
1388.68286,0.00103
1386.75413,0.00119
1384.82541,0.00017
1382.89668,-0.00050
1380.96795,-0.00037
1379.03923,0.00011
1377.11050,0.00075
1375.18178,0.00147
1373.25305,0.00130
1371.32432,0.00047
1369.39560,-0.00000
1367.46687,-0.00020
1365.53814,0.00015
1363.60942,0.00121
1361.68069,0.00141
1359.75197,0.00030
1357.82324,-0.00043
1355.89451,-0.00056
1353.96579,-0.00069
1352.03706,-0.00089
1350.10834,-0.00090
1348.17961,-0.00093
1346.25088,-0.00106
1344.32216,-0.00089
1342.39343,0.00021
1340.46470,0.00218
1338.53598,0.00269
1336.60725,0.00101
1334.67853,-0.00045
1332.74980,-0.00099
1330.82107,-0.00104
1328.89235,-0.00108
1326.96362,-0.00113
1325.03489,-0.00100
1323.10617,-0.00059
1321.17744,0.00014
1319.24872,0.00079
1317.31999,0.00085
1315.39126,0.00071
1313.46254,0.00054
1311.53381,0.00002
1309.60509,-0.00050
1307.67636,-0.00077
1305.74763,-0.00096
1303.81891,-0.00110
1301.89018,-0.00115
1299.96145,-0.00109
1298.03273,-0.00094
1296.10400,-0.00086
1294.17528,-0.00089
1292.24655,-0.00078
1290.31782,-0.00045
1288.38910,-0.00028
1286.46037,-0.00050
1284.53164,-0.00083
1282.60292,-0.00093
1280.67419,-0.00093
1278.74547,-0.00097
1276.81674,-0.00101
1274.88801,-0.00090
1272.95929,-0.00058
1271.03056,-0.00025
1269.10183,-0.00012
1267.17311,-0.00012
1265.24438,-0.00009
1263.31566,0.00005
1261.38693,0.00024
1259.45820,0.00017
1257.52948,-0.00021
1255.60075,-0.00061
1253.67203,-0.00088
1251.74330,-0.00110
1249.81457,-0.00126
1247.88585,-0.00131
1245.95712,-0.00122
1244.02839,-0.00115
1242.09967,-0.00118
1240.17094,-0.00121
1238.24222,-0.00119
1236.31349,-0.00119
1234.38476,-0.00119
1232.45604,-0.00116
1230.52731,-0.00109
1228.59858,-0.00101
1226.66986,-0.00093
1224.74113,-0.00092
1222.81241,-0.00098
1220.88368,-0.00103
1218.95495,-0.00107
1217.02623,-0.00110
1215.09750,-0.00107
1213.16878,-0.00099
1211.24005,-0.00100
1209.31132,-0.00108
1207.38260,-0.00114
1205.45387,-0.00114
1203.52514,-0.00112
1201.59642,-0.00107
1199.66769,-0.00103
1197.73897,-0.00104
1195.81024,-0.00110
1193.88151,-0.00113
1191.95279,-0.00105
1190.02406,-0.00095
1188.09533,-0.00087
1186.16661,-0.00082
1184.23788,-0.00081
1182.30916,-0.00083
1180.38043,-0.00086
1178.45170,-0.00088
1176.52298,-0.00084
1174.59425,-0.00080
1172.66553,-0.00085
1170.73680,-0.00093
1168.80807,-0.00095
1166.87935,-0.00095
1164.95062,-0.00092
1163.02189,-0.00090
1161.09317,-0.00089
1159.16444,-0.00088
1157.23572,-0.00089
1155.30699,-0.00097
1153.37826,-0.00107
1151.44954,-0.00116
1149.52081,-0.00121
1147.59208,-0.00120
1145.66336,-0.00113
1143.73463,-0.00109
1141.80591,-0.00109
1139.87718,-0.00109
1137.94845,-0.00107
1136.01973,-0.00106
1134.09100,-0.00109
1132.16228,-0.00116
1130.23355,-0.00119
1128.30482,-0.00119
1126.37610,-0.00119
1124.44737,-0.00113
1122.51864,-0.00106
1120.58992,-0.00104
1118.66119,-0.00101
1116.73247,-0.00088
1114.80374,-0.00076
1112.87501,-0.00070
1110.94629,-0.00065
1109.01756,-0.00059
1107.08883,-0.00057
1105.16011,-0.00055
1103.23138,-0.00049
1101.30266,-0.00039
1099.37393,-0.00029
1097.44520,-0.00025
1095.51648,-0.00024
1093.58775,-0.00024
1091.65903,-0.00024
1089.73030,-0.00026
1087.80157,-0.00031
1085.87285,-0.00037
1083.94412,-0.00042
1082.01539,-0.00045
1080.08667,-0.00043
1078.15794,-0.00039
1076.22922,-0.00039
1074.30049,-0.00042
1072.37176,-0.00044
1070.44304,-0.00047
1068.51431,-0.00049
1066.58558,-0.00049
1064.65686,-0.00054
1062.72813,-0.00064
1060.79941,-0.00067
1058.87068,-0.00060
1056.94195,-0.00057
1055.01323,-0.00059
1053.08450,-0.00057
1051.15578,-0.00050
1049.22705,-0.00047
1047.29832,-0.00046
1045.36960,-0.00050
1043.44087,-0.00056
1041.51214,-0.00061
1039.58342,-0.00064
1037.65469,-0.00066
1035.72597,-0.00061
1033.79724,-0.00046
1031.86851,-0.00031
1029.93979,-0.00025
1028.01106,-0.00028
1026.08233,-0.00031
1024.15361,-0.00022
1022.22488,-0.00007
1020.29616,0.00001
1018.36743,0.00001
1016.43870,-0.00002
1014.50998,-0.00008
1012.58125,-0.00022
1010.65253,-0.00032
1008.72380,-0.00035
1006.79507,-0.00041
1004.86635,-0.00051
1002.93762,-0.00059
1001.00889,-0.00069
999.08017,-0.00078
997.15144,-0.00081
995.22272,-0.00082
993.29399,-0.00079
991.36526,-0.00077
989.43654,-0.00087
987.50781,-0.00101
985.57908,-0.00095
983.65036,-0.00076
981.72163,-0.00065
979.79291,-0.00070
977.86418,-0.00089
975.93545,-0.00109
974.00673,-0.00115
972.07800,-0.00104
970.14928,-0.00095
968.22055,-0.00093
966.29182,-0.00088
964.36310,-0.00088
962.43437,-0.00094
960.50564,-0.00097
958.57692,-0.00104
956.64819,-0.00115
954.71947,-0.00119
952.79074,-0.00122
950.86201,-0.00132
948.93329,-0.00134
947.00456,-0.00120
945.07583,-0.00102
943.14711,-0.00087
941.21838,-0.00080
939.28966,-0.00085
937.36093,-0.00092
935.43220,-0.00089
933.50348,-0.00084
931.57475,-0.00081
929.64603,-0.00084
927.71730,-0.00090
925.78857,-0.00096
923.85985,-0.00101
921.93112,-0.00107
920.00239,-0.00113
918.07367,-0.00116
916.14494,-0.00117
914.21622,-0.00116
912.28749,-0.00110
910.35876,-0.00106
908.43004,-0.00115
906.50131,-0.00125
904.57258,-0.00125
902.64386,-0.00123
900.71513,-0.00117
898.78641,-0.00103
896.85768,-0.00101
894.92895,-0.00104
893.00023,-0.00099
891.07150,-0.00112
889.14277,-0.00141
887.21405,-0.00136
885.28532,-0.00111
883.35660,-0.00106
881.42787,-0.00105
879.49914,-0.00087
877.57042,-0.00072
875.64169,-0.00077
873.71297,-0.00092
871.78424,-0.00101
869.85551,-0.00096
867.92679,-0.00090
865.99806,-0.00093
864.06933,-0.00088
862.14061,-0.00066
860.21188,-0.00029
858.28316,-0.00007
856.35443,-0.00024
854.42570,-0.00053
852.49698,-0.00068
850.56825,-0.00066
848.63952,-0.00057
846.71080,-0.00051
844.78207,-0.00052
842.85335,-0.00058
840.92462,-0.00055
838.99589,-0.00053
837.06717,-0.00072
835.13844,-0.00085
833.20972,-0.00067
831.28099,-0.00045
829.35226,-0.00043
827.42354,-0.00044
825.49481,-0.00037
823.56608,-0.00030
821.63736,-0.00010
819.70863,0.00022
817.77991,0.00027
815.85118,0.00001
813.92245,-0.00007
811.99373,0.00020
810.06500,0.00047
808.13627,0.00047
806.20755,0.00037
804.27882,0.00042
802.35010,0.00051
800.42137,0.00054
798.49264,0.00052
796.56392,0.00042
794.63519,0.00030
792.70647,0.00022
790.77774,0.00001
788.84901,-0.00038
786.92029,-0.00070
784.99156,-0.00083
783.06283,-0.00101
781.13411,-0.00121
779.20538,-0.00121
777.27666,-0.00087
775.34793,-0.00016
773.41920,0.00042
771.49048,0.00029
769.56175,-0.00034
767.63302,-0.00083
765.70430,-0.00098
763.77557,-0.00101
761.84685,-0.00098
759.91812,-0.00090
757.98939,-0.00080
756.06067,-0.00065
754.13194,-0.00051
752.20322,-0.00066
750.27449,-0.00107
748.34576,-0.00128
746.41704,-0.00123
744.48831,-0.00108
742.55958,-0.00076
740.63086,-0.00050
738.70213,-0.00076
736.77341,-0.00118
734.84468,-0.00124
732.91595,-0.00123
730.98723,-0.00137
729.05850,-0.00129
727.12977,-0.00108
725.20105,-0.00101
723.27232,-0.00086
721.34360,-0.00065
719.41487,-0.00068
717.48614,-0.00078
715.55742,-0.00072
713.62869,-0.00067
711.69997,-0.00071
709.77124,-0.00073
707.84251,-0.00069
705.91379,-0.00057
703.98506,-0.00047
702.05633,-0.00048
700.12761,-0.00048
698.19888,-0.00042
696.27016,-0.00041
694.34143,-0.00049
692.41270,-0.00057
690.48398,-0.00062
688.55525,-0.00076
686.62652,-0.00098
684.69780,-0.00109
682.76907,-0.00121
680.84035,-0.00144
678.91162,-0.00158
676.98289,-0.00152
675.05417,-0.00147
673.12544,-0.00156
671.19672,-0.00168
669.26799,-0.00191
667.33926,-0.00193
665.41054,-0.00141
663.48181,-0.00090
661.55308,-0.00059
659.62436,-0.00046
657.69563,-0.00063
655.76691,-0.00102
653.83818,-0.00115
651.90945,-0.00092
649.98073,-0.00084
648.05200,-0.00105
646.12327,-0.00108
644.19455,-0.00083
642.26582,-0.00053
640.33710,-0.00026
638.40837,-0.00006
636.47964,0.00004
634.55092,0.00001
632.62219,-0.00032
630.69347,-0.00097
628.76474,-0.00182
626.83601,-0.00279
624.90729,-0.00381
622.97856,-0.00475
621.04983,-0.00524
619.12111,-0.00463
617.19238,-0.00245
615.26366,-0.00039
613.33493,-0.00072
611.40620,-0.00339
609.47748,-0.00502
607.54875,-0.00380
605.62002,-0.00279
603.69130,-0.00252
601.76257,-0.00126
599.83385,0.00012
