4497.78948,-0.00801
4495.86076,-0.00811
4493.93203,-0.00809
4492.00330,-0.00803
4490.07458,-0.00791
4488.14585,-0.00777
4486.21712,-0.00773
4484.28840,-0.00785
4482.35967,-0.00789
4480.43095,-0.00777
4478.50222,-0.00772
4476.57349,-0.00783
4474.64477,-0.00795
4472.71604,-0.00794
4470.78732,-0.00787
4468.85859,-0.00789
4466.92986,-0.00795
4465.00114,-0.00782
4463.07241,-0.00765
4461.14368,-0.00778
4459.21496,-0.00810
4457.28623,-0.00816
4455.35751,-0.00798
4453.42878,-0.00782
4451.50005,-0.00777
4449.57133,-0.00787
4447.64260,-0.00800
4445.71387,-0.00793
4443.78515,-0.00775
4441.85642,-0.00765
4439.92770,-0.00764
4437.99897,-0.00763
4436.07024,-0.00764
4434.14152,-0.00778
4432.21279,-0.00793
4430.28407,-0.00787
4428.35534,-0.00769
4426.42661,-0.00757
4424.49789,-0.00759
4422.56916,-0.00770
4420.64043,-0.00776
4418.71171,-0.00765
4416.78298,-0.00749
4414.85426,-0.00745
4412.92553,-0.00749
4410.99680,-0.00749
4409.06808,-0.00753
4407.13935,-0.00767
4405.21062,-0.00777
4403.28190,-0.00767
4401.35317,-0.00753
4399.42445,-0.00751
4397.49572,-0.00751
4395.56699,-0.00746
4393.63827,-0.00738
4391.70954,-0.00735
4389.78082,-0.00737
4387.85209,-0.00741
4385.92336,-0.00744
4383.99464,-0.00745
4382.06591,-0.00742
4380.13718,-0.00737
4378.20846,-0.00733
4376.27973,-0.00738
4374.35101,-0.00751
4372.42228,-0.00763
4370.49355,-0.00763
4368.56483,-0.00754
4366.63610,-0.00744
4364.70737,-0.00739
4362.77865,-0.00732
4360.84992,-0.00725
4358.92120,-0.00732
4356.99247,-0.00746
4355.06374,-0.00753
4353.13502,-0.00753
4351.20629,-0.00751
4349.27757,-0.00747
4347.34884,-0.00751
4345.42011,-0.00758
4343.49139,-0.00756
4341.56266,-0.00749
4339.63393,-0.00744
4337.70521,-0.00740
4335.77648,-0.00735
4333.84776,-0.00730
4331.91903,-0.00730
4329.99030,-0.00728
4328.06158,-0.00724
4326.13285,-0.00724
4324.20412,-0.00726
4322.27540,-0.00721
4320.34667,-0.00714
4318.41795,-0.00710
4316.48922,-0.00712
4314.56049,-0.00717
4312.63177,-0.00724
4310.70304,-0.00728
4308.77432,-0.00724
4306.84559,-0.00717
4304.91686,-0.00717
4302.98814,-0.00726
4301.05941,-0.00736
4299.13068,-0.00739
4297.20196,-0.00734
4295.27323,-0.00728
4293.34451,-0.00720
4291.41578,-0.00711
4289.48705,-0.00710
4287.55833,-0.00717
4285.62960,-0.00725
4283.70087,-0.00725
4281.77215,-0.00720
4279.84342,-0.00716
4277.91470,-0.00715
4275.98597,-0.00716
4274.05724,-0.00716
4272.12852,-0.00714
4270.19979,-0.00718
4268.27107,-0.00728
4266.34234,-0.00726
4264.41361,-0.00714
4262.48489,-0.00710
4260.55616,-0.00716
4258.62743,-0.00717
4256.69871,-0.00706
4254.76998,-0.00698
4252.84126,-0.00699
4250.91253,-0.00709
4248.98380,-0.00726
4247.05508,-0.00736
4245.12635,-0.00730
4243.19762,-0.00720
4241.26890,-0.00712
4239.34017,-0.00705
4237.41145,-0.00704
4235.48272,-0.00712
4233.55399,-0.00723
4231.62527,-0.00726
4229.69654,-0.00718
4227.76782,-0.00710
4225.83909,-0.00710
4223.91036,-0.00705
4221.98164,-0.00699
4220.05291,-0.00706
4218.12418,-0.00722
4216.19546,-0.00728
4214.26673,-0.00717
4212.33801,-0.00702
4210.40928,-0.00696
4208.48055,-0.00698
4206.55183,-0.00697
4204.62310,-0.00691
4202.69437,-0.00683
4200.76565,-0.00683
4198.83692,-0.00697
4196.90820,-0.00704
4194.97947,-0.00690
4193.05074,-0.00676
4191.12202,-0.00684
4189.19329,-0.00697
4187.26456,-0.00696
4185.33584,-0.00688
4183.40711,-0.00680
4181.47839,-0.00684
4179.54966,-0.00698
4177.62093,-0.00706
4175.69221,-0.00697
4173.76348,-0.00685
4171.83476,-0.00686
4169.90603,-0.00691
4167.97730,-0.00687
4166.04858,-0.00673
4164.11985,-0.00665
4162.19112,-0.00668
4160.26240,-0.00668
4158.33367,-0.00664
4156.40495,-0.00669
4154.47622,-0.00682
4152.54749,-0.00689
4150.61877,-0.00687
4148.69004,-0.00680
4146.76131,-0.00676
4144.83259,-0.00679
4142.90386,-0.00677
4140.97514,-0.00664
4139.04641,-0.00653
4137.11768,-0.00645
4135.18896,-0.00637
4133.26023,-0.00637
4131.33151,-0.00645
4129.40278,-0.00657
4127.47405,-0.00669
4125.54533,-0.00677
4123.61660,-0.00679
4121.68787,-0.00676
4119.75915,-0.00672
4117.83042,-0.00672
4115.90170,-0.00673
4113.97297,-0.00674
4112.04424,-0.00673
4110.11552,-0.00669
4108.18679,-0.00653
4106.25806,-0.00631
4104.32934,-0.00629
4102.40061,-0.00647
4100.47189,-0.00657
4098.54316,-0.00653
4096.61443,-0.00651
4094.68571,-0.00654
4092.75698,-0.00650
4090.82826,-0.00637
4088.89953,-0.00629
4086.97080,-0.00631
4085.04208,-0.00630
4083.11335,-0.00622
4081.18462,-0.00617
4079.25590,-0.00625
4077.32717,-0.00639
4075.39845,-0.00640
4073.46972,-0.00630
4071.54099,-0.00627
4069.61227,-0.00636
4067.68354,-0.00643
4065.75481,-0.00642
4063.82609,-0.00637
4061.89736,-0.00630
4059.96864,-0.00627
4058.03991,-0.00633
4056.11118,-0.00634
4054.18246,-0.00630
4052.25373,-0.00637
4050.32501,-0.00647
4048.39628,-0.00639
4046.46755,-0.00609
4044.53883,-0.00589
4042.61010,-0.00599
4040.68137,-0.00624
4038.75265,-0.00642
4036.82392,-0.00641
4034.89520,-0.00624
4032.96647,-0.00614
4031.03774,-0.00617
4029.10902,-0.00617
4027.18029,-0.00602
4025.25156,-0.00591
4023.32284,-0.00595
4021.39411,-0.00596
4019.46539,-0.00592
4017.53666,-0.00593
4015.60793,-0.00593
4013.67921,-0.00589
4011.75048,-0.00586
4009.82176,-0.00574
4007.89303,-0.00571
4005.96430,-0.00594
4004.03558,-0.00618
4002.10685,-0.00625
4000.17812,-0.00620
3998.24940,-0.00604
3996.32067,-0.00578
3994.39195,-0.00558
3992.46322,-0.00542
3990.53449,-0.00541
3988.60577,-0.00569
3986.67704,-0.00588
3984.74831,-0.00572
3982.81959,-0.00551
3980.89086,-0.00551
3978.96214,-0.00547
3977.03341,-0.00511
3975.10468,-0.00478
3973.17596,-0.00483
3971.24723,-0.00503
3969.31851,-0.00535
3967.38978,-0.00571
3965.46105,-0.00569
3963.53233,-0.00519
3961.60360,-0.00481
3959.67487,-0.00474
3957.74615,-0.00472
3955.81742,-0.00478
3953.88870,-0.00480
3951.95997,-0.00433
3950.03124,-0.00353
3948.10252,-0.00339
3946.17379,-0.00371
3944.24506,-0.00374
3942.31634,-0.00397
3940.38761,-0.00465
3938.45889,-0.00517
3936.53016,-0.00509
3934.60143,-0.00412
3932.67271,-0.00285
3930.74398,-0.00286
3928.81526,-0.00365
3926.88653,-0.00355
3924.95780,-0.00288
3923.02908,-0.00304
3921.10035,-0.00339
3919.17162,-0.00305
3917.24290,-0.00301
3915.31417,-0.00400
3913.38545,-0.00502
3911.45672,-0.00545
3909.52799,-0.00509
3907.59927,-0.00369
3905.67054,-0.00113
3903.74181,0.00106
3901.81309,0.00113
3899.88436,-0.00026
3897.95564,-0.00216
3896.02691,-0.00305
3894.09818,-0.00254
3892.16946,-0.00196
3890.24073,-0.00275
3888.31201,-0.00307
3886.38328,-0.00200
3884.45455,-0.00096
3882.52583,-0.00116
3880.59710,-0.00219
3878.66837,-0.00331
3876.73965,-0.00347
3874.81092,-0.00241
3872.88220,-0.00074
3870.95347,0.00023
3869.02474,-0.00024
3867.09602,-0.00060
3865.16729,-0.00002
3863.23856,-0.00037
3861.30984,-0.00185
3859.38111,-0.00242
3857.45239,-0.00168
3855.52366,0.00022
3853.59493,0.00195
3851.66621,0.00015
3849.73748,-0.00203
3847.80876,-0.00310
3845.88003,-0.00289
3843.95130,-0.00158
3842.02258,0.00030
3840.09385,0.00219
3838.16512,0.00222
3836.23640,0.00026
3834.30767,-0.00131
3832.37895,-0.00218
3830.45022,-0.00247
3828.52149,-0.00221
3826.59277,-0.00167
3824.66404,-0.00112
3822.73531,-0.00019
3820.80659,0.00068
3818.87786,0.00022
3816.94914,-0.00098
3815.02041,-0.00276
3813.09168,-0.00403
3811.16296,-0.00433
3809.23423,-0.00372
3807.30550,-0.00255
3805.37678,-0.00170
3803.44805,-0.00071
3801.51933,0.00029
3799.59060,-0.00017
3797.66187,-0.00136
3795.73315,-0.00304
3793.80442,-0.00435
3791.87570,-0.00481
3789.94697,-0.00462
3788.01824,-0.00395
3786.08952,-0.00325
3784.16079,-0.00326
3782.23206,-0.00344
3780.30334,-0.00330
3778.37461,-0.00370
3776.44589,-0.00448
3774.51716,-0.00457
3772.58843,-0.00379
3770.65971,-0.00262
3768.73098,-0.00194
3766.80225,-0.00189
3764.87353,-0.00222
3762.94480,-0.00240
3761.01608,-0.00168
3759.08735,-0.00053
3757.15862,-0.00024
3755.22990,0.00023
3753.30117,0.00245
3751.37245,0.00609
3749.44372,0.00592
3747.51499,0.00443
3745.58627,0.00343
3743.65754,0.00215
3741.72881,0.00147
3739.80009,0.00171
3737.87136,0.00320
3735.94264,0.00511
3734.01391,0.00346
3732.08518,0.00040
3730.15646,-0.00096
3728.22773,-0.00070
3726.29900,0.00047
3724.37028,0.00091
3722.44155,-0.00007
3720.51283,-0.00148
3718.58410,-0.00244
3716.65537,-0.00255
3714.72665,-0.00162
3712.79792,0.00036
3710.86920,0.00093
3708.94047,-0.00110
3707.01174,-0.00259
3705.08302,-0.00309
3703.15429,-0.00292
3701.22556,-0.00295
3699.29684,-0.00343
3697.36811,-0.00350
3695.43939,-0.00290
3693.51066,-0.00164
3691.58193,0.00065
3689.65321,0.00188
3687.72448,-0.00056
3685.79575,-0.00259
3683.86703,-0.00336
3681.93830,-0.00313
3680.00958,-0.00186
3678.08085,0.00014
3676.15212,0.00167
3674.22340,0.00130
3672.29467,0.00124
3670.36595,0.00103
3668.43722,-0.00122
3666.50849,-0.00315
3664.57977,-0.00404
3662.65104,-0.00418
3660.72231,-0.00381
3658.79359,-0.00307
3656.86486,-0.00216
3654.93614,-0.00165
3653.00741,-0.00088
3651.07868,0.00188
3649.14996,0.00505
3647.22123,0.00164
3645.29250,-0.00123
3643.36378,-0.00243
3641.43505,-0.00304
3639.50633,-0.00348
3637.57760,-0.00359
3635.64887,-0.00316
3633.72015,-0.00223
3631.79142,-0.00092
3629.86270,0.00069
3627.93397,0.00011
3626.00524,-0.00183
3624.07652,-0.00264
3622.14779,-0.00189
3620.21906,0.00008
3618.29034,0.00098
3616.36161,0.00070
3614.43289,0.00072
3612.50416,0.00051
3610.57543,0.00024
3608.64671,-0.00034
3606.71798,-0.00187
3604.78925,-0.00284
3602.86053,-0.00247
3600.93180,-0.00147
3599.00308,-0.00110
3597.07435,-0.00132
3595.14562,-0.00181
3593.21690,-0.00249
3591.28817,-0.00238
3589.35945,-0.00079
3587.43072,0.00041
3585.50199,-0.00109
3583.57327,-0.00257
3581.64454,-0.00312
3579.71581,-0.00332
3577.78709,-0.00354
3575.85836,-0.00371
3573.92964,-0.00376
3572.00091,-0.00337
3570.07218,-0.00188
3568.14346,0.00090
3566.21473,0.00169
3564.28600,-0.00040
3562.35728,-0.00208
3560.42855,-0.00311
3558.49983,-0.00392
3556.57110,-0.00417
3554.64237,-0.00366
3552.71365,-0.00321
3550.78492,-0.00328
3548.85620,-0.00275
3546.92747,-0.00140
3544.99874,-0.00136
3543.07002,-0.00316
3541.14129,-0.00464
3539.21256,-0.00485
3537.28384,-0.00449
3535.35511,-0.00453
3533.42639,-0.00454
3531.49766,-0.00381
3529.56893,-0.00270
3527.64021,-0.00194
3525.71148,-0.00160
3523.78275,-0.00203
3521.85403,-0.00331
3519.92530,-0.00440
3517.99658,-0.00496
3516.06785,-0.00529
3514.13912,-0.00517
3512.21040,-0.00451
3510.28167,-0.00403
3508.35295,-0.00423
3506.42422,-0.00411
3504.49549,-0.00316
3502.56677,-0.00289
3500.63804,-0.00394
3498.70931,-0.00476
3496.78059,-0.00493
3494.85186,-0.00513
3492.92314,-0.00541
3490.99441,-0.00525
3489.06568,-0.00483
3487.13696,-0.00469
3485.20823,-0.00470
3483.27950,-0.00441
3481.35078,-0.00433
3479.42205,-0.00493
3477.49333,-0.00541
3475.56460,-0.00541
3473.63587,-0.00545
3471.70715,-0.00567
3469.77842,-0.00572
3467.84970,-0.00555
3465.92097,-0.00536
3463.99224,-0.00516
3462.06352,-0.00507
3460.13479,-0.00522
3458.20606,-0.00541
3456.27734,-0.00558
3454.34861,-0.00578
3452.41989,-0.00581
3450.49116,-0.00545
3448.56243,-0.00481
3446.63371,-0.00451
3444.70498,-0.00472
3442.77625,-0.00506
3440.84753,-0.00547
3438.91880,-0.00588
3436.99008,-0.00611
3435.06135,-0.00612
3433.13262,-0.00593
3431.20390,-0.00582
3429.27517,-0.00592
3427.34644,-0.00596
3425.41772,-0.00572
3423.48899,-0.00520
3421.56027,-0.00484
3419.63154,-0.00512
3417.70281,-0.00566
3415.77409,-0.00596
3413.84536,-0.00602
3411.91664,-0.00606
3409.98791,-0.00612
3408.05918,-0.00612
3406.13046,-0.00606
3404.20173,-0.00605
3402.27300,-0.00608
3400.34428,-0.00599
3398.41555,-0.00573
3396.48683,-0.00552
3394.55810,-0.00542
3392.62937,-0.00549
3390.70065,-0.00582
3388.77192,-0.00607
3386.84319,-0.00596
3384.91447,-0.00580
3382.98574,-0.00585
3381.05702,-0.00594
3379.12829,-0.00596
3377.19956,-0.00601
3375.27084,-0.00613
3373.34211,-0.00617
3371.41339,-0.00604
3369.48466,-0.00575
3367.55593,-0.00551
3365.62721,-0.00550
3363.69848,-0.00558
3361.76975,-0.00560
3359.84103,-0.00561
3357.91230,-0.00563
3355.98358,-0.00570
3354.05485,-0.00587
3352.12612,-0.00603
3350.19740,-0.00609
3348.26867,-0.00608
3346.33994,-0.00603
3344.41122,-0.00594
3342.48249,-0.00587
3340.55377,-0.00580
3338.62504,-0.00562
3336.69631,-0.00546
3334.76759,-0.00559
3332.83886,-0.00583
3330.91014,-0.00588
3328.98141,-0.00578
3327.05268,-0.00569
3325.12396,-0.00570
3323.19523,-0.00580
3321.26650,-0.00591
3319.33778,-0.00592
3317.40905,-0.00586
3315.48033,-0.00575
3313.55160,-0.00557
3311.62287,-0.00537
3309.69415,-0.00528
3307.76542,-0.00542
3305.83669,-0.00567
3303.90797,-0.00573
3301.97924,-0.00563
3300.05052,-0.00556
3298.12179,-0.00560
3296.19306,-0.00566
3294.26434,-0.00564
3292.33561,-0.00553
3290.40689,-0.00547
3288.47816,-0.00550
3286.54943,-0.00551
3284.62071,-0.00543
3282.69198,-0.00538
3280.76325,-0.00541
3278.83453,-0.00537
3276.90580,-0.00524
3274.97708,-0.00517
3273.04835,-0.00525
3271.11962,-0.00540
3269.19090,-0.00548
3267.26217,-0.00549
3265.33344,-0.00543
3263.40472,-0.00534
3261.47599,-0.00527
3259.54727,-0.00526
3257.61854,-0.00520
3255.68981,-0.00511
3253.76109,-0.00515
3251.83236,-0.00532
3249.90364,-0.00539
3247.97491,-0.00523
3246.04618,-0.00503
3244.11746,-0.00503
3242.18873,-0.00516
3240.26000,-0.00520
3238.33128,-0.00518
3236.40255,-0.00517
3234.47383,-0.00519
3232.54510,-0.00514
3230.61637,-0.00503
3228.68765,-0.00503
3226.75892,-0.00514
3224.83019,-0.00524
3222.90147,-0.00518
3220.97274,-0.00501
3219.04402,-0.00494
3217.11529,-0.00498
3215.18656,-0.00498
3213.25784,-0.00498
3211.32911,-0.00502
3209.40039,-0.00506
3207.47166,-0.00508
3205.54293,-0.00502
3203.61421,-0.00489
3201.68548,-0.00474
3199.75675,-0.00461
3197.82803,-0.00462
3195.89930,-0.00478
3193.97058,-0.00489
3192.04185,-0.00488
3190.11312,-0.00483
3188.18440,-0.00476
3186.25567,-0.00465
3184.32694,-0.00458
3182.39822,-0.00459
3180.46949,-0.00454
3178.54077,-0.00447
3176.61204,-0.00455
3174.68331,-0.00468
3172.75459,-0.00472
3170.82586,-0.00471
3168.89714,-0.00473
3166.96841,-0.00476
3165.03968,-0.00478
3163.11096,-0.00481
3161.18223,-0.00486
3159.25350,-0.00485
3157.32478,-0.00476
3155.39605,-0.00466
3153.46733,-0.00463
3151.53860,-0.00460
3149.60987,-0.00456
3147.68115,-0.00455
3145.75242,-0.00454
3143.82369,-0.00448
3141.89497,-0.00442
3139.96624,-0.00442
3138.03752,-0.00440
3136.10879,-0.00435
3134.18006,-0.00430
3132.25134,-0.00433
3130.32261,-0.00436
3128.39389,-0.00427
3126.46516,-0.00418
3124.53643,-0.00410
3122.60771,-0.00397
3120.67898,-0.00388
3118.75025,-0.00387
3116.82153,-0.00397
3114.89280,-0.00413
3112.96408,-0.00424
3111.03535,-0.00426
3109.10662,-0.00426
3107.17790,-0.00426
3105.24917,-0.00420
3103.32044,-0.00402
3101.39172,-0.00391
3099.46299,-0.00396
3097.53427,-0.00403
3095.60554,-0.00408
3093.67681,-0.00417
3091.74809,-0.00426
3089.81936,-0.00429
3087.89063,-0.00428
3085.96191,-0.00422
3084.03318,-0.00407
3082.10446,-0.00390
3080.17573,-0.00386
3078.24700,-0.00397
3076.31828,-0.00412
3074.38955,-0.00418
3072.46083,-0.00415
3070.53210,-0.00406
3068.60337,-0.00391
3066.67465,-0.00375
3064.74592,-0.00373
3062.81719,-0.00383
3060.88847,-0.00386
3058.95974,-0.00376
3057.03102,-0.00368
3055.10229,-0.00373
3053.17356,-0.00384
3051.24484,-0.00384
3049.31611,-0.00377
3047.38738,-0.00379
3045.45866,-0.00391
3043.52993,-0.00398
3041.60121,-0.00397
3039.67248,-0.00392
3037.74375,-0.00385
3035.81503,-0.00368
3033.88630,-0.00343
3031.95758,-0.00337
3030.02885,-0.00360
3028.10012,-0.00385
3026.17140,-0.00391
3024.24267,-0.00387
3022.31394,-0.00385
3020.38522,-0.00393
3018.45649,-0.00402
3016.52777,-0.00399
3014.59904,-0.00381
3012.67031,-0.00361
3010.74159,-0.00355
3008.81286,-0.00362
3006.88413,-0.00366
3004.95541,-0.00366
3003.02668,-0.00371
3001.09796,-0.00379
2999.16923,-0.00382
2997.24050,-0.00373
2995.31178,-0.00364
2993.38305,-0.00368
2991.45433,-0.00379
2989.52560,-0.00381
2987.59687,-0.00376
2985.66815,-0.00372
2983.73942,-0.00370
2981.81069,-0.00369
2979.88197,-0.00370
2977.95324,-0.00369
2976.02452,-0.00364
2974.09579,-0.00360
2972.16706,-0.00359
2970.23834,-0.00358
2968.30961,-0.00354
2966.38088,-0.00348
2964.45216,-0.00342
2962.52343,-0.00339
2960.59471,-0.00344
2958.66598,-0.00347
2956.73725,-0.00342
2954.80853,-0.00338
2952.87980,-0.00344
2950.95108,-0.00348
2949.02235,-0.00349
2947.09362,-0.00349
2945.16490,-0.00350
2943.23617,-0.00351
2941.30744,-0.00348
2939.37872,-0.00346
2937.44999,-0.00342
2935.52127,-0.00334
2933.59254,-0.00324
2931.66381,-0.00316
2929.73509,-0.00313
2927.80636,-0.00309
2925.87763,-0.00302
2923.94891,-0.00294
2922.02018,-0.00292
2920.09146,-0.00298
2918.16273,-0.00309
2916.23400,-0.00316
2914.30528,-0.00315
2912.37655,-0.00314
2910.44783,-0.00323
2908.51910,-0.00336
2906.59037,-0.00339
2904.66165,-0.00331
2902.73292,-0.00323
2900.80419,-0.00322
2898.87547,-0.00326
2896.94674,-0.00332
2895.01802,-0.00335
2893.08929,-0.00337
2891.16056,-0.00339
2889.23184,-0.00341
2887.30311,-0.00343
2885.37438,-0.00347
2883.44566,-0.00350
2881.51693,-0.00351
2879.58821,-0.00348
2877.65948,-0.00341
2875.73075,-0.00336
2873.80203,-0.00332
2871.87330,-0.00329
2869.94458,-0.00324
2868.01585,-0.00321
2866.08712,-0.00324
2864.15840,-0.00324
2862.22967,-0.00318
2860.30094,-0.00308
2858.37222,-0.00297
2856.44349,-0.00291
2854.51477,-0.00289
2852.58604,-0.00291
2850.65731,-0.00298
2848.72859,-0.00305
2846.79986,-0.00308
2844.87113,-0.00306
2842.94241,-0.00307
2841.01368,-0.00310
2839.08496,-0.00313
2837.15623,-0.00318
2835.22750,-0.00321
2833.29878,-0.00319
2831.37005,-0.00314
2829.44133,-0.00311
2827.51260,-0.00311
2825.58387,-0.00313
2823.65515,-0.00314
2821.72642,-0.00316
2819.79769,-0.00317
2817.86897,-0.00314
2815.94024,-0.00310
2814.01152,-0.00307
2812.08279,-0.00308
2810.15406,-0.00311
2808.22534,-0.00312
2806.29661,-0.00312
2804.36788,-0.00315
2802.43916,-0.00316
2800.51043,-0.00311
2798.58171,-0.00305
2796.65298,-0.00303
2794.72425,-0.00304
2792.79553,-0.00302
2790.86680,-0.00301
2788.93808,-0.00302
2787.00935,-0.00304
2785.08062,-0.00303
2783.15190,-0.00299
2781.22317,-0.00294
2779.29444,-0.00291
2777.36572,-0.00292
2775.43699,-0.00294
2773.50827,-0.00296
2771.57954,-0.00295
2769.65081,-0.00293
2767.72209,-0.00293
2765.79336,-0.00295
2763.86463,-0.00296
2761.93591,-0.00295
2760.00718,-0.00293
2758.07846,-0.00290
2756.14973,-0.00288
2754.22100,-0.00289
2752.29228,-0.00289
2750.36355,-0.00287
2748.43483,-0.00285
2746.50610,-0.00284
2744.57737,-0.00286
2742.64865,-0.00286
2740.71992,-0.00283
2738.79119,-0.00282
2736.86247,-0.00284
2734.93374,-0.00286
2733.00502,-0.00288
2731.07629,-0.00287
2729.14756,-0.00287
2727.21884,-0.00286
2725.29011,-0.00283
2723.36138,-0.00279
2721.43266,-0.00277
2719.50393,-0.00279
2717.57521,-0.00280
2715.64648,-0.00278
2713.71775,-0.00275
2711.78903,-0.00274
2709.86030,-0.00272
2707.93157,-0.00271
2706.00285,-0.00273
2704.07412,-0.00275
2702.14540,-0.00274
2700.21667,-0.00271
2698.28794,-0.00268
2696.35922,-0.00268
2694.43049,-0.00271
2692.50177,-0.00269
2690.57304,-0.00263
2688.64431,-0.00261
2686.71559,-0.00263
2684.78686,-0.00266
2682.85813,-0.00268
2680.92941,-0.00268
2679.00068,-0.00267
2677.07196,-0.00268
2675.14323,-0.00269
2673.21450,-0.00269
2671.28578,-0.00266
2669.35705,-0.00263
2667.42832,-0.00262
2665.49960,-0.00260
2663.57087,-0.00258
2661.64215,-0.00260
2659.71342,-0.00264
2657.78469,-0.00268
2655.85597,-0.00269
2653.92724,-0.00266
2651.99852,-0.00264
2650.06979,-0.00264
2648.14106,-0.00268
2646.21234,-0.00271
2644.28361,-0.00270
2642.35488,-0.00266
2640.42616,-0.00263
2638.49743,-0.00262
2636.56871,-0.00264
2634.63998,-0.00270
2632.71125,-0.00272
2630.78253,-0.00270
2628.85380,-0.00265
2626.92507,-0.00258
2624.99635,-0.00255
2623.06762,-0.00258
2621.13890,-0.00264
2619.21017,-0.00268
2617.28144,-0.00267
2615.35272,-0.00260
2613.42399,-0.00259
2611.49527,-0.00265
2609.56654,-0.00268
2607.63781,-0.00264
2605.70909,-0.00258
2603.78036,-0.00250
2601.85163,-0.00247
2599.92291,-0.00250
2597.99418,-0.00250
2596.06546,-0.00245
2594.13673,-0.00242
2592.20800,-0.00240
2590.27928,-0.00236
2588.35055,-0.00230
2586.42182,-0.00229
2584.49310,-0.00233
2582.56437,-0.00235
2580.63565,-0.00231
2578.70692,-0.00229
2576.77819,-0.00234
2574.84947,-0.00238
2572.92074,-0.00232
2570.99202,-0.00226
2569.06329,-0.00226
2567.13456,-0.00228
2565.20584,-0.00226
2563.27711,-0.00226
2561.34838,-0.00233
2559.41966,-0.00239
2557.49093,-0.00240
2555.56221,-0.00236
2553.63348,-0.00232
2551.70475,-0.00234
2549.77603,-0.00239
2547.84730,-0.00241
2545.91857,-0.00236
2543.98985,-0.00228
2542.06112,-0.00223
2540.13240,-0.00218
2538.20367,-0.00212
2536.27494,-0.00210
2534.34622,-0.00211
2532.41749,-0.00213
2530.48877,-0.00216
2528.56004,-0.00216
2526.63131,-0.00214
2524.70259,-0.00213
2522.77386,-0.00216
2520.84513,-0.00217
2518.91641,-0.00214
2516.98768,-0.00214
2515.05896,-0.00221
2513.13023,-0.00227
2511.20150,-0.00227
2509.27278,-0.00223
2507.34405,-0.00215
2505.41532,-0.00202
2503.48660,-0.00192
2501.55787,-0.00196
2499.62915,-0.00211
2497.70042,-0.00223
2495.77169,-0.00223
2493.84297,-0.00217
2491.91424,-0.00213
2489.98552,-0.00210
2488.05679,-0.00206
2486.12806,-0.00209
2484.19934,-0.00213
2482.27061,-0.00209
2480.34188,-0.00204
2478.41316,-0.00203
2476.48443,-0.00203
2474.55571,-0.00202
2472.62698,-0.00198
2470.69825,-0.00188
2468.76953,-0.00179
2466.84080,-0.00183
2464.91207,-0.00192
2462.98335,-0.00193
2461.05462,-0.00189
2459.12590,-0.00194
2457.19717,-0.00203
2455.26844,-0.00205
2453.33972,-0.00204
2451.41099,-0.00206
2449.48227,-0.00206
2447.55354,-0.00202
2445.62481,-0.00200
2443.69609,-0.00204
2441.76736,-0.00207
2439.83863,-0.00204
2437.90991,-0.00194
2435.98118,-0.00181
2434.05246,-0.00174
2432.12373,-0.00171
2430.19500,-0.00169
2428.26628,-0.00169
2426.33755,-0.00177
2424.40882,-0.00184
2422.48010,-0.00183
2420.55137,-0.00180
2418.62265,-0.00176
2416.69392,-0.00175
2414.76519,-0.00180
2412.83647,-0.00185
2410.90774,-0.00186
2408.97902,-0.00185
2407.05029,-0.00182
2405.12156,-0.00176
2403.19284,-0.00169
2401.26411,-0.00166
2399.33538,-0.00167
2397.40666,-0.00171
2395.47793,-0.00172
2393.54921,-0.00173
2391.62048,-0.00174
2389.69175,-0.00168
2387.76303,-0.00153
2385.83430,-0.00129
2383.90557,-0.00105
2381.97685,-0.00092
2380.04812,-0.00098
2378.11940,-0.00123
2376.19067,-0.00166
2374.26194,-0.00222
2372.33322,-0.00293
2370.40449,-0.00403
2368.47576,-0.00539
2366.54704,-0.00650
2364.61831,-0.00708
2362.68959,-0.00716
2360.76086,-0.00702
2358.83213,-0.00691
2356.90341,-0.00656
2354.97468,-0.00566
2353.04596,-0.00437
2351.11723,-0.00330
2349.18850,-0.00297
2347.25978,-0.00336
2345.33105,-0.00424
2343.40232,-0.00518
2341.47360,-0.00586
2339.54487,-0.00622
2337.61615,-0.00624
2335.68742,-0.00596
2333.75869,-0.00543
2331.82997,-0.00482
2329.90124,-0.00436
2327.97251,-0.00398
2326.04379,-0.00355
2324.11506,-0.00305
2322.18634,-0.00245
2320.25761,-0.00195
2318.32888,-0.00175
2316.40016,-0.00164
2314.47143,-0.00138
2312.54271,-0.00097
2310.61398,-0.00064
2308.68525,-0.00057
2306.75653,-0.00069
2304.82780,-0.00087
2302.89907,-0.00106
2300.97035,-0.00118
2299.04162,-0.00119
2297.11290,-0.00120
2295.18417,-0.00124
2293.25544,-0.00131
2291.32672,-0.00142
2289.39799,-0.00154
2287.46926,-0.00160
2285.54054,-0.00159
2283.61181,-0.00158
2281.68309,-0.00163
2279.75436,-0.00170
2277.82563,-0.00175
2275.89691,-0.00173
2273.96818,-0.00172
2272.03946,-0.00175
2270.11073,-0.00175
2268.18200,-0.00169
2266.25328,-0.00158
2264.32455,-0.00149
2262.39582,-0.00152
2260.46710,-0.00158
2258.53837,-0.00152
2256.60965,-0.00140
2254.68092,-0.00137
2252.75219,-0.00138
2250.82347,-0.00137
2248.89474,-0.00132
2246.96601,-0.00121
2245.03729,-0.00112
2243.10856,-0.00118
2241.17984,-0.00140
2239.25111,-0.00159
2237.32238,-0.00162
2235.39366,-0.00148
2233.46493,-0.00135
2231.53621,-0.00133
2229.60748,-0.00134
2227.67875,-0.00137
2225.75003,-0.00140
2223.82130,-0.00139
2221.89257,-0.00143
2219.96385,-0.00156
2218.03512,-0.00157
2216.10640,-0.00142
2214.17767,-0.00135
2212.24894,-0.00149
2210.32022,-0.00166
2208.39149,-0.00168
2206.46276,-0.00166
2204.53404,-0.00165
2202.60531,-0.00155
2200.67659,-0.00142
2198.74786,-0.00148
2196.81913,-0.00172
2194.89041,-0.00189
2192.96168,-0.00186
2191.03296,-0.00164
2189.10423,-0.00145
2187.17550,-0.00165
2185.24678,-0.00213
2183.31805,-0.00234
2181.38932,-0.00215
2179.46060,-0.00191
2177.53187,-0.00178
2175.60315,-0.00175
2173.67442,-0.00183
2171.74569,-0.00198
2169.81697,-0.00213
2167.88824,-0.00230
2165.95951,-0.00249
2164.03079,-0.00240
2162.10206,-0.00190
2160.17334,-0.00135
2158.24461,-0.00100
2156.31588,-0.00084
2154.38716,-0.00076
2152.45843,-0.00063
2150.52971,-0.00049
2148.60098,-0.00050
2146.67225,-0.00057
2144.74353,-0.00051
2142.81480,-0.00040
2140.88607,-0.00048
2138.95735,-0.00070
2137.02862,-0.00083
2135.09990,-0.00084
2133.17117,-0.00084
2131.24244,-0.00092
2129.31372,-0.00106
2127.38499,-0.00127
2125.45626,-0.00150
2123.52754,-0.00167
2121.59881,-0.00177
2119.67009,-0.00183
2117.74136,-0.00185
2115.81263,-0.00179
2113.88391,-0.00172
2111.95518,-0.00175
2110.02646,-0.00183
2108.09773,-0.00182
2106.16900,-0.00173
2104.24028,-0.00164
2102.31155,-0.00158
2100.38282,-0.00155
2098.45410,-0.00149
2096.52537,-0.00140
2094.59665,-0.00133
2092.66792,-0.00125
2090.73919,-0.00111
2088.81047,-0.00107
2086.88174,-0.00124
2084.95301,-0.00140
2083.02429,-0.00137
2081.09556,-0.00122
2079.16684,-0.00112
2077.23811,-0.00115
2075.30938,-0.00128
2073.38066,-0.00139
2071.45193,-0.00137
2069.52321,-0.00111
2067.59448,-0.00060
2065.66575,-0.00012
2063.73703,-0.00008
2061.80830,-0.00037
2059.87957,-0.00072
2057.95085,-0.00100
2056.02212,-0.00106
2054.09340,-0.00097
2052.16467,-0.00097
2050.23594,-0.00106
2048.30722,-0.00107
2046.37849,-0.00090
2044.44976,-0.00045
2042.52104,-0.00005
2040.59231,-0.00024
2038.66359,-0.00074
2036.73486,-0.00086
2034.80613,-0.00063
2032.87741,-0.00056
2030.94868,-0.00071
2029.01996,-0.00073
2027.09123,-0.00049
2025.16250,-0.00015
2023.23378,-0.00004
2021.30505,-0.00009
2019.37632,0.00012
2017.44760,0.00047
2015.51887,0.00041
2013.59015,0.00000
2011.66142,-0.00031
2009.73269,-0.00025
2007.80397,-0.00001
2005.87524,-0.00002
2003.94651,-0.00016
2002.01779,-0.00018
2000.08906,-0.00019
1998.16034,-0.00037
1996.23161,-0.00042
1994.30288,0.00004
1992.37416,0.00069
1990.44543,0.00086
1988.51670,0.00057
1986.58798,0.00013
1984.65925,-0.00022
1982.73053,-0.00046
1980.80180,-0.00059
1978.87307,-0.00050
1976.94435,-0.00031
1975.01562,-0.00010
1973.08690,0.00016
1971.15817,0.00045
1969.22944,0.00083
1967.30072,0.00093
1965.37199,0.00044
1963.44326,-0.00001
1961.51454,-0.00007
1959.58581,0.00001
1957.65709,0.00015
1955.72836,0.00034
1953.79963,0.00039
1951.87091,0.00033
1949.94218,0.00032
1948.01345,0.00052
1946.08473,0.00092
1944.15600,0.00135
1942.22728,0.00134
1940.29855,0.00072
1938.36982,0.00014
1936.44110,-0.00002
1934.51237,0.00005
1932.58365,0.00005
1930.65492,-0.00012
1928.72619,-0.00029
1926.79747,-0.00002
1924.86874,0.00093
1922.94001,0.00171
1921.01129,0.00162
1919.08256,0.00134
1917.15384,0.00097
1915.22511,0.00040
1913.29638,0.00023
1911.36766,0.00071
1909.43893,0.00115
1907.51020,0.00084
1905.58148,0.00028
1903.65275,0.00004
1901.72403,0.00003
1899.79530,0.00008
1897.86657,0.00035
1895.93785,0.00072
1894.00912,0.00077
1892.08040,0.00080
1890.15167,0.00098
1888.22294,0.00078
1886.29422,0.00044
1884.36549,0.00028
1882.43676,0.00010
1880.50804,-0.00006
1878.57931,-0.00013
1876.65059,-0.00017
1874.72186,-0.00006
1872.79313,0.00058
1870.86441,0.00211
1868.93568,0.00357
1867.00695,0.00277
1865.07823,0.00121
1863.14950,0.00050
1861.22078,0.00046
1859.29205,0.00042
1857.36332,0.00016
1855.43460,-0.00010
1853.50587,-0.00017
1851.57715,0.00009
1849.64842,0.00086
1847.71969,0.00214
1845.79097,0.00347
1843.86224,0.00339
1841.93351,0.00195
1840.00479,0.00104
1838.07606,0.00089
1836.14734,0.00086
1834.21861,0.00086
1832.28988,0.00135
1830.36116,0.00216
1828.43243,0.00229
1826.50370,0.00209
1824.57498,0.00181
1822.64625,0.00108
1820.71753,0.00048
1818.78880,0.00039
1816.86007,0.00041
1814.93135,0.00053
1813.00262,0.00113
1811.07390,0.00176
1809.14517,0.00161
1807.21644,0.00114
1805.28772,0.00112
1803.35899,0.00189
1801.43026,0.00282
1799.50154,0.00297
1797.57281,0.00297
1795.64409,0.00341
1793.71536,0.00407
1791.78663,0.00387
1789.85791,0.00235
1787.92918,0.00133
1786.00045,0.00132
1784.07173,0.00170
1782.14300,0.00204
1780.21428,0.00221
1778.28555,0.00205
1776.35682,0.00219
1774.42810,0.00315
1772.49937,0.00431
1770.57065,0.00410
1768.64192,0.00300
1766.71319,0.00192
1764.78447,0.00155
1762.85574,0.00206
1760.92701,0.00258
1758.99829,0.00264
1757.06956,0.00248
1755.14084,0.00225
1753.21211,0.00290
1751.28338,0.00500
1749.35466,0.00702
1747.42593,0.00674
1745.49720,0.00562
1743.56848,0.00458
1741.63975,0.00385
1739.71103,0.00368
1737.78230,0.00384
1735.85357,0.00459
1733.92485,0.00589
1731.99612,0.00510
1730.06740,0.00297
1728.13867,0.00133
1726.20994,0.00078
1724.28122,0.00113
1722.35249,0.00175
1720.42376,0.00267
1718.49504,0.00517
1716.56631,0.00804
1714.63759,0.00601
1712.70886,0.00349
1710.78013,0.00238
1708.85141,0.00257
1706.92268,0.00384
1704.99395,0.00522
1703.06523,0.00572
1701.13650,0.00650
1699.20778,0.00810
1697.27905,0.00757
1695.35032,0.00447
1693.42160,0.00245
1691.49287,0.00230
1689.56415,0.00337
1687.63542,0.00450
1685.70669,0.00522
1683.77797,0.00572
1681.84924,0.00496
1679.92051,0.00359
1677.99179,0.00263
1676.06306,0.00255
1674.13434,0.00302
1672.20561,0.00359
1670.27688,0.00376
1668.34816,0.00217
1666.41943,0.00084
1664.49070,0.00082
1662.56198,0.00122
1660.63325,0.00081
1658.70453,0.00062
1656.77580,0.00137
1654.84707,0.00299
1652.91835,0.00421
1650.98962,0.00384
1649.06090,0.00425
1647.13217,0.00446
1645.20344,0.00251
1643.27472,0.00111
1641.34599,0.00084
1639.41726,0.00147
1637.48854,0.00280
1635.55981,0.00263
1633.63109,0.00067
1631.70236,-0.00027
1629.77363,-0.00026
1627.84491,0.00029
1625.91618,0.00096
1623.98745,0.00158
1622.05873,0.00152
1620.13000,0.00118
1618.20128,0.00139
1616.27255,0.00130
1614.34382,0.00029
1612.41510,-0.00025
1610.48637,-0.00007
1608.55764,0.00020
1606.62892,0.00002
1604.70019,-0.00019
1602.77147,-0.00026
1600.84274,-0.00060
1598.91401,-0.00092
1596.98529,-0.00075
1595.05656,-0.00046
1593.12784,-0.00049
1591.19911,-0.00066
1589.27038,-0.00091
1587.34166,-0.00120
1585.41293,-0.00126
1583.48420,-0.00109
1581.55548,-0.00077
1579.62675,-0.00003
1577.69803,0.00142
1575.76930,0.00215
1573.84057,0.00137
1571.91185,0.00117
1569.98312,0.00162
1568.05439,0.00166
1566.12567,0.00153
1564.19694,0.00180
1562.26822,0.00241
1560.33949,0.00397
1558.41076,0.00700
1556.48204,0.00682
1554.55331,0.00533
1552.62459,0.00421
1550.69586,0.00367
1548.76713,0.00337
1546.83841,0.00403
1544.90968,0.00678
1542.98095,0.01130
1541.05223,0.01170
1539.12350,0.00665
1537.19478,0.00518
1535.26605,0.00544
1533.33732,0.00537
1531.40860,0.00434
1529.47987,0.00433
1527.55114,0.00597
1525.62242,0.00804
1523.69369,0.00938
1521.76497,0.00968
1519.83624,0.00853
1517.90751,0.00778
1515.97879,0.00690
1514.05006,0.00604
1512.12134,0.00649
1510.19261,0.00859
1508.26388,0.01101
1506.33516,0.00725
1504.40643,0.00411
1502.47770,0.00361
1500.54898,0.00405
1498.62025,0.00478
1496.69153,0.00422
1494.76280,0.00281
1492.83407,0.00274
1490.90535,0.00458
1488.97662,0.00605
1487.04789,0.00389
1485.11917,0.00178
1483.19044,0.00102
1481.26172,0.00094
1479.33299,0.00112
1477.40426,0.00209
1475.47554,0.00427
1473.54681,0.00575
1471.61809,0.00359
1469.68936,0.00159
1467.76063,0.00121
1465.83191,0.00166
1463.90318,0.00172
1461.97445,0.00166
1460.04573,0.00280
1458.11700,0.00599
1456.18828,0.00640
1454.25955,0.00365
1452.33082,0.00207
1450.40210,0.00161
1448.47337,0.00171
1446.54464,0.00126
1444.61592,0.00042
1442.68719,0.00003
1440.75847,0.00031
1438.82974,0.00140
1436.90101,0.00292
1434.97229,0.00297
1433.04356,0.00227
1431.11484,0.00196
1429.18611,0.00155
1427.25738,0.00109
1425.32866,0.00120
1423.39993,0.00168
1421.47120,0.00233
1419.54248,0.00351
1417.61375,0.00338
1415.68503,0.00172
1413.75630,0.00078
1411.82757,0.00064
1409.89885,0.00047
1407.97012,0.00033
1406.04139,0.00065
1404.11267,0.00081
1402.18394,0.00083
1400.25522,0.00169
1398.32649,0.00321
1396.39776,0.00384
1394.46904,0.00275
1392.54031,0.00127
1390.61159,0.00090
1388.68286,0.00160
1386.75413,0.00177
1384.82541,0.00070
1382.89668,-0.00002
1380.96795,0.00010
1379.03923,0.00058
1377.11050,0.00121
1375.18178,0.00193
1373.25305,0.00176
1371.32432,0.00095
1369.39560,0.00049
1367.46687,0.00029
1365.53814,0.00061
1363.60942,0.00172
1361.68069,0.00201
1359.75197,0.00089
1357.82324,0.00008
1355.89451,-0.00006
1353.96579,-0.00015
1352.03706,-0.00032
1350.10834,-0.00033
1348.17961,-0.00034
1346.25088,-0.00044
1344.32216,-0.00028
1342.39343,0.00081
1340.46470,0.00279
1338.53598,0.00331
1336.60725,0.00160
1334.67853,0.00010
1332.74980,-0.00045
1330.82107,-0.00050
1328.89235,-0.00051
1326.96362,-0.00054
1325.03489,-0.00041
1323.10617,-0.00000
1321.17744,0.00074
1319.24872,0.00140
1317.31999,0.00145
1315.39126,0.00128
1313.46254,0.00111
1311.53381,0.00060
1309.60509,0.00007
1307.67636,-0.00022
1305.74763,-0.00042
1303.81891,-0.00054
1301.89018,-0.00057
1299.96145,-0.00051
1298.03273,-0.00038
1296.10400,-0.00030
1294.17528,-0.00031
1292.24655,-0.00019
1290.31782,0.00011
1288.38910,0.00029
1286.46037,0.00011
1284.53164,-0.00019
1282.60292,-0.00030
1280.67419,-0.00030
1278.74547,-0.00034
1276.81674,-0.00037
1274.88801,-0.00025
1272.95929,0.00009
1271.03056,0.00040
1269.10183,0.00049
1267.17311,0.00047
1265.24438,0.00050
1263.31566,0.00061
1261.38693,0.00077
1259.45820,0.00071
1257.52948,0.00034
1255.60075,-0.00005
1253.67203,-0.00031
1251.74330,-0.00049
1249.81457,-0.00061
1247.88585,-0.00066
1245.95712,-0.00061
1244.02839,-0.00055
1242.09967,-0.00054
1240.17094,-0.00054
1238.24222,-0.00056
1236.31349,-0.00060
1234.38476,-0.00063
1232.45604,-0.00059
1230.52731,-0.00056
1228.59858,-0.00053
1226.66986,-0.00045
1224.74113,-0.00039
1222.81241,-0.00043
1220.88368,-0.00049
1218.95495,-0.00052
1217.02623,-0.00054
1215.09750,-0.00050
1213.16878,-0.00041
1211.24005,-0.00037
1209.31132,-0.00041
1207.38260,-0.00043
1205.45387,-0.00042
1203.52514,-0.00038
1201.59642,-0.00038
1199.66769,-0.00042
1197.73897,-0.00046
1195.81024,-0.00049
1193.88151,-0.00049
1191.95279,-0.00044
1190.02406,-0.00035
1188.09533,-0.00028
1186.16661,-0.00025
1184.23788,-0.00025
1182.30916,-0.00028
1180.38043,-0.00032
1178.45170,-0.00028
1176.52298,-0.00020
1174.59425,-0.00017
1172.66553,-0.00023
1170.73680,-0.00030
1168.80807,-0.00034
1166.87935,-0.00036
1164.95062,-0.00037
1163.02189,-0.00037
1161.09317,-0.00035
1159.16444,-0.00033
1157.23572,-0.00033
1155.30699,-0.00040
1153.37826,-0.00047
1151.44954,-0.00049
1149.52081,-0.00049
1147.59208,-0.00049
1145.66336,-0.00049
1143.73463,-0.00048
1141.80591,-0.00047
1139.87718,-0.00046
1137.94845,-0.00042
1136.01973,-0.00038
1134.09100,-0.00037
1132.16228,-0.00040
1130.23355,-0.00041
1128.30482,-0.00045
1126.37610,-0.00052
1124.44737,-0.00052
1122.51864,-0.00048
1120.58992,-0.00045
1118.66119,-0.00040
1116.73247,-0.00028
1114.80374,-0.00016
1112.87501,-0.00011
1110.94629,-0.00007
1109.01756,0.00001
1107.08883,0.00008
1105.16011,0.00007
1103.23138,0.00008
1101.30266,0.00018
1099.37393,0.00029
1097.44520,0.00039
1095.51648,0.00048
1093.58775,0.00047
1091.65903,0.00038
1089.73030,0.00033
1087.80157,0.00035
1085.87285,0.00032
1083.94412,0.00022
1082.01539,0.00013
1080.08667,0.00014
1078.15794,0.00022
1076.22922,0.00022
1074.30049,0.00010
1072.37176,0.00001
1070.44304,0.00002
1068.51431,0.00006
1066.58558,0.00008
1064.65686,0.00005
1062.72813,-0.00002
1060.79941,-0.00008
1058.87068,-0.00007
1056.94195,-0.00004
1055.01323,-0.00004
1053.08450,-0.00003
1051.15578,0.00000
1049.22705,0.00002
1047.29832,0.00007
1045.36960,0.00014
1043.44087,0.00017
1041.51214,0.00012
1039.58342,0.00003
1037.65469,0.00001
1035.72597,0.00004
1033.79724,0.00011
1031.86851,0.00023
1029.93979,0.00032
1028.01106,0.00033
1026.08233,0.00036
1024.15361,0.00046
1022.22488,0.00055
1020.29616,0.00057
1018.36743,0.00056
1016.43870,0.00054
1014.50998,0.00050
1012.58125,0.00041
1010.65253,0.00033
1008.72380,0.00031
1006.79507,0.00025
1004.86635,0.00006
1002.93762,-0.00015
1001.00889,-0.00028
999.08017,-0.00034
997.15144,-0.00031
995.22272,-0.00023
993.29399,-0.00014
991.36526,-0.00011
989.43654,-0.00023
987.50781,-0.00035
985.57908,-0.00031
983.65036,-0.00020
981.72163,-0.00016
979.79291,-0.00020
977.86418,-0.00033
975.93545,-0.00049
974.00673,-0.00057
972.07800,-0.00051
970.14928,-0.00036
968.22055,-0.00015
966.29182,0.00001
964.36310,0.00005
962.43437,0.00001
960.50564,-0.00013
958.57692,-0.00037
956.64819,-0.00052
954.71947,-0.00051
952.79074,-0.00053
950.86201,-0.00067
948.93329,-0.00069
947.00456,-0.00049
945.07583,-0.00027
943.14711,-0.00018
941.21838,-0.00020
939.28966,-0.00033
937.36093,-0.00041
935.43220,-0.00033
933.50348,-0.00020
931.57475,-0.00013
929.64603,-0.00015
927.71730,-0.00021
925.78857,-0.00026
923.85985,-0.00029
921.93112,-0.00031
920.00239,-0.00031
918.07367,-0.00033
916.14494,-0.00035
914.21622,-0.00037
912.28749,-0.00038
910.35876,-0.00034
908.43004,-0.00013
906.50131,0.00009
904.57258,0.00005
902.64386,-0.00010
900.71513,-0.00013
898.78641,-0.00011
896.85768,-0.00019
894.92895,-0.00023
893.00023,-0.00016
891.07150,-0.00009
889.14277,-0.00001
887.21405,0.00024
885.28532,0.00037
883.35660,0.00017
881.42787,0.00003
879.49914,0.00017
877.57042,0.00036
875.64169,0.00037
873.71297,0.00024
871.78424,0.00007
869.85551,-0.00003
867.92679,-0.00003
865.99806,0.00005
864.06933,0.00017
862.14061,0.00034
860.21188,0.00058
858.28316,0.00069
856.35443,0.00055
854.42570,0.00040
852.49698,0.00033
850.56825,0.00021
848.63952,0.00004
846.71080,0.00001
844.78207,0.00011
842.85335,0.00020
840.92462,0.00033
838.99589,0.00038
837.06717,0.00018
835.13844,-0.00001
833.20972,0.00012
831.28099,0.00035
829.35226,0.00036
827.42354,0.00027
825.49481,0.00035
823.56608,0.00059
821.63736,0.00080
819.70863,0.00089
817.77991,0.00091
815.85118,0.00089
813.92245,0.00100
811.99373,0.00121
810.06500,0.00132
808.13627,0.00133
806.20755,0.00137
804.27882,0.00146
802.35010,0.00151
800.42137,0.00151
798.49264,0.00147
796.56392,0.00133
794.63519,0.00115
792.70647,0.00110
790.77774,0.00103
788.84901,0.00084
786.92029,0.00071
784.99156,0.00063
783.06283,0.00046
781.13411,0.00036
779.20538,0.00044
777.27666,0.00057
775.34793,0.00055
773.41920,0.00052
771.49048,0.00066
769.56175,0.00078
767.63302,0.00084
765.70430,0.00086
763.77557,0.00064
761.84685,0.00026
759.91812,-0.00014
757.98939,-0.00042
756.06067,-0.00029
754.13194,0.00012
752.20322,0.00013
750.27449,-0.00026
748.34576,-0.00034
746.41704,-0.00005
744.48831,0.00022
742.55958,0.00048
740.63086,0.00080
738.70213,0.00095
736.77341,0.00084
734.84468,0.00068
732.91595,0.00048
730.98723,0.00032
729.05850,0.00033
727.12977,0.00032
725.20105,0.00027
723.27232,0.00039
721.34360,0.00064
719.41487,0.00076
717.48614,0.00060
715.55742,0.00043
713.62869,0.00038
711.69997,0.00030
709.77124,0.00015
707.84251,0.00014
705.91379,0.00033
703.98506,0.00043
702.05633,0.00031
700.12761,0.00028
698.19888,0.00044
696.27016,0.00053
694.34143,0.00045
692.41270,0.00033
690.48398,0.00033
688.55525,0.00037
686.62652,0.00020
684.69780,-0.00008
682.76907,-0.00021
680.84035,-0.00035
678.91162,-0.00055
676.98289,-0.00050
675.05417,-0.00033
673.12544,-0.00038
671.19672,-0.00047
669.26799,-0.00046
667.33926,-0.00047
665.41054,-0.00046
663.48181,-0.00040
661.55308,-0.00028
659.62436,-0.00016
657.69563,-0.00029
655.76691,-0.00054
653.83818,-0.00059
651.90945,-0.00043
649.98073,-0.00034
648.05200,-0.00035
646.12327,-0.00020
644.19455,0.00014
642.26582,0.00048
640.33710,0.00061
638.40837,0.00056
636.47964,0.00058
634.55092,0.00071
632.62219,0.00065
630.69347,0.00032
628.76474,-0.00008
626.83601,-0.00004
624.90729,0.00105
622.97856,0.00236
621.04983,0.00224
619.12111,0.00189
617.19238,0.00232
615.26366,0.00330
613.33493,0.00421
611.40620,0.00399
609.47748,0.00270
607.54875,0.00227
605.62002,0.00237
603.69130,0.00120
601.76257,0.00018
599.83385,0.00099
