4497.78948,-0.00766
4495.86076,-0.00788
4493.93203,-0.00795
4492.00330,-0.00791
4490.07458,-0.00787
4488.14585,-0.00784
4486.21712,-0.00782
4484.28840,-0.00787
4482.35967,-0.00785
4480.43095,-0.00772
4478.50222,-0.00765
4476.57349,-0.00771
4474.64477,-0.00782
4472.71604,-0.00791
4470.78732,-0.00796
4468.85859,-0.00794
4466.92986,-0.00781
4465.00114,-0.00764
4463.07241,-0.00758
4461.14368,-0.00772
4459.21496,-0.00790
4457.28623,-0.00788
4455.35751,-0.00768
4453.42878,-0.00752
4451.50005,-0.00749
4449.57133,-0.00764
4447.64260,-0.00786
4445.71387,-0.00790
4443.78515,-0.00777
4441.85642,-0.00769
4439.92770,-0.00764
4437.99897,-0.00753
4436.07024,-0.00756
4434.14152,-0.00778
4432.21279,-0.00794
4430.28407,-0.00788
4428.35534,-0.00774
4426.42661,-0.00766
4424.49789,-0.00773
4422.56916,-0.00784
4420.64043,-0.00782
4418.71171,-0.00763
4416.78298,-0.00747
4414.85426,-0.00746
4412.92553,-0.00752
4410.99680,-0.00752
4409.06808,-0.00742
4407.13935,-0.00729
4405.21062,-0.00722
4403.28190,-0.00725
4401.35317,-0.00734
4399.42445,-0.00736
4397.49572,-0.00737
4395.56699,-0.00748
4393.63827,-0.00756
4391.70954,-0.00749
4389.78082,-0.00741
4387.85209,-0.00746
4385.92336,-0.00754
4383.99464,-0.00755
4382.06591,-0.00750
4380.13718,-0.00745
4378.20846,-0.00740
4376.27973,-0.00737
4374.35101,-0.00741
4372.42228,-0.00753
4370.49355,-0.00759
4368.56483,-0.00750
4366.63610,-0.00741
4364.70737,-0.00739
4362.77865,-0.00730
4360.84992,-0.00717
4358.92120,-0.00717
4356.99247,-0.00729
4355.06374,-0.00741
4353.13502,-0.00744
4351.20629,-0.00736
4349.27757,-0.00725
4347.34884,-0.00726
4345.42011,-0.00739
4343.49139,-0.00749
4341.56266,-0.00741
4339.63393,-0.00721
4337.70521,-0.00708
4335.77648,-0.00706
4333.84776,-0.00715
4331.91903,-0.00727
4329.99030,-0.00726
4328.06158,-0.00719
4326.13285,-0.00716
4324.20412,-0.00715
4322.27540,-0.00718
4320.34667,-0.00720
4318.41795,-0.00711
4316.48922,-0.00701
4314.56049,-0.00700
4312.63177,-0.00707
4310.70304,-0.00716
4308.77432,-0.00720
4306.84559,-0.00723
4304.91686,-0.00727
4302.98814,-0.00732
4301.05941,-0.00737
4299.13068,-0.00739
4297.20196,-0.00733
4295.27323,-0.00725
4293.34451,-0.00715
4291.41578,-0.00702
4289.48705,-0.00694
4287.55833,-0.00697
4285.62960,-0.00710
4283.70087,-0.00718
4281.77215,-0.00711
4279.84342,-0.00704
4277.91470,-0.00712
4275.98597,-0.00720
4274.05724,-0.00717
4272.12852,-0.00709
4270.19979,-0.00704
4268.27107,-0.00700
4266.34234,-0.00698
4264.41361,-0.00701
4262.48489,-0.00701
4260.55616,-0.00698
4258.62743,-0.00704
4256.69871,-0.00716
4254.76998,-0.00711
4252.84126,-0.00693
4250.91253,-0.00689
4248.98380,-0.00703
4247.05508,-0.00711
4245.12635,-0.00702
4243.19762,-0.00688
4241.26890,-0.00683
4239.34017,-0.00691
4237.41145,-0.00708
4235.48272,-0.00721
4233.55399,-0.00721
4231.62527,-0.00713
4229.69654,-0.00705
4227.76782,-0.00702
4225.83909,-0.00702
4223.91036,-0.00699
4221.98164,-0.00694
4220.05291,-0.00696
4218.12418,-0.00705
4216.19546,-0.00709
4214.26673,-0.00702
4212.33801,-0.00696
4210.40928,-0.00694
4208.48055,-0.00693
4206.55183,-0.00692
4204.62310,-0.00690
4202.69437,-0.00680
4200.76565,-0.00673
4198.83692,-0.00677
4196.90820,-0.00675
4194.97947,-0.00663
4193.05074,-0.00657
4191.12202,-0.00661
4189.19329,-0.00669
4187.26456,-0.00679
4185.33584,-0.00689
4183.40711,-0.00686
4181.47839,-0.00676
4179.54966,-0.00675
4177.62093,-0.00677
4175.69221,-0.00669
4173.76348,-0.00659
4171.83476,-0.00663
4169.90603,-0.00674
4167.97730,-0.00675
4166.04858,-0.00665
4164.11985,-0.00659
4162.19112,-0.00664
4160.26240,-0.00675
4158.33367,-0.00680
4156.40495,-0.00676
4154.47622,-0.00668
4152.54749,-0.00667
4150.61877,-0.00670
4148.69004,-0.00668
4146.76131,-0.00663
4144.83259,-0.00662
4142.90386,-0.00662
4140.97514,-0.00661
4139.04641,-0.00661
4137.11768,-0.00658
4135.18896,-0.00648
4133.26023,-0.00643
4131.33151,-0.00650
4129.40278,-0.00661
4127.47405,-0.00668
4125.54533,-0.00667
4123.61660,-0.00664
4121.68787,-0.00664
4119.75915,-0.00662
4117.83042,-0.00660
4115.90170,-0.00660
4113.97297,-0.00664
4112.04424,-0.00671
4110.11552,-0.00670
4108.18679,-0.00655
4106.25806,-0.00635
4104.32934,-0.00633
4102.40061,-0.00647
4100.47189,-0.00656
4098.54316,-0.00656
4096.61443,-0.00658
4094.68571,-0.00663
4092.75698,-0.00660
4090.82826,-0.00643
4088.89953,-0.00628
4086.97080,-0.00627
4085.04208,-0.00623
4083.11335,-0.00617
4081.18462,-0.00613
4079.25590,-0.00615
4077.32717,-0.00624
4075.39845,-0.00628
4073.46972,-0.00623
4071.54099,-0.00620
4069.61227,-0.00623
4067.68354,-0.00637
4065.75481,-0.00648
4063.82609,-0.00642
4061.89736,-0.00623
4059.96864,-0.00614
4058.03991,-0.00624
4056.11118,-0.00633
4054.18246,-0.00636
4052.25373,-0.00640
4050.32501,-0.00640
4048.39628,-0.00629
4046.46755,-0.00604
4044.53883,-0.00590
4042.61010,-0.00605
4040.68137,-0.00628
4038.75265,-0.00637
4036.82392,-0.00632
4034.89520,-0.00623
4032.96647,-0.00622
4031.03774,-0.00629
4029.10902,-0.00627
4027.18029,-0.00604
4025.25156,-0.00582
4023.32284,-0.00580
4021.39411,-0.00582
4019.46539,-0.00585
4017.53666,-0.00591
4015.60793,-0.00592
4013.67921,-0.00591
4011.75048,-0.00580
4009.82176,-0.00560
4007.89303,-0.00556
4005.96430,-0.00577
4004.03558,-0.00597
4002.10685,-0.00604
4000.17812,-0.00602
3998.24940,-0.00583
3996.32067,-0.00558
3994.39195,-0.00543
3992.46322,-0.00535
3990.53449,-0.00540
3988.60577,-0.00571
3986.67704,-0.00592
3984.74831,-0.00574
3982.81959,-0.00547
3980.89086,-0.00544
3978.96214,-0.00542
3977.03341,-0.00505
3975.10468,-0.00467
3973.17596,-0.00474
3971.24723,-0.00499
3969.31851,-0.00528
3967.38978,-0.00563
3965.46105,-0.00559
3963.53233,-0.00503
3961.60360,-0.00460
3959.67487,-0.00463
3957.74615,-0.00475
3955.81742,-0.00483
3953.88870,-0.00478
3951.95997,-0.00426
3950.03124,-0.00348
3948.10252,-0.00339
3946.17379,-0.00371
3944.24506,-0.00370
3942.31634,-0.00394
3940.38761,-0.00465
3938.45889,-0.00512
3936.53016,-0.00491
3934.60143,-0.00386
3932.67271,-0.00268
3930.74398,-0.00282
3928.81526,-0.00364
3926.88653,-0.00356
3924.95780,-0.00294
3923.02908,-0.00303
3921.10035,-0.00319
3919.17162,-0.00274
3917.24290,-0.00281
3915.31417,-0.00401
3913.38545,-0.00509
3911.45672,-0.00547
3909.52799,-0.00514
3907.59927,-0.00384
3905.67054,-0.00131
3903.74181,0.00100
3901.81309,0.00107
3899.88436,-0.00038
3897.95564,-0.00224
3896.02691,-0.00307
3894.09818,-0.00253
3892.16946,-0.00196
3890.24073,-0.00276
3888.31201,-0.00315
3886.38328,-0.00222
3884.45455,-0.00121
3882.52583,-0.00130
3880.59710,-0.00227
3878.66837,-0.00338
3876.73965,-0.00357
3874.81092,-0.00262
3872.88220,-0.00101
3870.95347,0.00005
3869.02474,-0.00043
3867.09602,-0.00083
3865.16729,-0.00026
3863.23856,-0.00056
3861.30984,-0.00192
3859.38111,-0.00235
3857.45239,-0.00146
3855.52366,0.00055
3853.59493,0.00233
3851.66621,0.00047
3849.73748,-0.00177
3847.80876,-0.00288
3845.88003,-0.00273
3843.95130,-0.00147
3842.02258,0.00040
3840.09385,0.00231
3838.16512,0.00243
3836.23640,0.00055
3834.30767,-0.00116
3832.37895,-0.00223
3830.45022,-0.00252
3828.52149,-0.00218
3826.59277,-0.00160
3824.66404,-0.00107
3822.73531,-0.00016
3820.80659,0.00064
3818.87786,0.00017
3816.94914,-0.00099
3815.02041,-0.00274
3813.09168,-0.00398
3811.16296,-0.00426
3809.23423,-0.00361
3807.30550,-0.00243
3805.37678,-0.00161
3803.44805,-0.00072
3801.51933,0.00010
3799.59060,-0.00042
3797.66187,-0.00158
3795.73315,-0.00314
3793.80442,-0.00431
3791.87570,-0.00475
3789.94697,-0.00467
3788.01824,-0.00410
3786.08952,-0.00340
3784.16079,-0.00337
3782.23206,-0.00353
3780.30334,-0.00330
3778.37461,-0.00360
3776.44589,-0.00429
3774.51716,-0.00433
3772.58843,-0.00349
3770.65971,-0.00221
3768.73098,-0.00165
3766.80225,-0.00190
3764.87353,-0.00243
3762.94480,-0.00262
3761.01608,-0.00189
3759.08735,-0.00082
3757.15862,-0.00057
3755.22990,-0.00015
3753.30117,0.00177
3751.37245,0.00501
3749.44372,0.00516
3747.51499,0.00396
3745.58627,0.00305
3743.65754,0.00178
3741.72881,0.00100
3739.80009,0.00112
3737.87136,0.00248
3735.94264,0.00434
3734.01391,0.00297
3732.08518,0.00009
3730.15646,-0.00121
3728.22773,-0.00089
3726.29900,0.00032
3724.37028,0.00074
3722.44155,-0.00032
3720.51283,-0.00176
3718.58410,-0.00265
3716.65537,-0.00265
3714.72665,-0.00173
3712.79792,0.00005
3710.86920,0.00043
3708.94047,-0.00158
3707.01174,-0.00296
3705.08302,-0.00330
3703.15429,-0.00300
3701.22556,-0.00301
3699.29684,-0.00348
3697.36811,-0.00355
3695.43939,-0.00302
3693.51066,-0.00195
3691.58193,-0.00006
3689.65321,0.00109
3687.72448,-0.00081
3685.79575,-0.00260
3683.86703,-0.00335
3681.93830,-0.00305
3680.00958,-0.00168
3678.08085,0.00025
3676.15212,0.00143
3674.22340,0.00097
3672.29467,0.00111
3670.36595,0.00103
3668.43722,-0.00124
3666.50849,-0.00316
3664.57977,-0.00401
3662.65104,-0.00413
3660.72231,-0.00377
3658.79359,-0.00301
3656.86486,-0.00214
3654.93614,-0.00177
3653.00741,-0.00119
3651.07868,0.00116
3649.14996,0.00381
3647.22123,0.00098
3645.29250,-0.00133
3643.36378,-0.00237
3641.43505,-0.00304
3639.50633,-0.00348
3637.57760,-0.00351
3635.64887,-0.00310
3633.72015,-0.00226
3631.79142,-0.00093
3629.86270,0.00066
3627.93397,-0.00006
3626.00524,-0.00197
3624.07652,-0.00273
3622.14779,-0.00201
3620.21906,0.00001
3618.29034,0.00103
3616.36161,0.00068
3614.43289,0.00047
3612.50416,0.00017
3610.57543,0.00001
3608.64671,-0.00041
3606.71798,-0.00185
3604.78925,-0.00280
3602.86053,-0.00242
3600.93180,-0.00143
3599.00308,-0.00113
3597.07435,-0.00137
3595.14562,-0.00182
3593.21690,-0.00252
3591.28817,-0.00252
3589.35945,-0.00110
3587.43072,-0.00004
3585.50199,-0.00148
3583.57327,-0.00288
3581.64454,-0.00340
3579.71581,-0.00354
3577.78709,-0.00367
3575.85836,-0.00378
3573.92964,-0.00379
3572.00091,-0.00341
3570.07218,-0.00200
3568.14346,0.00062
3566.21473,0.00134
3564.28600,-0.00063
3562.35728,-0.00217
3560.42855,-0.00310
3558.49983,-0.00379
3556.57110,-0.00392
3554.64237,-0.00330
3552.71365,-0.00282
3550.78492,-0.00301
3548.85620,-0.00270
3546.92747,-0.00161
3544.99874,-0.00156
3543.07002,-0.00306
3541.14129,-0.00439
3539.21256,-0.00467
3537.28384,-0.00437
3535.35511,-0.00437
3533.42639,-0.00436
3531.49766,-0.00368
3529.56893,-0.00262
3527.64021,-0.00181
3525.71148,-0.00144
3523.78275,-0.00191
3521.85403,-0.00322
3519.92530,-0.00427
3517.99658,-0.00483
3516.06785,-0.00521
3514.13912,-0.00516
3512.21040,-0.00451
3510.28167,-0.00404
3508.35295,-0.00422
3506.42422,-0.00402
3504.49549,-0.00298
3502.56677,-0.00271
3500.63804,-0.00376
3498.70931,-0.00459
3496.78059,-0.00487
3494.85186,-0.00514
3492.92314,-0.00540
3490.99441,-0.00526
3489.06568,-0.00488
3487.13696,-0.00476
3485.20823,-0.00477
3483.27950,-0.00450
3481.35078,-0.00444
3479.42205,-0.00500
3477.49333,-0.00541
3475.56460,-0.00541
3473.63587,-0.00547
3471.70715,-0.00562
3469.77842,-0.00556
3467.84970,-0.00539
3465.92097,-0.00521
3463.99224,-0.00497
3462.06352,-0.00487
3460.13479,-0.00511
3458.20606,-0.00544
3456.27734,-0.00568
3454.34861,-0.00584
3452.41989,-0.00580
3450.49116,-0.00541
3448.56243,-0.00473
3446.63371,-0.00443
3444.70498,-0.00472
3442.77625,-0.00508
3440.84753,-0.00544
3438.91880,-0.00580
3436.99008,-0.00599
3435.06135,-0.00600
3433.13262,-0.00588
3431.20390,-0.00583
3429.27517,-0.00591
3427.34644,-0.00593
3425.41772,-0.00569
3423.48899,-0.00520
3421.56027,-0.00488
3419.63154,-0.00514
3417.70281,-0.00563
3415.77409,-0.00588
3413.84536,-0.00595
3411.91664,-0.00601
3409.98791,-0.00608
3408.05918,-0.00613
3406.13046,-0.00612
3404.20173,-0.00603
3402.27300,-0.00593
3400.34428,-0.00581
3398.41555,-0.00565
3396.48683,-0.00551
3394.55810,-0.00540
3392.62937,-0.00544
3390.70065,-0.00581
3388.77192,-0.00608
3386.84319,-0.00593
3384.91447,-0.00565
3382.98574,-0.00565
3381.05702,-0.00579
3379.12829,-0.00589
3377.19956,-0.00598
3375.27084,-0.00608
3373.34211,-0.00611
3371.41339,-0.00599
3369.48466,-0.00570
3367.55593,-0.00544
3365.62721,-0.00540
3363.69848,-0.00547
3361.76975,-0.00557
3359.84103,-0.00566
3357.91230,-0.00569
3355.98358,-0.00572
3354.05485,-0.00584
3352.12612,-0.00601
3350.19740,-0.00612
3348.26867,-0.00613
3346.33994,-0.00603
3344.41122,-0.00590
3342.48249,-0.00579
3340.55377,-0.00564
3338.62504,-0.00544
3336.69631,-0.00536
3334.76759,-0.00555
3332.83886,-0.00576
3330.91014,-0.00577
3328.98141,-0.00567
3327.05268,-0.00561
3325.12396,-0.00566
3323.19523,-0.00578
3321.26650,-0.00590
3319.33778,-0.00597
3317.40905,-0.00594
3315.48033,-0.00579
3313.55160,-0.00555
3311.62287,-0.00535
3309.69415,-0.00528
3307.76542,-0.00542
3305.83669,-0.00564
3303.90797,-0.00572
3301.97924,-0.00567
3300.05052,-0.00559
3298.12179,-0.00557
3296.19306,-0.00559
3294.26434,-0.00553
3292.33561,-0.00540
3290.40689,-0.00535
3288.47816,-0.00544
3286.54943,-0.00552
3284.62071,-0.00547
3282.69198,-0.00543
3280.76325,-0.00543
3278.83453,-0.00537
3276.90580,-0.00524
3274.97708,-0.00517
3273.04835,-0.00518
3271.11962,-0.00521
3269.19090,-0.00521
3267.26217,-0.00520
3265.33344,-0.00518
3263.40472,-0.00519
3261.47599,-0.00527
3259.54727,-0.00533
3257.61854,-0.00524
3255.68981,-0.00511
3253.76109,-0.00516
3251.83236,-0.00535
3249.90364,-0.00540
3247.97491,-0.00521
3246.04618,-0.00499
3244.11746,-0.00497
3242.18873,-0.00507
3240.26000,-0.00515
3238.33128,-0.00517
3236.40255,-0.00513
3234.47383,-0.00509
3232.54510,-0.00505
3230.61637,-0.00498
3228.68765,-0.00498
3226.75892,-0.00514
3224.83019,-0.00525
3222.90147,-0.00515
3220.97274,-0.00492
3219.04402,-0.00483
3217.11529,-0.00489
3215.18656,-0.00493
3213.25784,-0.00493
3211.32911,-0.00491
3209.40039,-0.00489
3207.47166,-0.00488
3205.54293,-0.00482
3203.61421,-0.00472
3201.68548,-0.00463
3199.75675,-0.00454
3197.82803,-0.00451
3195.89930,-0.00463
3193.97058,-0.00477
3192.04185,-0.00485
3190.11312,-0.00487
3188.18440,-0.00482
3186.25567,-0.00470
3184.32694,-0.00464
3182.39822,-0.00465
3180.46949,-0.00462
3178.54077,-0.00454
3176.61204,-0.00452
3174.68331,-0.00456
3172.75459,-0.00459
3170.82586,-0.00460
3168.89714,-0.00462
3166.96841,-0.00466
3165.03968,-0.00471
3163.11096,-0.00477
3161.18223,-0.00480
3159.25350,-0.00475
3157.32478,-0.00465
3155.39605,-0.00457
3153.46733,-0.00456
3151.53860,-0.00453
3149.60987,-0.00450
3147.68115,-0.00451
3145.75242,-0.00452
3143.82369,-0.00447
3141.89497,-0.00443
3139.96624,-0.00443
3138.03752,-0.00440
3136.10879,-0.00430
3134.18006,-0.00422
3132.25134,-0.00426
3130.32261,-0.00428
3128.39389,-0.00423
3126.46516,-0.00416
3124.53643,-0.00409
3122.60771,-0.00399
3120.67898,-0.00393
3118.75025,-0.00395
3116.82153,-0.00399
3114.89280,-0.00406
3112.96408,-0.00412
3111.03535,-0.00415
3109.10662,-0.00420
3107.17790,-0.00425
3105.24917,-0.00417
3103.32044,-0.00393
3101.39172,-0.00380
3099.46299,-0.00389
3097.53427,-0.00400
3095.60554,-0.00403
3093.67681,-0.00413
3091.74809,-0.00425
3089.81936,-0.00431
3087.89063,-0.00431
3085.96191,-0.00426
3084.03318,-0.00414
3082.10446,-0.00399
3080.17573,-0.00390
3078.24700,-0.00395
3076.31828,-0.00407
3074.38955,-0.00414
3072.46083,-0.00411
3070.53210,-0.00403
3068.60337,-0.00388
3066.67465,-0.00372
3064.74592,-0.00369
3062.81719,-0.00380
3060.88847,-0.00390
3058.95974,-0.00385
3057.03102,-0.00377
3055.10229,-0.00379
3053.17356,-0.00388
3051.24484,-0.00385
3049.31611,-0.00374
3047.38738,-0.00375
3045.45866,-0.00388
3043.52993,-0.00397
3041.60121,-0.00396
3039.67248,-0.00392
3037.74375,-0.00384
3035.81503,-0.00364
3033.88630,-0.00340
3031.95758,-0.00334
3030.02885,-0.00349
3028.10012,-0.00367
3026.17140,-0.00372
3024.24267,-0.00375
3022.31394,-0.00381
3020.38522,-0.00396
3018.45649,-0.00408
3016.52777,-0.00397
3014.59904,-0.00371
3012.67031,-0.00349
3010.74159,-0.00345
3008.81286,-0.00356
3006.88413,-0.00364
3004.95541,-0.00365
3003.02668,-0.00369
3001.09796,-0.00374
2999.16923,-0.00377
2997.24050,-0.00377
2995.31178,-0.00373
2993.38305,-0.00373
2991.45433,-0.00379
2989.52560,-0.00382
2987.59687,-0.00380
2985.66815,-0.00379
2983.73942,-0.00379
2981.81069,-0.00375
2979.88197,-0.00372
2977.95324,-0.00369
2976.02452,-0.00364
2974.09579,-0.00358
2972.16706,-0.00351
2970.23834,-0.00348
2968.30961,-0.00346
2966.38088,-0.00342
2964.45216,-0.00338
2962.52343,-0.00336
2960.59471,-0.00336
2958.66598,-0.00335
2956.73725,-0.00332
2954.80853,-0.00332
2952.87980,-0.00334
2950.95108,-0.00335
2949.02235,-0.00336
2947.09362,-0.00339
2945.16490,-0.00343
2943.23617,-0.00347
2941.30744,-0.00349
2939.37872,-0.00345
2937.44999,-0.00333
2935.52127,-0.00319
2933.59254,-0.00310
2931.66381,-0.00307
2929.73509,-0.00303
2927.80636,-0.00292
2925.87763,-0.00280
2923.94891,-0.00282
2922.02018,-0.00292
2920.09146,-0.00302
2918.16273,-0.00308
2916.23400,-0.00313
2914.30528,-0.00315
2912.37655,-0.00316
2910.44783,-0.00321
2908.51910,-0.00327
2906.59037,-0.00327
2904.66165,-0.00322
2902.73292,-0.00322
2900.80419,-0.00327
2898.87547,-0.00332
2896.94674,-0.00333
2895.01802,-0.00334
2893.08929,-0.00334
2891.16056,-0.00337
2889.23184,-0.00341
2887.30311,-0.00345
2885.37438,-0.00348
2883.44566,-0.00347
2881.51693,-0.00344
2879.58821,-0.00342
2877.65948,-0.00344
2875.73075,-0.00344
2873.80203,-0.00338
2871.87330,-0.00327
2869.94458,-0.00321
2868.01585,-0.00320
2866.08712,-0.00320
2864.15840,-0.00317
2862.22967,-0.00313
2860.30094,-0.00308
2858.37222,-0.00301
2856.44349,-0.00292
2854.51477,-0.00284
2852.58604,-0.00282
2850.65731,-0.00287
2848.72859,-0.00296
2846.79986,-0.00305
2844.87113,-0.00308
2842.94241,-0.00308
2841.01368,-0.00306
2839.08496,-0.00306
2837.15623,-0.00308
2835.22750,-0.00311
2833.29878,-0.00310
2831.37005,-0.00307
2829.44133,-0.00309
2827.51260,-0.00312
2825.58387,-0.00317
2823.65515,-0.00320
2821.72642,-0.00319
2819.79769,-0.00317
2817.86897,-0.00315
2815.94024,-0.00310
2814.01152,-0.00306
2812.08279,-0.00305
2810.15406,-0.00305
2808.22534,-0.00306
2806.29661,-0.00310
2804.36788,-0.00313
2802.43916,-0.00312
2800.51043,-0.00306
2798.58171,-0.00301
2796.65298,-0.00300
2794.72425,-0.00302
2792.79553,-0.00301
2790.86680,-0.00299
2788.93808,-0.00300
2787.00935,-0.00303
2785.08062,-0.00303
2783.15190,-0.00299
2781.22317,-0.00293
2779.29444,-0.00291
2777.36572,-0.00296
2775.43699,-0.00301
2773.50827,-0.00299
2771.57954,-0.00294
2769.65081,-0.00290
2767.72209,-0.00289
2765.79336,-0.00290
2763.86463,-0.00294
2761.93591,-0.00297
2760.00718,-0.00298
2758.07846,-0.00296
2756.14973,-0.00293
2754.22100,-0.00293
2752.29228,-0.00293
2750.36355,-0.00288
2748.43483,-0.00285
2746.50610,-0.00286
2744.57737,-0.00287
2742.64865,-0.00288
2740.71992,-0.00288
2738.79119,-0.00288
2736.86247,-0.00287
2734.93374,-0.00287
2733.00502,-0.00287
2731.07629,-0.00286
2729.14756,-0.00286
2727.21884,-0.00286
2725.29011,-0.00288
2723.36138,-0.00286
2721.43266,-0.00284
2719.50393,-0.00284
2717.57521,-0.00285
2715.64648,-0.00285
2713.71775,-0.00284
2711.78903,-0.00281
2709.86030,-0.00277
2707.93157,-0.00273
2706.00285,-0.00273
2704.07412,-0.00275
2702.14540,-0.00274
2700.21667,-0.00270
2698.28794,-0.00268
2696.35922,-0.00274
2694.43049,-0.00280
2692.50177,-0.00279
2690.57304,-0.00273
2688.64431,-0.00267
2686.71559,-0.00262
2684.78686,-0.00263
2682.85813,-0.00268
2680.92941,-0.00271
2679.00068,-0.00269
2677.07196,-0.00266
2675.14323,-0.00267
2673.21450,-0.00267
2671.28578,-0.00267
2669.35705,-0.00266
2667.42832,-0.00265
2665.49960,-0.00263
2663.57087,-0.00262
2661.64215,-0.00262
2659.71342,-0.00263
2657.78469,-0.00267
2655.85597,-0.00271
2653.92724,-0.00269
2651.99852,-0.00264
2650.06979,-0.00263
2648.14106,-0.00270
2646.21234,-0.00277
2644.28361,-0.00278
2642.35488,-0.00276
2640.42616,-0.00273
2638.49743,-0.00271
2636.56871,-0.00274
2634.63998,-0.00279
2632.71125,-0.00281
2630.78253,-0.00278
2628.85380,-0.00272
2626.92507,-0.00267
2624.99635,-0.00263
2623.06762,-0.00263
2621.13890,-0.00264
2619.21017,-0.00267
2617.28144,-0.00270
2615.35272,-0.00267
2613.42399,-0.00265
2611.49527,-0.00270
2609.56654,-0.00274
2607.63781,-0.00273
2605.70909,-0.00268
2603.78036,-0.00261
2601.85163,-0.00257
2599.92291,-0.00256
2597.99418,-0.00256
2596.06546,-0.00254
2594.13673,-0.00250
2592.20800,-0.00252
2590.27928,-0.00255
2588.35055,-0.00252
2586.42182,-0.00244
2584.49310,-0.00241
2582.56437,-0.00241
2580.63565,-0.00239
2578.70692,-0.00239
2576.77819,-0.00245
2574.84947,-0.00250
2572.92074,-0.00248
2570.99202,-0.00243
2569.06329,-0.00241
2567.13456,-0.00244
2565.20584,-0.00248
2563.27711,-0.00253
2561.34838,-0.00255
2559.41966,-0.00250
2557.49093,-0.00245
2555.56221,-0.00243
2553.63348,-0.00241
2551.70475,-0.00240
2549.77603,-0.00242
2547.84730,-0.00243
2545.91857,-0.00237
2543.98985,-0.00231
2542.06112,-0.00229
2540.13240,-0.00228
2538.20367,-0.00226
2536.27494,-0.00228
2534.34622,-0.00231
2532.41749,-0.00230
2530.48877,-0.00227
2528.56004,-0.00227
2526.63131,-0.00231
2524.70259,-0.00234
2522.77386,-0.00234
2520.84513,-0.00228
2518.91641,-0.00219
2516.98768,-0.00213
2515.05896,-0.00217
2513.13023,-0.00225
2511.20150,-0.00229
2509.27278,-0.00227
2507.34405,-0.00225
2505.41532,-0.00220
2503.48660,-0.00212
2501.55787,-0.00209
2499.62915,-0.00216
2497.70042,-0.00219
2495.77169,-0.00212
2493.84297,-0.00205
2491.91424,-0.00206
2489.98552,-0.00211
2488.05679,-0.00213
2486.12806,-0.00214
2484.19934,-0.00216
2482.27061,-0.00216
2480.34188,-0.00212
2478.41316,-0.00208
2476.48443,-0.00205
2474.55571,-0.00203
2472.62698,-0.00201
2470.69825,-0.00197
2468.76953,-0.00195
2466.84080,-0.00199
2464.91207,-0.00205
2462.98335,-0.00211
2461.05462,-0.00217
2459.12590,-0.00221
2457.19717,-0.00223
2455.26844,-0.00225
2453.33972,-0.00225
2451.41099,-0.00223
2449.48227,-0.00220
2447.55354,-0.00216
2445.62481,-0.00213
2443.69609,-0.00214
2441.76736,-0.00216
2439.83863,-0.00214
2437.90991,-0.00204
2435.98118,-0.00190
2434.05246,-0.00181
2432.12373,-0.00180
2430.19500,-0.00180
2428.26628,-0.00182
2426.33755,-0.00190
2424.40882,-0.00191
2422.48010,-0.00186
2420.55137,-0.00188
2418.62265,-0.00193
2416.69392,-0.00195
2414.76519,-0.00196
2412.83647,-0.00191
2410.90774,-0.00184
2408.97902,-0.00181
2407.05029,-0.00181
2405.12156,-0.00183
2403.19284,-0.00186
2401.26411,-0.00187
2399.33538,-0.00186
2397.40666,-0.00184
2395.47793,-0.00182
2393.54921,-0.00180
2391.62048,-0.00176
2389.69175,-0.00170
2387.76303,-0.00162
2385.83430,-0.00146
2383.90557,-0.00126
2381.97685,-0.00114
2380.04812,-0.00122
2378.11940,-0.00152
2376.19067,-0.00205
2374.26194,-0.00273
2372.33322,-0.00352
2370.40449,-0.00452
2368.47576,-0.00567
2366.54704,-0.00668
2364.61831,-0.00736
2362.68959,-0.00763
2360.76086,-0.00759
2358.83213,-0.00742
2356.90341,-0.00711
2354.97468,-0.00636
2353.04596,-0.00495
2351.11723,-0.00359
2349.18850,-0.00312
2347.25978,-0.00363
2345.33105,-0.00485
2343.40232,-0.00612
2341.47360,-0.00682
2339.54487,-0.00702
2337.61615,-0.00689
2335.68742,-0.00649
2333.75869,-0.00587
2331.82997,-0.00524
2329.90124,-0.00482
2327.97251,-0.00454
2326.04379,-0.00415
2324.11506,-0.00353
2322.18634,-0.00280
2320.25761,-0.00222
2318.32888,-0.00192
2316.40016,-0.00179
2314.47143,-0.00158
2312.54271,-0.00124
2310.61398,-0.00095
2308.68525,-0.00085
2306.75653,-0.00089
2304.82780,-0.00100
2302.89907,-0.00119
2300.97035,-0.00132
2299.04162,-0.00136
2297.11290,-0.00140
2295.18417,-0.00149
2293.25544,-0.00165
2291.32672,-0.00178
2289.39799,-0.00178
2287.46926,-0.00169
2285.54054,-0.00164
2283.61181,-0.00166
2281.68309,-0.00173
2279.75436,-0.00177
2277.82563,-0.00175
2275.89691,-0.00178
2273.96818,-0.00188
2272.03946,-0.00192
2270.11073,-0.00191
2268.18200,-0.00190
2266.25328,-0.00183
2264.32455,-0.00172
2262.39582,-0.00162
2260.46710,-0.00159
2258.53837,-0.00165
2256.60965,-0.00170
2254.68092,-0.00162
2252.75219,-0.00155
2250.82347,-0.00153
2248.89474,-0.00148
2246.96601,-0.00144
2245.03729,-0.00142
2243.10856,-0.00144
2241.17984,-0.00154
2239.25111,-0.00163
2237.32238,-0.00161
2235.39366,-0.00152
2233.46493,-0.00150
2231.53621,-0.00153
2229.60748,-0.00153
2227.67875,-0.00156
2225.75003,-0.00161
2223.82130,-0.00156
2221.89257,-0.00151
2219.96385,-0.00155
2218.03512,-0.00155
2216.10640,-0.00156
2214.17767,-0.00164
2212.24894,-0.00170
2210.32022,-0.00169
2208.39149,-0.00170
2206.46276,-0.00177
2204.53404,-0.00173
2202.60531,-0.00157
2200.67659,-0.00162
2198.74786,-0.00198
2196.81913,-0.00228
2194.89041,-0.00234
2192.96168,-0.00238
2191.03296,-0.00236
2189.10423,-0.00221
2187.17550,-0.00219
2185.24678,-0.00235
2183.31805,-0.00240
2181.38932,-0.00244
2179.46060,-0.00261
2177.53187,-0.00263
2175.60315,-0.00245
2173.67442,-0.00236
2171.74569,-0.00248
2169.81697,-0.00270
2167.88824,-0.00284
2165.95951,-0.00295
2164.03079,-0.00298
2162.10206,-0.00284
2160.17334,-0.00251
2158.24461,-0.00191
2156.31588,-0.00143
2154.38716,-0.00124
2152.45843,-0.00114
2150.52971,-0.00124
2148.60098,-0.00146
2146.67225,-0.00144
2144.74353,-0.00123
2142.81480,-0.00113
2140.88607,-0.00116
2138.95735,-0.00119
2137.02862,-0.00114
2135.09990,-0.00105
2133.17117,-0.00107
2131.24244,-0.00122
2129.31372,-0.00137
2127.38499,-0.00148
2125.45626,-0.00161
2123.52754,-0.00174
2121.59881,-0.00181
2119.67009,-0.00183
2117.74136,-0.00181
2115.81263,-0.00179
2113.88391,-0.00185
2111.95518,-0.00199
2110.02646,-0.00206
2108.09773,-0.00203
2106.16900,-0.00193
2104.24028,-0.00185
2102.31155,-0.00180
2100.38282,-0.00171
2098.45410,-0.00161
2096.52537,-0.00156
2094.59665,-0.00150
2092.66792,-0.00139
2090.73919,-0.00127
2088.81047,-0.00122
2086.88174,-0.00134
2084.95301,-0.00155
2083.02429,-0.00167
2081.09556,-0.00168
2079.16684,-0.00166
2077.23811,-0.00161
2075.30938,-0.00157
2073.38066,-0.00153
2071.45193,-0.00142
2069.52321,-0.00122
2067.59448,-0.00091
2065.66575,-0.00061
2063.73703,-0.00064
2061.80830,-0.00099
2059.87957,-0.00134
2057.95085,-0.00146
2056.02212,-0.00133
2054.09340,-0.00119
2052.16467,-0.00128
2050.23594,-0.00154
2048.30722,-0.00164
2046.37849,-0.00138
2044.44976,-0.00080
2042.52104,-0.00035
2040.59231,-0.00052
2038.66359,-0.00097
2036.73486,-0.00117
2034.80613,-0.00122
2032.87741,-0.00134
2030.94868,-0.00127
2029.01996,-0.00093
2027.09123,-0.00062
2025.16250,-0.00045
2023.23378,-0.00044
2021.30505,-0.00051
2019.37632,-0.00025
2017.44760,0.00015
2015.51887,-0.00001
2013.59015,-0.00050
2011.66142,-0.00068
2009.73269,-0.00043
2007.80397,-0.00015
2005.87524,-0.00022
2003.94651,-0.00049
2002.01779,-0.00071
2000.08906,-0.00086
1998.16034,-0.00095
1996.23161,-0.00080
1994.30288,-0.00017
1992.37416,0.00051
1990.44543,0.00053
1988.51670,0.00020
1986.58798,-0.00014
1984.65925,-0.00050
1982.73053,-0.00078
1980.80180,-0.00091
1978.87307,-0.00094
1976.94435,-0.00092
1975.01562,-0.00087
1973.08690,-0.00067
1971.15817,-0.00016
1969.22944,0.00057
1967.30072,0.00084
1965.37199,0.00025
1963.44326,-0.00037
1961.51454,-0.00052
1959.58581,-0.00039
1957.65709,-0.00012
1955.72836,0.00013
1953.79963,0.00010
1951.87091,-0.00011
1949.94218,-0.00020
1948.01345,0.00005
1946.08473,0.00057
1944.15600,0.00102
1942.22728,0.00087
1940.29855,0.00021
1938.36982,-0.00023
1936.44110,-0.00022
1934.51237,-0.00010
1932.58365,-0.00018
1930.65492,-0.00036
1928.72619,-0.00047
1926.79747,-0.00030
1924.86874,0.00043
1922.94001,0.00112
1921.01129,0.00108
1919.08256,0.00084
1917.15384,0.00053
1915.22511,0.00004
1913.29638,-0.00007
1911.36766,0.00039
1909.43893,0.00080
1907.51020,0.00053
1905.58148,0.00001
1903.65275,-0.00020
1901.72403,-0.00019
1899.79530,-0.00010
1897.86657,0.00017
1895.93785,0.00052
1894.00912,0.00062
1892.08040,0.00071
1890.15167,0.00087
1888.22294,0.00066
1886.29422,0.00034
1884.36549,0.00013
1882.43676,-0.00010
1880.50804,-0.00022
1878.57931,-0.00019
1876.65059,-0.00020
1874.72186,-0.00011
1872.79313,0.00050
1870.86441,0.00196
1868.93568,0.00335
1867.00695,0.00256
1865.07823,0.00101
1863.14950,0.00030
1861.22078,0.00026
1859.29205,0.00026
1857.36332,0.00005
1855.43460,-0.00015
1853.50587,-0.00019
1851.57715,0.00006
1849.64842,0.00086
1847.71969,0.00217
1845.79097,0.00335
1843.86224,0.00312
1841.93351,0.00168
1840.00479,0.00083
1838.07606,0.00072
1836.14734,0.00068
1834.21861,0.00060
1832.28988,0.00102
1830.36116,0.00183
1828.43243,0.00207
1826.50370,0.00192
1824.57498,0.00163
1822.64625,0.00092
1820.71753,0.00031
1818.78880,0.00021
1816.86007,0.00025
1814.93135,0.00043
1813.00262,0.00107
1811.07390,0.00166
1809.14517,0.00143
1807.21644,0.00093
1805.28772,0.00094
1803.35899,0.00177
1801.43026,0.00272
1799.50154,0.00282
1797.57281,0.00277
1795.64409,0.00319
1793.71536,0.00384
1791.78663,0.00369
1789.85791,0.00226
1787.92918,0.00125
1786.00045,0.00116
1784.07173,0.00150
1782.14300,0.00187
1780.21428,0.00208
1778.28555,0.00194
1776.35682,0.00206
1774.42810,0.00293
1772.49937,0.00403
1770.57065,0.00384
1768.64192,0.00279
1766.71319,0.00175
1764.78447,0.00143
1762.85574,0.00203
1760.92701,0.00264
1758.99829,0.00271
1757.06956,0.00251
1755.14084,0.00225
1753.21211,0.00286
1751.28338,0.00495
1749.35466,0.00693
1747.42593,0.00653
1745.49720,0.00536
1743.56848,0.00438
1741.63975,0.00371
1739.71103,0.00353
1737.78230,0.00363
1735.85357,0.00428
1733.92485,0.00554
1731.99612,0.00494
1730.06740,0.00294
1728.13867,0.00130
1726.20994,0.00076
1724.28122,0.00110
1722.35249,0.00165
1720.42376,0.00245
1718.49504,0.00484
1716.56631,0.00769
1714.63759,0.00574
1712.70886,0.00330
1710.78013,0.00226
1708.85141,0.00244
1706.92268,0.00365
1704.99395,0.00505
1703.06523,0.00561
1701.13650,0.00636
1699.20778,0.00781
1697.27905,0.00722
1695.35032,0.00420
1693.42160,0.00227
1691.49287,0.00215
1689.56415,0.00317
1687.63542,0.00426
1685.70669,0.00506
1683.77797,0.00572
1681.84924,0.00496
1679.92051,0.00353
1677.99179,0.00253
1676.06306,0.00244
1674.13434,0.00288
1672.20561,0.00342
1670.27688,0.00358
1668.34816,0.00208
1666.41943,0.00081
1664.49070,0.00079
1662.56198,0.00115
1660.63325,0.00074
1658.70453,0.00060
1656.77580,0.00142
1654.84707,0.00307
1652.91835,0.00417
1650.98962,0.00376
1649.06090,0.00425
1647.13217,0.00450
1645.20344,0.00249
1643.27472,0.00108
1641.34599,0.00084
1639.41726,0.00148
1637.48854,0.00279
1635.55981,0.00259
1633.63109,0.00070
1631.70236,-0.00019
1629.77363,-0.00020
1627.84491,0.00033
1625.91618,0.00098
1623.98745,0.00157
1622.05873,0.00149
1620.13000,0.00115
1618.20128,0.00136
1616.27255,0.00127
1614.34382,0.00029
1612.41510,-0.00024
1610.48637,-0.00007
1608.55764,0.00021
1606.62892,0.00006
1604.70019,-0.00012
1602.77147,-0.00021
1600.84274,-0.00060
1598.91401,-0.00094
1596.98529,-0.00077
1595.05656,-0.00050
1593.12784,-0.00057
1591.19911,-0.00074
1589.27038,-0.00098
1587.34166,-0.00123
1585.41293,-0.00126
1583.48420,-0.00109
1581.55548,-0.00081
1579.62675,-0.00009
1577.69803,0.00131
1575.76930,0.00198
1573.84057,0.00124
1571.91185,0.00109
1569.98312,0.00156
1568.05439,0.00162
1566.12567,0.00151
1564.19694,0.00175
1562.26822,0.00234
1560.33949,0.00388
1558.41076,0.00686
1556.48204,0.00664
1554.55331,0.00513
1552.62459,0.00402
1550.69586,0.00349
1548.76713,0.00322
1546.83841,0.00388
1544.90968,0.00656
1542.98095,0.01088
1541.05223,0.01133
1539.12350,0.00658
1537.19478,0.00513
1535.26605,0.00533
1533.33732,0.00519
1531.40860,0.00417
1529.47987,0.00416
1527.55114,0.00573
1525.62242,0.00770
1523.69369,0.00893
1521.76497,0.00919
1519.83624,0.00816
1517.90751,0.00753
1515.97879,0.00672
1514.05006,0.00590
1512.12134,0.00638
1510.19261,0.00851
1508.26388,0.01098
1506.33516,0.00727
1504.40643,0.00411
1502.47770,0.00358
1500.54898,0.00400
1498.62025,0.00472
1496.69153,0.00415
1494.76280,0.00273
1492.83407,0.00262
1490.90535,0.00436
1488.97662,0.00577
1487.04789,0.00372
1485.11917,0.00170
1483.19044,0.00095
1481.26172,0.00091
1479.33299,0.00109
1477.40426,0.00201
1475.47554,0.00412
1473.54681,0.00561
1471.61809,0.00350
1469.68936,0.00153
1467.76063,0.00114
1465.83191,0.00157
1463.90318,0.00159
1461.97445,0.00150
1460.04573,0.00261
1458.11700,0.00575
1456.18828,0.00620
1454.25955,0.00351
1452.33082,0.00193
1450.40210,0.00145
1448.47337,0.00156
1446.54464,0.00117
1444.61592,0.00037
1442.68719,-0.00005
1440.75847,0.00020
1438.82974,0.00125
1436.90101,0.00270
1434.97229,0.00271
1433.04356,0.00205
1431.11484,0.00181
1429.18611,0.00147
1427.25738,0.00106
1425.32866,0.00117
1423.39993,0.00162
1421.47120,0.00222
1419.54248,0.00333
1417.61375,0.00314
1415.68503,0.00154
1413.75630,0.00067
1411.82757,0.00057
1409.89885,0.00042
1407.97012,0.00032
1406.04139,0.00068
1404.11267,0.00079
1402.18394,0.00072
1400.25522,0.00154
1398.32649,0.00306
1396.39776,0.00371
1394.46904,0.00267
1392.54031,0.00124
1390.61159,0.00087
1388.68286,0.00151
1386.75413,0.00165
1384.82541,0.00062
1382.89668,-0.00003
1380.96795,0.00014
1379.03923,0.00064
1377.11050,0.00125
1375.18178,0.00193
1373.25305,0.00175
1371.32432,0.00095
1369.39560,0.00050
1367.46687,0.00029
1365.53814,0.00057
1363.60942,0.00164
1361.68069,0.00190
1359.75197,0.00082
1357.82324,0.00006
1355.89451,-0.00005
1353.96579,-0.00014
1352.03706,-0.00036
1350.10834,-0.00042
1348.17961,-0.00045
1346.25088,-0.00057
1344.32216,-0.00039
1342.39343,0.00074
1340.46470,0.00271
1338.53598,0.00313
1336.60725,0.00140
1334.67853,-0.00004
1332.74980,-0.00053
1330.82107,-0.00055
1328.89235,-0.00054
1326.96362,-0.00058
1325.03489,-0.00049
1323.10617,-0.00014
1321.17744,0.00056
1319.24872,0.00125
1317.31999,0.00134
1315.39126,0.00119
1313.46254,0.00099
1311.53381,0.00047
1309.60509,-0.00005
1307.67636,-0.00029
1305.74763,-0.00048
1303.81891,-0.00064
1301.89018,-0.00070
1299.96145,-0.00065
1298.03273,-0.00049
1296.10400,-0.00040
1294.17528,-0.00041
1292.24655,-0.00029
1290.31782,-0.00000
1288.38910,0.00014
1286.46037,-0.00006
1284.53164,-0.00034
1282.60292,-0.00043
1280.67419,-0.00042
1278.74547,-0.00047
1276.81674,-0.00053
1274.88801,-0.00041
1272.95929,-0.00009
1271.03056,0.00022
1269.10183,0.00033
1267.17311,0.00034
1265.24438,0.00037
1263.31566,0.00051
1261.38693,0.00069
1259.45820,0.00063
1257.52948,0.00029
1255.60075,-0.00009
1253.67203,-0.00033
1251.74330,-0.00052
1249.81457,-0.00068
1247.88585,-0.00077
1245.95712,-0.00074
1244.02839,-0.00068
1242.09967,-0.00070
1240.17094,-0.00072
1238.24222,-0.00069
1236.31349,-0.00065
1234.38476,-0.00065
1232.45604,-0.00067
1230.52731,-0.00066
1228.59858,-0.00059
1226.66986,-0.00047
1224.74113,-0.00042
1222.81241,-0.00050
1220.88368,-0.00059
1218.95495,-0.00062
1217.02623,-0.00063
1215.09750,-0.00058
1213.16878,-0.00049
1211.24005,-0.00048
1209.31132,-0.00053
1207.38260,-0.00054
1205.45387,-0.00054
1203.52514,-0.00056
1201.59642,-0.00056
1199.66769,-0.00054
1197.73897,-0.00055
1195.81024,-0.00058
1193.88151,-0.00056
1191.95279,-0.00049
1190.02406,-0.00042
1188.09533,-0.00034
1186.16661,-0.00028
1184.23788,-0.00024
1182.30916,-0.00024
1180.38043,-0.00027
1178.45170,-0.00030
1176.52298,-0.00029
1174.59425,-0.00027
1172.66553,-0.00030
1170.73680,-0.00035
1168.80807,-0.00042
1166.87935,-0.00050
1164.95062,-0.00053
1163.02189,-0.00052
1161.09317,-0.00052
1159.16444,-0.00052
1157.23572,-0.00052
1155.30699,-0.00053
1153.37826,-0.00056
1151.44954,-0.00061
1149.52081,-0.00065
1147.59208,-0.00065
1145.66336,-0.00060
1143.73463,-0.00055
1141.80591,-0.00053
1139.87718,-0.00054
1137.94845,-0.00051
1136.01973,-0.00047
1134.09100,-0.00047
1132.16228,-0.00050
1130.23355,-0.00055
1128.30482,-0.00061
1126.37610,-0.00066
1124.44737,-0.00065
1122.51864,-0.00062
1120.58992,-0.00058
1118.66119,-0.00054
1116.73247,-0.00043
1114.80374,-0.00031
1112.87501,-0.00023
1110.94629,-0.00016
1109.01756,-0.00005
1107.08883,0.00002
1105.16011,0.00005
1103.23138,0.00010
1101.30266,0.00018
1099.37393,0.00024
1097.44520,0.00029
1095.51648,0.00034
1093.58775,0.00034
1091.65903,0.00029
1089.73030,0.00025
1087.80157,0.00025
1085.87285,0.00027
1083.94412,0.00025
1082.01539,0.00019
1080.08667,0.00015
1078.15794,0.00013
1076.22922,0.00012
1074.30049,0.00010
1072.37176,0.00008
1070.44304,0.00004
1068.51431,-0.00001
1066.58558,-0.00004
1064.65686,-0.00007
1062.72813,-0.00013
1060.79941,-0.00014
1058.87068,-0.00005
1056.94195,0.00001
1055.01323,0.00001
1053.08450,-0.00001
1051.15578,-0.00004
1049.22705,-0.00006
1047.29832,-0.00007
1045.36960,-0.00010
1043.44087,-0.00009
1041.51214,-0.00003
1039.58342,-0.00004
1037.65469,-0.00004
1035.72597,0.00004
1033.79724,0.00011
1031.86851,0.00013
1029.93979,0.00017
1028.01106,0.00025
1026.08233,0.00035
1024.15361,0.00047
1022.22488,0.00055
1020.29616,0.00055
1018.36743,0.00052
1016.43870,0.00052
1014.50998,0.00048
1012.58125,0.00039
1010.65253,0.00027
1008.72380,0.00016
1006.79507,0.00006
1004.86635,-0.00004
1002.93762,-0.00011
1001.00889,-0.00021
999.08017,-0.00031
997.15144,-0.00037
995.22272,-0.00034
993.29399,-0.00031
991.36526,-0.00032
989.43654,-0.00041
987.50781,-0.00055
985.57908,-0.00056
983.65036,-0.00036
981.72163,-0.00014
979.79291,-0.00009
977.86418,-0.00020
975.93545,-0.00037
974.00673,-0.00046
972.07800,-0.00042
970.14928,-0.00034
968.22055,-0.00034
966.29182,-0.00037
964.36310,-0.00036
962.43437,-0.00032
960.50564,-0.00029
958.57692,-0.00039
956.64819,-0.00053
954.71947,-0.00050
952.79074,-0.00045
950.86201,-0.00062
948.93329,-0.00079
947.00456,-0.00076
945.07583,-0.00066
943.14711,-0.00054
941.21838,-0.00040
939.28966,-0.00034
937.36093,-0.00039
935.43220,-0.00043
933.50348,-0.00041
931.57475,-0.00039
929.64603,-0.00042
927.71730,-0.00046
925.78857,-0.00049
923.85985,-0.00050
921.93112,-0.00048
920.00239,-0.00058
918.07367,-0.00076
916.14494,-0.00079
914.21622,-0.00063
912.28749,-0.00051
910.35876,-0.00061
908.43004,-0.00070
906.50131,-0.00058
904.57258,-0.00039
902.64386,-0.00019
900.71513,-0.00005
898.78641,-0.00010
896.85768,-0.00025
894.92895,-0.00025
893.00023,-0.00014
891.07150,-0.00018
889.14277,-0.00035
887.21405,-0.00037
885.28532,-0.00031
883.35660,-0.00039
881.42787,-0.00045
879.49914,-0.00027
877.57042,-0.00007
875.64169,-0.00011
873.71297,-0.00019
871.78424,-0.00022
869.85551,-0.00025
867.92679,-0.00027
865.99806,-0.00025
864.06933,-0.00012
862.14061,0.00027
860.21188,0.00078
858.28316,0.00097
856.35443,0.00078
854.42570,0.00054
852.49698,0.00045
850.56825,0.00043
848.63952,0.00042
846.71080,0.00049
844.78207,0.00068
842.85335,0.00082
840.92462,0.00075
838.99589,0.00046
837.06717,0.00010
835.13844,-0.00006
833.20972,0.00000
831.28099,0.00006
829.35226,0.00010
827.42354,0.00028
825.49481,0.00048
823.56608,0.00060
821.63736,0.00072
819.70863,0.00076
817.77991,0.00066
815.85118,0.00053
813.92245,0.00058
811.99373,0.00079
810.06500,0.00103
808.13627,0.00114
806.20755,0.00112
804.27882,0.00114
802.35010,0.00121
800.42137,0.00119
798.49264,0.00105
796.56392,0.00091
794.63519,0.00097
792.70647,0.00109
790.77774,0.00085
788.84901,0.00030
786.92029,-0.00005
784.99156,-0.00008
783.06283,-0.00008
781.13411,0.00000
779.20538,0.00021
777.27666,0.00025
775.34793,0.00012
773.41920,0.00024
771.49048,0.00067
769.56175,0.00080
767.63302,0.00041
765.70430,0.00015
763.77557,0.00024
761.84685,0.00027
759.91812,0.00008
757.98939,-0.00010
756.06067,-0.00002
754.13194,0.00031
752.20322,0.00038
750.27449,-0.00002
748.34576,-0.00031
746.41704,-0.00016
744.48831,0.00011
742.55958,0.00046
740.63086,0.00085
738.70213,0.00065
736.77341,-0.00010
734.84468,-0.00065
732.91595,-0.00086
730.98723,-0.00089
729.05850,-0.00081
727.12977,-0.00070
725.20105,-0.00060
723.27232,-0.00042
721.34360,-0.00019
719.41487,-0.00004
717.48614,0.00005
715.55742,0.00010
713.62869,0.00002
711.69997,-0.00012
709.77124,-0.00020
707.84251,-0.00010
705.91379,0.00010
703.98506,0.00019
702.05633,0.00014
700.12761,0.00015
698.19888,0.00030
696.27016,0.00035
694.34143,0.00018
692.41270,-0.00005
690.48398,-0.00003
688.55525,0.00010
686.62652,0.00001
684.69780,-0.00022
682.76907,-0.00037
680.84035,-0.00051
678.91162,-0.00065
676.98289,-0.00067
675.05417,-0.00062
673.12544,-0.00059
671.19672,-0.00055
669.26799,-0.00067
667.33926,-0.00085
665.41054,-0.00053
663.48181,-0.00014
661.55308,0.00002
659.62436,0.00000
657.69563,-0.00018
655.76691,-0.00052
653.83818,-0.00075
651.90945,-0.00077
649.98073,-0.00070
648.05200,-0.00061
646.12327,-0.00043
644.19455,-0.00022
642.26582,0.00003
640.33710,0.00024
638.40837,0.00036
636.47964,0.00053
634.55092,0.00065
632.62219,0.00043
630.69347,-0.00010
628.76474,-0.00071
626.83601,-0.00105
624.90729,-0.00090
622.97856,-0.00083
621.04983,-0.00102
619.12111,0.00016
617.19238,0.00245
615.26366,0.00278
613.33493,-0.00039
611.40620,-0.00428
609.47748,-0.00501
607.54875,-0.00368
605.62002,-0.00356
603.69130,-0.00381
601.76257,-0.00211
599.83385,0.00025
