7497.03301,0.81320
7495.10426,0.81155
7493.17552,0.81203
7491.24677,0.81443
7489.31803,0.81299
7487.38928,0.80597
7485.46054,0.80087
7483.53179,0.80299
7481.60305,0.80644
7479.67430,0.80762
7477.74556,0.80845
7475.81681,0.80921
7473.88807,0.81184
7471.95932,0.81494
7470.03057,0.81296
7468.10183,0.80850
7466.17308,0.80767
7464.24434,0.80760
7462.31559,0.80315
7460.38685,0.79557
7458.45810,0.78837
7456.52936,0.78772
7454.60061,0.79492
7452.67187,0.79972
7450.74312,0.79785
7448.81438,0.79562
7446.88563,0.79705
7444.95689,0.80066
7443.02814,0.80122
7441.09940,0.79796
7439.17065,0.79382
7437.24190,0.78808
7435.31316,0.78415
7433.38441,0.78711
7431.45567,0.79282
7429.52692,0.79334
7427.59818,0.78842
7425.66943,0.78501
7423.74069,0.78453
7421.81194,0.78401
7419.88320,0.78494
7417.95445,0.78685
7416.02571,0.78709
7414.09696,0.78743
7412.16822,0.78785
7410.23947,0.78487
7408.31073,0.78118
7406.38198,0.78159
7404.45323,0.78322
7402.52449,0.78197
7400.59574,0.77839
7398.66700,0.77426
7396.73825,0.77159
7394.80951,0.77163
7392.88076,0.77204
7390.95202,0.76938
7389.02327,0.76598
7387.09453,0.76634
7385.16578,0.76969
7383.23704,0.77169
7381.30829,0.77066
7379.37955,0.76904
7377.45080,0.76709
7375.52205,0.76286
7373.59331,0.75968
7371.66456,0.76219
7369.73582,0.76692
7367.80707,0.76655
7365.87833,0.76055
7363.94958,0.75402
7362.02084,0.75158
7360.09209,0.75463
7358.16335,0.75962
7356.23460,0.76368
7354.30586,0.76669
7352.37711,0.76812
7350.44837,0.76668
7348.51962,0.76183
7346.59088,0.75821
7344.66213,0.76098
7342.73338,0.76515
7340.80464,0.76368
7338.87589,0.75857
7336.94715,0.75120
7335.01840,0.74164
7333.08966,0.73627
7331.16091,0.73693
7329.23217,0.73734
7327.30342,0.73522
7325.37468,0.73302
7323.44593,0.73097
7321.51719,0.73079
7319.58844,0.73518
7317.65970,0.74035
7315.73095,0.74213
7313.80221,0.74298
7311.87346,0.74348
7309.94471,0.74159
7308.01597,0.73776
7306.08722,0.73452
7304.15848,0.73601
7302.22973,0.74158
7300.30099,0.74508
7298.37224,0.74438
7296.44350,0.74397
7294.51475,0.74658
7292.58601,0.74884
7290.65726,0.74819
7288.72852,0.74642
7286.79977,0.74369
7284.87103,0.73919
7282.94228,0.73472
7281.01353,0.73205
7279.08479,0.73118
7277.15604,0.73109
7275.22730,0.73186
7273.29855,0.73393
7271.36981,0.73644
7269.44106,0.73804
7267.51232,0.73741
7265.58357,0.73638
7263.65483,0.73710
7261.72608,0.73706
7259.79734,0.73490
7257.86859,0.73359
7255.93985,0.73448
7254.01110,0.73362
7252.08236,0.72978
7250.15361,0.72915
7248.22486,0.73179
7246.29612,0.73129
7244.36737,0.72862
7242.43863,0.72969
7240.50988,0.73358
7238.58114,0.73594
7236.65239,0.73667
7234.72365,0.73580
7232.79490,0.73378
7230.86616,0.73368
7228.93741,0.73539
7227.00867,0.73787
7225.07992,0.74141
7223.15118,0.74202
7221.22243,0.73826
7219.29369,0.73506
7217.36494,0.73453
7215.43619,0.73519
7213.50745,0.73468
7211.57870,0.73037
7209.64996,0.72440
7207.72121,0.72163
7205.79247,0.72376
7203.86372,0.72944
7201.93498,0.73401
7200.00623,0.73293
7198.07749,0.72873
7196.14874,0.72674
7194.22000,0.72738
7192.29125,0.72677
7190.36251,0.72329
7188.43376,0.72173
7186.50501,0.72483
7184.57627,0.72643
7182.64752,0.72269
7180.71878,0.71911
7178.79003,0.72015
7176.86129,0.72327
7174.93254,0.72525
7173.00380,0.72468
7171.07505,0.72133
7169.14631,0.71742
7167.21756,0.71536
7165.28882,0.71533
7163.36007,0.71546
7161.43133,0.71322
7159.50258,0.71080
7157.57384,0.71149
7155.64509,0.71245
7153.71634,0.71158
7151.78760,0.71088
7149.85885,0.71143
7147.93011,0.71198
7146.00136,0.71105
7144.07262,0.70852
7142.14387,0.70415
7140.21513,0.69958
7138.28638,0.70007
7136.35764,0.70566
7134.42889,0.70884
7132.50015,0.70609
7130.57140,0.70130
7128.64266,0.69825
7126.71391,0.69730
7124.78516,0.69708
7122.85642,0.69617
7120.92767,0.69420
7118.99893,0.69193
7117.07018,0.69113
7115.14144,0.69244
7113.21269,0.69198
7111.28395,0.68725
7109.35520,0.68252
7107.42646,0.68032
7105.49771,0.67913
7103.56897,0.67910
7101.64022,0.67836
7099.71148,0.67443
7097.78273,0.66966
7095.85399,0.66671
7093.92524,0.66488
7091.99649,0.66452
7090.06775,0.66646
7088.13900,0.66667
7086.21026,0.66279
7084.28151,0.65907
7082.35277,0.65815
7080.42402,0.65726
7078.49528,0.65413
7076.56653,0.65201
7074.63779,0.65236
7072.70904,0.65111
7070.78030,0.64799
7068.85155,0.64495
7066.92281,0.64107
7064.99406,0.63637
7063.06532,0.63111
7061.13657,0.62705
7059.20782,0.62714
7057.27908,0.62958
7055.35033,0.63017
7053.42159,0.62745
7051.49284,0.62321
7049.56410,0.62074
7047.63535,0.62166
7045.70661,0.62404
7043.77786,0.62507
7041.84912,0.62527
7039.92037,0.62415
7037.99163,0.61954
7036.06288,0.61443
7034.13414,0.61248
7032.20539,0.61174
7030.27664,0.60945
7028.34790,0.60701
7026.41915,0.60639
7024.49041,0.60510
7022.56166,0.60146
7020.63292,0.59980
7018.70417,0.60119
7016.77543,0.60111
7014.84668,0.59990
7012.91794,0.59963
7010.98919,0.59841
7009.06045,0.59666
7007.13170,0.59617
7005.20296,0.59561
7003.27421,0.59353
7001.34547,0.59081
6999.41672,0.58901
6997.48797,0.58849
6995.55923,0.58826
6993.63048,0.58747
6991.70174,0.58568
6989.77299,0.58306
6987.84425,0.58143
6985.91550,0.58150
6983.98676,0.58155
6982.05801,0.58003
6980.12927,0.57619
6978.20052,0.57221
6976.27178,0.57196
6974.34303,0.57433
6972.41429,0.57471
6970.48554,0.57340
6968.55680,0.57340
6966.62805,0.57283
6964.69930,0.56980
6962.77056,0.56761
6960.84181,0.56839
6958.91307,0.56959
6956.98432,0.56944
6955.05558,0.56920
6953.12683,0.56941
6951.19809,0.56903
6949.26934,0.56802
6947.34060,0.56815
6945.41185,0.56958
6943.48311,0.57042
6941.55436,0.57070
6939.62562,0.57112
6937.69687,0.57012
6935.76812,0.56542
6933.83938,0.55870
6931.91063,0.55591
6929.98189,0.55747
6928.05314,0.55749
6926.12440,0.55543
6924.19565,0.55505
6922.26691,0.55609
6920.33816,0.55689
6918.40942,0.55671
6916.48067,0.55437
6914.55193,0.55130
6912.62318,0.55068
6910.69444,0.55109
6908.76569,0.55051
6906.83695,0.55090
6904.90820,0.55159
6902.97945,0.55151
6901.05071,0.55359
6899.12196,0.55650
6897.19322,0.55687
6895.26447,0.55597
6893.33573,0.55432
6891.40698,0.55204
6889.47824,0.55089
6887.54949,0.54960
6885.62075,0.54734
6883.69200,0.54723
6881.76326,0.55011
6879.83451,0.55210
6877.90577,0.55147
6875.97702,0.55102
6874.04828,0.55054
6872.11953,0.54751
6870.19078,0.54454
6868.26204,0.54451
6866.33329,0.54582
6864.40455,0.54590
6862.47580,0.54419
6860.54706,0.54320
6858.61831,0.54478
6856.68957,0.54652
6854.76082,0.54577
6852.83208,0.54317
6850.90333,0.54062
6848.97459,0.53971
6847.04584,0.54070
6845.11710,0.54126
6843.18835,0.54004
6841.25960,0.53838
6839.33086,0.53722
6837.40211,0.53664
6835.47337,0.53631
6833.54462,0.53579
6831.61588,0.53584
6829.68713,0.53646
6827.75839,0.53618
6825.82964,0.53572
6823.90090,0.53642
6821.97215,0.53671
6820.04341,0.53533
6818.11466,0.53433
6816.18592,0.53532
6814.25717,0.53559
6812.32843,0.53414
6810.39968,0.53423
6808.47093,0.53512
6806.54219,0.53364
6804.61344,0.53153
6802.68470,0.53122
6800.75595,0.53128
6798.82721,0.52941
6796.89846,0.52674
6794.96972,0.52629
6793.04097,0.52656
6791.11223,0.52400
6789.18348,0.51977
6787.25474,0.51778
6785.32599,0.51979
6783.39725,0.52228
6781.46850,0.52204
6779.53975,0.52172
6777.61101,0.52249
6775.68226,0.52182
6773.75352,0.52041
6771.82477,0.51953
6769.89603,0.51803
6767.96728,0.51719
6766.03854,0.51789
6764.10979,0.51728
6762.18105,0.51444
6760.25230,0.51180
6758.32356,0.51146
6756.39481,0.51282
6754.46607,0.51397
6752.53732,0.51378
6750.60858,0.51197
6748.67983,0.51053
6746.75108,0.51099
6744.82234,0.51111
6742.89359,0.51038
6740.96485,0.51123
6739.03610,0.51249
6737.10736,0.51172
6735.17861,0.51016
6733.24987,0.50923
6731.32112,0.50997
6729.39238,0.51303
6727.46363,0.51560
6725.53489,0.51530
6723.60614,0.51346
6721.67740,0.51213
6719.74865,0.51241
6717.81991,0.51413
6715.89116,0.51550
6713.96241,0.51467
6712.03367,0.51292
6710.10492,0.51241
6708.17618,0.51082
6706.24743,0.50760
6704.31869,0.50813
6702.38994,0.51238
6700.46120,0.51548
6698.53245,0.51663
6696.60371,0.51610
6694.67496,0.51487
6692.74622,0.51545
6690.81747,0.51721
6688.88873,0.51763
6686.95998,0.51638
6685.03123,0.51500
6683.10249,0.51454
6681.17374,0.51468
6679.24500,0.51461
6677.31625,0.51435
6675.38751,0.51471
6673.45876,0.51578
6671.53002,0.51611
6669.60127,0.51489
6667.67253,0.51403
6665.74378,0.51482
6663.81504,0.51545
6661.88629,0.51563
6659.95755,0.51737
6658.02880,0.51913
6656.10006,0.51894
6654.17131,0.51870
6652.24256,0.51907
6650.31382,0.51930
6648.38507,0.51912
6646.45633,0.51844
6644.52758,0.51825
6642.59884,0.51916
6640.67009,0.52091
6638.74135,0.52214
6636.81260,0.52155
6634.88386,0.52074
6632.95511,0.52117
6631.02637,0.52196
6629.09762,0.52266
6627.16888,0.52431
6625.24013,0.52636
6623.31139,0.52741
6621.38264,0.52807
6619.45389,0.52781
6617.52515,0.52547
6615.59640,0.52293
6613.66766,0.52302
6611.73891,0.52665
6609.81017,0.53035
6607.88142,0.53041
6605.95268,0.52858
6604.02393,0.52818
6602.09519,0.52961
6600.16644,0.53085
6598.23770,0.53092
6596.30895,0.53142
6594.38021,0.53274
6592.45146,0.53365
6590.52271,0.53418
6588.59397,0.53459
6586.66522,0.53429
6584.73648,0.53390
6582.80773,0.53421
6580.87899,0.53365
6578.95024,0.53212
6577.02150,0.53201
6575.09275,0.53374
6573.16401,0.53575
6571.23526,0.53663
6569.30652,0.53645
6567.37777,0.53612
6565.44903,0.53508
6563.52028,0.53255
6561.59154,0.52989
6559.66279,0.52915
6557.73404,0.53018
6555.80530,0.53066
6553.87655,0.53006
6551.94781,0.53072
6550.01906,0.53283
6548.09032,0.53286
6546.16157,0.52957
6544.23283,0.52771
6542.30408,0.53097
6540.37534,0.53528
6538.44659,0.53630
6536.51785,0.53566
6534.58910,0.53503
6532.66036,0.53354
6530.73161,0.53222
6528.80287,0.53309
6526.87412,0.53372
6524.94537,0.53139
6523.01663,0.52882
6521.08788,0.52938
6519.15914,0.53282
6517.23039,0.53609
6515.30165,0.53740
6513.37290,0.53750
6511.44416,0.53644
6509.51541,0.53426
6507.58667,0.53234
6505.65792,0.53139
6503.72918,0.53090
6501.80043,0.53163
6499.87169,0.53350
6497.94294,0.53315
6496.01419,0.53134
6494.08545,0.53162
6492.15670,0.53260
6490.22796,0.53249
6488.29921,0.53230
6486.37047,0.53181
6484.44172,0.53096
6482.51298,0.53101
6480.58423,0.53169
6478.65549,0.53212
6476.72674,0.53318
6474.79800,0.53517
6472.86925,0.53686
6470.94051,0.53766
6469.01176,0.53679
6467.08302,0.53497
6465.15427,0.53527
6463.22552,0.53672
6461.29678,0.53617
6459.36803,0.53450
6457.43929,0.53353
6455.51054,0.53357
6453.58180,0.53382
6451.65305,0.53344
6449.72431,0.53310
6447.79556,0.53338
6445.86682,0.53459
6443.93807,0.53747
6442.00933,0.54098
6440.08058,0.54226
6438.15184,0.54064
6436.22309,0.53882
6434.29434,0.53809
6432.36560,0.53708
6430.43685,0.53672
6428.50811,0.53857
6426.57936,0.54006
6424.65062,0.53979
6422.72187,0.54032
6420.79313,0.54157
6418.86438,0.54208
6416.93564,0.54275
6415.00689,0.54281
6413.07815,0.54077
6411.14940,0.53927
6409.22066,0.54061
6407.29191,0.54320
6405.36317,0.54486
6403.43442,0.54463
6401.50567,0.54338
6399.57693,0.54204
6397.64818,0.54038
6395.71944,0.53961
6393.79069,0.54012
6391.86195,0.53943
6389.93320,0.53804
6388.00446,0.53854
6386.07571,0.54047
6384.14697,0.54307
6382.21822,0.54519
6380.28948,0.54480
6378.36073,0.54309
6376.43199,0.54199
6374.50324,0.54213
6372.57450,0.54361
6370.64575,0.54480
6368.71700,0.54448
6366.78826,0.54332
6364.85951,0.54188
6362.93077,0.54005
6361.00202,0.53909
6359.07328,0.54022
6357.14453,0.54104
6355.21579,0.53962
6353.28704,0.53792
6351.35830,0.53775
6349.42955,0.53925
6347.50081,0.54211
6345.57206,0.54443
6343.64332,0.54456
6341.71457,0.54418
6339.78582,0.54404
6337.85708,0.54305
6335.92833,0.54214
6333.99959,0.54190
6332.07084,0.54189
6330.14210,0.54223
6328.21335,0.54293
6326.28461,0.54374
6324.35586,0.54452
6322.42712,0.54521
6320.49837,0.54587
6318.56963,0.54671
6316.64088,0.54639
6314.71214,0.54447
6312.78339,0.54365
6310.85465,0.54438
6308.92590,0.54486
6306.99715,0.54520
6305.06841,0.54601
6303.13966,0.54724
6301.21092,0.54796
6299.28217,0.54687
6297.35343,0.54512
6295.42468,0.54498
6293.49594,0.54646
6291.56719,0.54844
6289.63845,0.54959
6287.70970,0.54875
6285.78096,0.54696
6283.85221,0.54615
6281.92347,0.54678
6279.99472,0.54817
6278.06598,0.54953
6276.13723,0.55079
6274.20848,0.55237
6272.27974,0.55378
6270.35099,0.55417
6268.42225,0.55352
6266.49350,0.55186
6264.56476,0.55031
6262.63601,0.55104
6260.70727,0.55310
6258.77852,0.55413
6256.84978,0.55460
6254.92103,0.55550
6252.99229,0.55698
6251.06354,0.55891
6249.13480,0.56023
6247.20605,0.56089
6245.27730,0.56114
6243.34856,0.56051
6241.41981,0.56040
6239.49107,0.56150
6237.56232,0.56270
6235.63358,0.56452
6233.70483,0.56706
6231.77609,0.56865
6229.84734,0.56915
6227.91860,0.56959
6225.98985,0.56956
6224.06111,0.56948
6222.13236,0.57151
6220.20362,0.57495
6218.27487,0.57643
6216.34613,0.57531
6214.41738,0.57448
6212.48863,0.57610
6210.55989,0.57852
6208.63114,0.57907
6206.70240,0.57879
6204.77365,0.57969
6202.84491,0.58038
6200.91616,0.57993
6198.98742,0.57989
6197.05867,0.58046
6195.12993,0.58095
6193.20118,0.58204
6191.27244,0.58427
6189.34369,0.58677
6187.41495,0.58835
6185.48620,0.58890
6183.55746,0.58994
6181.62871,0.59225
6179.69996,0.59472
6177.77122,0.59618
6175.84247,0.59594
6173.91373,0.59533
6171.98498,0.59621
6170.05624,0.59698
6168.12749,0.59665
6166.19875,0.59667
6164.27000,0.59708
6162.34126,0.59759
6160.41251,0.59848
6158.48377,0.59965
6156.55502,0.60116
6154.62628,0.60251
6152.69753,0.60294
6150.76878,0.60318
6148.84004,0.60356
6146.91129,0.60331
6144.98255,0.60281
6143.05380,0.60286
6141.12506,0.60373
6139.19631,0.60602
6137.26757,0.60839
6135.33882,0.60909
6133.41008,0.60948
6131.48133,0.61039
6129.55259,0.61127
6127.62384,0.61200
6125.69510,0.61210
6123.76635,0.61165
6121.83761,0.61100
6119.90886,0.61050
6117.98011,0.61143
6116.05137,0.61366
6114.12262,0.61544
6112.19388,0.61652
6110.26513,0.61783
6108.33639,0.61889
6106.40764,0.61846
6104.47890,0.61700
6102.55015,0.61636
6100.62141,0.61656
6098.69266,0.61677
6096.76392,0.61782
6094.83517,0.61995
6092.90643,0.62256
6090.97768,0.62501
6089.04893,0.62590
6087.12019,0.62520
6085.19144,0.62455
6083.26270,0.62516
6081.33395,0.62684
6079.40521,0.62769
6077.47646,0.62697
6075.54772,0.62674
6073.61897,0.62786
6071.69023,0.62944
6069.76148,0.63190
6067.83274,0.63465
6065.90399,0.63518
6063.97525,0.63354
6062.04650,0.63229
6060.11776,0.63256
6058.18901,0.63349
6056.26026,0.63457
6054.33152,0.63584
6052.40277,0.63642
6050.47403,0.63626
6048.54528,0.63685
6046.61654,0.63827
6044.68779,0.63954
6042.75905,0.64028
6040.83030,0.64024
6038.90156,0.64054
6036.97281,0.64223
6035.04407,0.64375
6033.11532,0.64357
6031.18658,0.64262
6029.25783,0.64305
6027.32909,0.64491
6025.40034,0.64631
6023.47159,0.64648
6021.54285,0.64580
6019.61410,0.64512
6017.68536,0.64466
6015.75661,0.64417
6013.82787,0.64427
6011.89912,0.64488
6009.97038,0.64529
6008.04163,0.64601
6006.11289,0.64747
6004.18414,0.64862
6002.25540,0.64896
6000.32665,0.64961
5998.39791,0.65092
5996.46916,0.65173
5994.54041,0.65143
5992.61167,0.65102
5990.68292,0.65124
5988.75418,0.65159
5986.82543,0.65222
5984.89669,0.65326
5982.96794,0.65403
5981.03920,0.65408
5979.11045,0.65371
5977.18171,0.65347
5975.25296,0.65396
5973.32422,0.65545
5971.39547,0.65729
5969.46673,0.65811
5967.53798,0.65741
5965.60924,0.65629
5963.68049,0.65562
5961.75174,0.65537
5959.82300,0.65507
5957.89425,0.65388
5955.96551,0.65206
5954.03676,0.65140
5952.10802,0.65261
5950.17927,0.65403
5948.25053,0.65404
5946.32178,0.65315
5944.39304,0.65203
5942.46429,0.65080
5940.53555,0.64990
5938.60680,0.64921
5936.67806,0.64862
5934.74931,0.64801
5932.82057,0.64707
5930.89182,0.64605
5928.96307,0.64601
5927.03433,0.64761
5925.10558,0.64980
5923.17684,0.65111
5921.24809,0.65151
5919.31935,0.65101
5917.39060,0.64940
5915.46186,0.64749
5913.53311,0.64650
5911.60437,0.64705
5909.67562,0.64852
5907.74688,0.64893
5905.81813,0.64763
5903.88939,0.64613
5901.96064,0.64488
5900.03189,0.64306
5898.10315,0.64132
5896.17440,0.64108
5894.24566,0.64200
5892.31691,0.64201
5890.38817,0.64048
5888.45942,0.63888
5886.53068,0.63722
5884.60193,0.63491
5882.67319,0.63337
5880.74444,0.63302
5878.81570,0.63242
5876.88695,0.63107
5874.95821,0.63006
5873.02946,0.63058
5871.10072,0.63192
5869.17197,0.63204
5867.24322,0.63055
5865.31448,0.62914
5863.38573,0.62903
5861.45699,0.62983
5859.52824,0.63059
5857.59950,0.63041
5855.67075,0.62960
5853.74201,0.62933
5851.81326,0.62990
5849.88452,0.63064
5847.95577,0.63091
5846.02703,0.63096
5844.09828,0.63124
5842.16954,0.63125
5840.24079,0.63025
5838.31205,0.62885
5836.38330,0.62826
5834.45455,0.62820
5832.52581,0.62792
5830.59706,0.62756
5828.66832,0.62798
5826.73957,0.62931
5824.81083,0.62973
5822.88208,0.62851
5820.95334,0.62744
5819.02459,0.62731
5817.09585,0.62685
5815.16710,0.62592
5813.23836,0.62548
5811.30961,0.62549
5809.38087,0.62578
5807.45212,0.62626
5805.52337,0.62662
5803.59463,0.62656
5801.66588,0.62561
5799.73714,0.62474
5797.80839,0.62502
5795.87965,0.62542
5793.95090,0.62501
5792.02216,0.62416
5790.09341,0.62341
5788.16467,0.62352
5786.23592,0.62451
5784.30718,0.62502
5782.37843,0.62437
5780.44969,0.62344
5778.52094,0.62275
5776.59220,0.62179
5774.66345,0.62063
5772.73470,0.62016
5770.80596,0.62041
5768.87721,0.62074
5766.94847,0.62101
5765.01972,0.62127
5763.09098,0.62129
5761.16223,0.62107
5759.23349,0.62096
5757.30474,0.62114
5755.37600,0.62159
5753.44725,0.62200
5751.51851,0.62203
5749.58976,0.62189
5747.66102,0.62153
5745.73227,0.62044
5743.80352,0.61872
5741.87478,0.61762
5739.94603,0.61798
5738.01729,0.61869
5736.08854,0.61884
5734.15980,0.61912
5732.23105,0.61928
5730.30231,0.61859
5728.37356,0.61826
5726.44482,0.61860
5724.51607,0.61833
5722.58733,0.61810
5720.65858,0.61843
5718.72984,0.61823
5716.80109,0.61758
5714.87235,0.61668
5712.94360,0.61548
5711.01485,0.61512
5709.08611,0.61574
5707.15736,0.61652
5705.22862,0.61720
5703.29987,0.61696
5701.37113,0.61603
5699.44238,0.61577
5697.51364,0.61572
5695.58489,0.61523
5693.65615,0.61515
5691.72740,0.61553
5689.79866,0.61548
5687.86991,0.61448
5685.94117,0.61294
5684.01242,0.61182
5682.08368,0.61157
5680.15493,0.61217
5678.22618,0.61291
5676.29744,0.61258
5674.36869,0.61146
5672.43995,0.61053
5670.51120,0.60975
5668.58246,0.60923
5666.65371,0.60941
5664.72497,0.60959
5662.79622,0.60943
5660.86748,0.60962
5658.93873,0.60962
5657.00999,0.60870
5655.08124,0.60778
5653.15250,0.60762
5651.22375,0.60808
5649.29500,0.60882
5647.36626,0.60976
5645.43751,0.61057
5643.50877,0.61030
5641.58002,0.60889
5639.65128,0.60749
5637.72253,0.60717
5635.79379,0.60803
5633.86504,0.60917
5631.93630,0.60936
5630.00755,0.60879
5628.07881,0.60834
5626.15006,0.60775
5624.22132,0.60764
5622.29257,0.60878
5620.36383,0.60971
5618.43508,0.60939
5616.50633,0.60901
5614.57759,0.60936
5612.64884,0.60905
5610.72010,0.60765
5608.79135,0.60700
5606.86261,0.60732
5604.93386,0.60753
5603.00512,0.60771
5601.07637,0.60812
5599.14763,0.60855
5597.21888,0.60912
5595.29014,0.60983
5593.36139,0.61004
5591.43265,0.60962
5589.50390,0.60902
5587.57516,0.60857
5585.64641,0.60889
5583.71766,0.61014
5581.78892,0.61114
5579.86017,0.61103
5577.93143,0.61058
5576.00268,0.61058
5574.07394,0.61076
5572.14519,0.61102
5570.21645,0.61136
5568.28770,0.61136
5566.35896,0.61107
5564.43021,0.61094
5562.50147,0.61099
5560.57272,0.61099
5558.64398,0.61090
5556.71523,0.61110
5554.78648,0.61175
5552.85774,0.61202
5550.92899,0.61156
5549.00025,0.61101
5547.07150,0.61051
5545.14276,0.61043
5543.21401,0.61152
5541.28527,0.61313
5539.35652,0.61432
5537.42778,0.61533
5535.49903,0.61545
5533.57029,0.61387
5531.64154,0.61212
5529.71280,0.61197
5527.78405,0.61319
5525.85531,0.61436
5523.92656,0.61456
5521.99781,0.61390
5520.06907,0.61303
5518.14032,0.61232
5516.21158,0.61150
5514.28283,0.61077
5512.35409,0.61090
5510.42534,0.61151
5508.49660,0.61210
5506.56785,0.61259
5504.63911,0.61228
5502.71036,0.61128
5500.78162,0.61084
5498.85287,0.61128
5496.92413,0.61201
5494.99538,0.61267
5493.06664,0.61284
5491.13789,0.61221
5489.20914,0.61149
5487.28040,0.61153
5485.35165,0.61243
5483.42291,0.61310
5481.49416,0.61297
5479.56542,0.61318
5477.63667,0.61366
5475.70793,0.61380
5473.77918,0.61479
5471.85044,0.61638
5469.92169,0.61683
5467.99295,0.61588
5466.06420,0.61486
5464.13546,0.61469
5462.20671,0.61481
5460.27796,0.61506
5458.34922,0.61617
5456.42047,0.61760
5454.49173,0.61794
5452.56298,0.61727
5450.63424,0.61692
5448.70549,0.61738
5446.77675,0.61830
5444.84800,0.61974
5442.91926,0.62137
5440.99051,0.62170
5439.06177,0.62090
5437.13302,0.62104
5435.20428,0.62234
5433.27553,0.62323
5431.34679,0.62342
5429.41804,0.62353
5427.48929,0.62357
5425.56055,0.62373
5423.63180,0.62415
5421.70306,0.62439
5419.77431,0.62448
5417.84557,0.62484
5415.91682,0.62555
5413.98808,0.62640
5412.05933,0.62700
5410.13059,0.62729
5408.20184,0.62774
5406.27310,0.62876
5404.34435,0.62975
5402.41561,0.62952
5400.48686,0.62863
5398.55811,0.62903
5396.62937,0.63097
5394.70062,0.63292
5392.77188,0.63336
5390.84313,0.63267
5388.91439,0.63241
5386.98564,0.63275
5385.05690,0.63276
5383.12815,0.63229
5381.19941,0.63200
5379.27066,0.63213
5377.34192,0.63209
5375.41317,0.63169
5373.48443,0.63157
5371.55568,0.63173
5369.62694,0.63190
5367.69819,0.63236
5365.76944,0.63304
5363.84070,0.63334
5361.91195,0.63299
5359.98321,0.63232
5358.05446,0.63217
5356.12572,0.63234
5354.19697,0.63187
5352.26823,0.63088
5350.33948,0.63022
5348.41074,0.63000
5346.48199,0.62988
5344.55325,0.62937
5342.62450,0.62822
5340.69576,0.62704
5338.76701,0.62610
5336.83827,0.62493
5334.90952,0.62381
5332.98077,0.62344
5331.05203,0.62345
5329.12328,0.62280
5327.19454,0.62135
5325.26579,0.61996
5323.33705,0.61892
5321.40830,0.61764
5319.47956,0.61591
5317.55081,0.61395
5315.62207,0.61169
5313.69332,0.60946
5311.76458,0.60798
5309.83583,0.60691
5307.90709,0.60561
5305.97834,0.60408
5304.04959,0.60241
5302.12085,0.60056
5300.19210,0.59867
5298.26336,0.59656
5296.33461,0.59370
5294.40587,0.59053
5292.47712,0.58778
5290.54838,0.58512
5288.61963,0.58221
5286.69089,0.57889
5284.76214,0.57510
5282.83340,0.57183
5280.90465,0.56943
5278.97591,0.56676
5277.04716,0.56376
5275.11842,0.56089
5273.18967,0.55787
5271.26092,0.55475
5269.33218,0.55147
5267.40343,0.54779
5265.47469,0.54366
5263.54594,0.53941
5261.61720,0.53599
5259.68845,0.53310
5257.75971,0.52987
5255.83096,0.52640
5253.90222,0.52271
5251.97347,0.51915
5250.04473,0.51637
5248.11598,0.51389
5246.18724,0.51076
5244.25849,0.50706
5242.32975,0.50346
5240.40100,0.50042
5238.47225,0.49813
5236.54351,0.49615
5234.61476,0.49382
5232.68602,0.49112
5230.75727,0.48850
5228.82853,0.48636
5226.89978,0.48444
5224.97104,0.48247
5223.04229,0.48057
5221.11355,0.47857
5219.18480,0.47647
5217.25606,0.47436
5215.32731,0.47230
5213.39857,0.47072
5211.46982,0.46973
5209.54107,0.46909
5207.61233,0.46861
5205.68358,0.46786
5203.75484,0.46656
5201.82609,0.46522
5199.89735,0.46450
5197.96860,0.46425
5196.03986,0.46363
5194.11111,0.46223
5192.18237,0.46059
5190.25362,0.45971
5188.32488,0.45985
5186.39613,0.46060
5184.46739,0.46132
5182.53864,0.46161
5180.60990,0.46166
5178.68115,0.46120
5176.75240,0.45984
5174.82366,0.45864
5172.89491,0.45875
5170.96617,0.45968
5169.03742,0.46055
5167.10868,0.46121
5165.17993,0.46143
5163.25119,0.46137
5161.32244,0.46175
5159.39370,0.46237
5157.46495,0.46266
5155.53621,0.46315
5153.60746,0.46456
5151.67872,0.46606
5149.74997,0.46663
5147.82123,0.46723
5145.89248,0.46857
5143.96373,0.46946
5142.03499,0.46963
5140.10624,0.46988
5138.17750,0.47017
5136.24875,0.47062
5134.32001,0.47162
5132.39126,0.47289
5130.46252,0.47396
5128.53377,0.47469
5126.60503,0.47551
5124.67628,0.47677
5122.74754,0.47844
5120.81879,0.48034
5118.89005,0.48184
5116.96130,0.48255
5115.03255,0.48284
5113.10381,0.48326
5111.17506,0.48438
5109.24632,0.48595
5107.31757,0.48684
5105.38883,0.48717
5103.46008,0.48771
5101.53134,0.48840
5099.60259,0.48919
5097.67385,0.49029
5095.74510,0.49138
5093.81636,0.49218
5091.88761,0.49323
5089.95887,0.49474
5088.03012,0.49612
5086.10138,0.49702
5084.17263,0.49747
5082.24388,0.49783
5080.31514,0.49849
5078.38639,0.49950
5076.45765,0.50065
5074.52890,0.50169
5072.60016,0.50253
5070.67141,0.50350
5068.74267,0.50466
5066.81392,0.50551
5064.88518,0.50633
5062.95643,0.50751
5061.02769,0.50868
5059.09894,0.50982
5057.17020,0.51093
5055.24145,0.51182
5053.31270,0.51234
5051.38396,0.51255
5049.45521,0.51303
5047.52647,0.51448
5045.59772,0.51658
5043.66898,0.51809
5041.74023,0.51863
5039.81149,0.51870
5037.88274,0.51889
5035.95400,0.51966
5034.02525,0.52078
5032.09651,0.52187
5030.16776,0.52277
5028.23902,0.52340
5026.31027,0.52388
5024.38153,0.52426
5022.45278,0.52486
5020.52403,0.52602
5018.59529,0.52721
5016.66654,0.52777
5014.73780,0.52799
5012.80905,0.52850
5010.88031,0.52914
5008.95156,0.52939
5007.02282,0.52923
5005.09407,0.52912
5003.16533,0.52945
5001.23658,0.53008
4999.30784,0.53063
4997.37909,0.53105
4995.45035,0.53129
4993.52160,0.53129
4991.59286,0.53141
4989.66411,0.53170
4987.73536,0.53180
4985.80662,0.53211
4983.87787,0.53265
4981.94913,0.53242
4980.02038,0.53160
4978.09164,0.53139
4976.16289,0.53174
4974.23415,0.53186
4972.30540,0.53154
4970.37666,0.53104
4968.44791,0.53079
4966.51917,0.53085
4964.59042,0.53049
4962.66168,0.52929
4960.73293,0.52813
4958.80418,0.52764
4956.87544,0.52722
4954.94669,0.52646
4953.01795,0.52537
4951.08920,0.52403
4949.16046,0.52285
4947.23171,0.52204
4945.30297,0.52115
4943.37422,0.51966
4941.44548,0.51795
4939.51673,0.51655
4937.58799,0.51541
4935.65924,0.51416
4933.73050,0.51262
4931.80175,0.51121
4929.87301,0.51015
4927.94426,0.50877
4926.01551,0.50685
4924.08677,0.50505
4922.15802,0.50344
4920.22928,0.50162
4918.30053,0.49968
4916.37179,0.49742
4914.44304,0.49491
4912.51430,0.49284
4910.58555,0.49123
4908.65681,0.48966
4906.72806,0.48788
4904.79932,0.48555
4902.87057,0.48288
4900.94183,0.48035
4899.01308,0.47799
4897.08434,0.47579
4895.15559,0.47353
4893.22684,0.47097
4891.29810,0.46846
4889.36935,0.46630
4887.44061,0.46413
4885.51186,0.46177
4883.58312,0.45972
4881.65437,0.45808
4879.72563,0.45637
4877.79688,0.45443
4875.86814,0.45214
4873.93939,0.44975
4872.01065,0.44810
4870.08190,0.44688
4868.15316,0.44520
4866.22441,0.44338
4864.29566,0.44172
4862.36692,0.43975
4860.43817,0.43790
4858.50943,0.43660
4856.58068,0.43541
4854.65194,0.43408
4852.72319,0.43262
4850.79445,0.43087
4848.86570,0.42886
4846.93696,0.42708
4845.00821,0.42577
4843.07947,0.42454
4841.15072,0.42316
4839.22198,0.42171
4837.29323,0.42015
4835.36449,0.41863
4833.43574,0.41714
4831.50699,0.41559
4829.57825,0.41417
4827.64950,0.41293
4825.72076,0.41155
4823.79201,0.40990
4821.86327,0.40838
4819.93452,0.40750
4818.00578,0.40689
4816.07703,0.40571
4814.14829,0.40410
4812.21954,0.40281
4810.29080,0.40196
4808.36205,0.40113
4806.43331,0.40018
4804.50456,0.39937
4802.57582,0.39875
4800.64707,0.39796
4798.71832,0.39718
4796.78958,0.39674
4794.86083,0.39622
4792.93209,0.39536
4791.00334,0.39429
4789.07460,0.39313
4787.14585,0.39242
4785.21711,0.39213
4783.28836,0.39155
4781.35962,0.39080
4779.43087,0.39031
4777.50213,0.39001
4775.57338,0.38968
4773.64464,0.38925
4771.71589,0.38876
4769.78714,0.38819
4767.85840,0.38777
4765.92965,0.38761
4764.00091,0.38733
4762.07216,0.38692
4760.14342,0.38649
4758.21467,0.38597
4756.28593,0.38581
4754.35718,0.38640
4752.42844,0.38703
4750.49969,0.38707
4748.57095,0.38708
4746.64220,0.38748
4744.71346,0.38795
4742.78471,0.38867
4740.85597,0.38974
4738.92722,0.39054
4736.99847,0.39077
4735.06973,0.39110
4733.14098,0.39208
4731.21224,0.39303
4729.28349,0.39334
4727.35475,0.39340
4725.42600,0.39371
4723.49726,0.39434
4721.56851,0.39517
4719.63977,0.39600
4717.71102,0.39663
4715.78228,0.39711
4713.85353,0.39779
4711.92479,0.39867
4709.99604,0.39960
4708.06729,0.40066
4706.13855,0.40174
4704.20980,0.40264
4702.28106,0.40339
4700.35231,0.40409
4698.42357,0.40488
4696.49482,0.40582
4694.56608,0.40674
4692.63733,0.40746
4690.70859,0.40828
4688.77984,0.40960
4686.85110,0.41084
4684.92235,0.41142
4682.99361,0.41223
4681.06486,0.41358
4679.13612,0.41496
4677.20737,0.41654
4675.27862,0.41803
4673.34988,0.41879
4671.42113,0.41945
4669.49239,0.42061
4667.56364,0.42169
4665.63490,0.42248
4663.70615,0.42317
4661.77741,0.42361
4659.84866,0.42412
4657.91992,0.42488
4655.99117,0.42543
4654.06243,0.42590
4652.13368,0.42679
4650.20494,0.42784
4648.27619,0.42869
4646.34745,0.42933
4644.41870,0.42957
4642.48995,0.42972
4640.56121,0.43065
4638.63246,0.43236
4636.70372,0.43376
4634.77497,0.43434
4632.84623,0.43481
4630.91748,0.43574
4628.98874,0.43690
4627.05999,0.43786
4625.13125,0.43886
4623.20250,0.43995
4621.27376,0.44068
4619.34501,0.44110
4617.41627,0.44156
4615.48752,0.44223
4613.55877,0.44301
4611.63003,0.44377
4609.70128,0.44471
4607.77254,0.44596
4605.84379,0.44719
4603.91505,0.44794
4601.98630,0.44842
4600.05756,0.44929
4598.12881,0.45033
4596.20007,0.45104
4594.27132,0.45172
4592.34258,0.45275
4590.41383,0.45382
4588.48509,0.45454
4586.55634,0.45513
4584.62760,0.45587
4582.69885,0.45667
4580.77010,0.45753
4578.84136,0.45857
4576.91261,0.45958
4574.98387,0.46035
4573.05512,0.46099
4571.12638,0.46178
4569.19763,0.46267
4567.26889,0.46334
4565.34014,0.46393
4563.41140,0.46494
4561.48265,0.46626
4559.55391,0.46750
4557.62516,0.46855
4555.69642,0.46925
4553.76767,0.46978
4551.83893,0.47066
4549.91018,0.47168
4547.98143,0.47230
4546.05269,0.47258
4544.12394,0.47284
4542.19520,0.47328
4540.26645,0.47390
4538.33771,0.47468
4536.40896,0.47559
4534.48022,0.47637
4532.55147,0.47696
4530.62273,0.47761
4528.69398,0.47822
4526.76524,0.47844
4524.83649,0.47860
4522.90775,0.47937
4520.97900,0.48045
4519.05025,0.48126
4517.12151,0.48180
4515.19276,0.48214
4513.26402,0.48233
4511.33527,0.48240
4509.40653,0.48241
4507.47778,0.48267
4505.54904,0.48327
4503.62029,0.48376
4501.69155,0.48388
4499.76280,0.48383
4497.83406,0.48397
4495.90531,0.48433
4493.97657,0.48459
4492.04782,0.48457
4490.11908,0.48443
4488.19033,0.48413
4486.26158,0.48395
4484.33284,0.48430
4482.40409,0.48493
4480.47535,0.48531
4478.54660,0.48530
4476.61786,0.48489
4474.68911,0.48422
4472.76037,0.48367
4470.83162,0.48328
4468.90288,0.48267
4466.97413,0.48168
4465.04539,0.48052
4463.11664,0.47950
4461.18790,0.47845
4459.25915,0.47708
4457.33041,0.47563
4455.40166,0.47430
4453.47291,0.47284
4451.54417,0.47106
4449.61542,0.46896
4447.68668,0.46666
4445.75793,0.46410
4443.82919,0.46112
4441.90044,0.45814
4439.97170,0.45535
4438.04295,0.45236
4436.11421,0.44916
4434.18546,0.44599
4432.25672,0.44284
4430.32797,0.43949
4428.39923,0.43594
4426.47048,0.43272
4424.54173,0.42974
4422.61299,0.42654
4420.68424,0.42342
4418.75550,0.42039
4416.82675,0.41722
4414.89801,0.41422
4412.96926,0.41166
4411.04052,0.40937
4409.11177,0.40708
4407.18303,0.40491
4405.25428,0.40316
4403.32554,0.40167
4401.39679,0.40018
4399.46805,0.39905
4397.53930,0.39880
4395.61056,0.39897
4393.68181,0.39886
4391.75306,0.39882
4389.82432,0.39928
4387.89557,0.39990
4385.96683,0.40081
4384.03808,0.40212
4382.10934,0.40337
4380.18059,0.40455
4378.25185,0.40586
4376.32310,0.40719
4374.39436,0.40842
4372.46561,0.40963
4370.53687,0.41094
4368.60812,0.41198
4366.67938,0.41249
4364.75063,0.41270
4362.82189,0.41247
4360.89314,0.41167
4358.96439,0.41078
4357.03565,0.41009
4355.10690,0.40942
4353.17816,0.40878
4351.24941,0.40807
4349.32067,0.40720
4347.39192,0.40642
4345.46318,0.40576
4343.53443,0.40482
4341.60569,0.40385
4339.67694,0.40306
4337.74820,0.40213
4335.81945,0.40096
4333.89071,0.39951
4331.96196,0.39779
4330.03321,0.39618
4328.10447,0.39470
4326.17572,0.39323
4324.24698,0.39189
4322.31823,0.39061
4320.38949,0.38940
4318.46074,0.38842
4316.53200,0.38756
4314.60325,0.38650
4312.67451,0.38515
4310.74576,0.38379
4308.81702,0.38261
4306.88827,0.38144
4304.95953,0.38039
4303.03078,0.37971
4301.10204,0.37904
4299.17329,0.37804
4297.24454,0.37707
4295.31580,0.37617
4293.38705,0.37507
4291.45831,0.37386
4289.52956,0.37251
4287.60082,0.37118
4285.67207,0.37040
4283.74333,0.37006
4281.81458,0.36966
4279.88584,0.36908
4277.95709,0.36848
4276.02835,0.36807
4274.09960,0.36783
4272.17086,0.36761
4270.24211,0.36739
4268.31336,0.36715
4266.38462,0.36683
4264.45587,0.36664
4262.52713,0.36670
4260.59838,0.36678
4258.66964,0.36674
4256.74089,0.36666
4254.81215,0.36668
4252.88340,0.36684
4250.95466,0.36691
4249.02591,0.36682
4247.09717,0.36657
4245.16842,0.36628
4243.23968,0.36617
4241.31093,0.36616
4239.38219,0.36623
4237.45344,0.36686
4235.52469,0.36807
4233.59595,0.36933
4231.66720,0.37037
4229.73846,0.37108
4227.80971,0.37140
4225.88097,0.37159
4223.95222,0.37185
4222.02348,0.37205
4220.09473,0.37208
4218.16599,0.37214
4216.23724,0.37228
4214.30850,0.37231
4212.37975,0.37235
4210.45101,0.37262
4208.52226,0.37321
4206.59352,0.37411
4204.66477,0.37506
4202.73602,0.37590
4200.80728,0.37671
4198.87853,0.37751
4196.94979,0.37813
4195.02104,0.37847
4193.09230,0.37882
4191.16355,0.37929
4189.23481,0.37956
4187.30606,0.37943
4185.37732,0.37912
4183.44857,0.37885
4181.51983,0.37870
4179.59108,0.37864
4177.66234,0.37866
4175.73359,0.37872
4173.80484,0.37879
4171.87610,0.37894
4169.94735,0.37934
4168.01861,0.38009
4166.08986,0.38097
4164.16112,0.38139
4162.23237,0.38116
4160.30363,0.38088
4158.37488,0.38061
4156.44614,0.37989
4154.51739,0.37901
4152.58865,0.37838
4150.65990,0.37755
4148.73116,0.37641
4146.80241,0.37536
4144.87367,0.37440
4142.94492,0.37349
4141.01617,0.37282
4139.08743,0.37227
4137.15868,0.37172
4135.22994,0.37129
4133.30119,0.37089
4131.37245,0.37024
4129.44370,0.36916
4127.51496,0.36790
4125.58621,0.36686
4123.65747,0.36593
4121.72872,0.36480
4119.79998,0.36329
4117.87123,0.36133
4115.94249,0.35917
4114.01374,0.35739
4112.08500,0.35605
4110.15625,0.35465
4108.22750,0.35295
4106.29876,0.35120
4104.37001,0.34943
4102.44127,0.34744
4100.51252,0.34525
4098.58378,0.34282
4096.65503,0.34015
4094.72629,0.33777
4092.79754,0.33591
4090.86880,0.33399
4088.94005,0.33166
4087.01131,0.32933
4085.08256,0.32729
4083.15382,0.32521
4081.22507,0.32283
4079.29632,0.32039
4077.36758,0.31813
4075.43883,0.31599
4073.51009,0.31385
4071.58134,0.31196
4069.65260,0.31031
4067.72385,0.30834
4065.79511,0.30604
4063.86636,0.30379
4061.93762,0.30129
4060.00887,0.29851
4058.08013,0.29616
4056.15138,0.29424
4054.22264,0.29219
4052.29389,0.28982
4050.36515,0.28737
4048.43640,0.28504
4046.50765,0.28274
4044.57891,0.28037
4042.65016,0.27827
4040.72142,0.27669
4038.79267,0.27538
4036.86393,0.27420
4034.93518,0.27302
4033.00644,0.27187
4031.07769,0.27105
4029.14895,0.27046
4027.22020,0.26989
4025.29146,0.26946
4023.36271,0.26920
4021.43397,0.26874
4019.50522,0.26805
4017.57648,0.26772
4015.64773,0.26797
4013.71898,0.26846
4011.79024,0.26905
4009.86149,0.26948
4007.93275,0.26963
4006.00400,0.26987
4004.07526,0.27034
4002.14651,0.27100
4000.21777,0.27196
3998.28902,0.27311
3996.36028,0.27416
3994.43153,0.27510
3992.50279,0.27600
3990.57404,0.27692
3988.64530,0.27782
3986.71655,0.27848
3984.78780,0.27888
3982.85906,0.27940
3980.93031,0.28007
3979.00157,0.28045
3977.07282,0.28058
3975.14408,0.28083
3973.21533,0.28137
3971.28659,0.28191
3969.35784,0.28216
3967.42910,0.28247
3965.50035,0.28324
3963.57161,0.28432
3961.64286,0.28526
3959.71412,0.28592
3957.78537,0.28641
3955.85663,0.28674
3953.92788,0.28711
3951.99913,0.28779
3950.07039,0.28872
3948.14164,0.28963
3946.21290,0.29025
3944.28415,0.29075
3942.35541,0.29163
3940.42666,0.29277
3938.49792,0.29374
3936.56917,0.29478
3934.64043,0.29614
3932.71168,0.29754
3930.78294,0.29878
3928.85419,0.29981
3926.92545,0.30087
3924.99670,0.30224
3923.06795,0.30361
3921.13921,0.30468
3919.21046,0.30584
3917.28172,0.30693
3915.35297,0.30751
3913.42423,0.30783
3911.49548,0.30822
3909.56674,0.30892
3907.63799,0.31018
3905.70925,0.31193
3903.78050,0.31361
3901.85176,0.31475
3899.92301,0.31533
3897.99427,0.31544
3896.06552,0.31556
3894.13678,0.31615
3892.20803,0.31706
3890.27928,0.31791
3888.35054,0.31872
3886.42179,0.31973
3884.49305,0.32074
3882.56430,0.32160
3880.63556,0.32225
3878.70681,0.32249
3876.77807,0.32283
3874.84932,0.32365
3872.92058,0.32456
3870.99183,0.32549
3869.06309,0.32675
3867.13434,0.32827
3865.20560,0.33033
3863.27685,0.33234
3861.34811,0.33328
3859.41936,0.33396
3857.49061,0.33509
3855.56187,0.33645
3853.63312,0.33819
3851.70438,0.33975
3849.77563,0.34031
3847.84689,0.34076
3845.91814,0.34166
3843.98940,0.34279
3842.06065,0.34399
3840.13191,0.34537
3838.20316,0.34668
3836.27442,0.34716
3834.34567,0.34684
3832.41693,0.34650
3830.48818,0.34635
3828.55943,0.34619
3826.63069,0.34626
3824.70194,0.34685
3822.77320,0.34764
3820.84445,0.34809
3818.91571,0.34798
3816.98696,0.34726
3815.05822,0.34577
3813.12947,0.34448
3811.20073,0.34411
3809.27198,0.34424
3807.34324,0.34447
3805.41449,0.34474
3803.48575,0.34523
3801.55700,0.34563
3799.62826,0.34520
3797.69951,0.34454
3795.77076,0.34413
3793.84202,0.34379
3791.91327,0.34354
3789.98453,0.34328
3788.05578,0.34295
3786.12704,0.34266
3784.19829,0.34254
3782.26955,0.34253
3780.34080,0.34233
3778.41206,0.34168
3776.48331,0.34074
3774.55457,0.34004
3772.62582,0.33993
3770.69708,0.34019
3768.76833,0.34020
3766.83959,0.33979
3764.91084,0.33899
3762.98209,0.33799
3761.05335,0.33737
3759.12460,0.33695
3757.19586,0.33626
3755.26711,0.33559
3753.33837,0.33519
3751.40962,0.33467
3749.48088,0.33363
3747.55213,0.33269
3745.62339,0.33160
3743.69464,0.33014
3741.76590,0.32899
3739.83715,0.32798
3737.90841,0.32700
3735.97966,0.32617
3734.05091,0.32476
3732.12217,0.32224
3730.19342,0.31980
3728.26468,0.31798
3726.33593,0.31629
3724.40719,0.31443
3722.47844,0.31225
3720.54970,0.30977
3718.62095,0.30730
3716.69221,0.30508
3714.76346,0.30306
3712.83472,0.30086
3710.90597,0.29775
3708.97723,0.29391
3707.04848,0.29035
3705.11974,0.28729
3703.19099,0.28423
3701.26224,0.28052
3699.33350,0.27642
3697.40475,0.27234
3695.47601,0.26841
3693.54726,0.26501
3691.61852,0.26161
3689.68977,0.25675
3687.76103,0.25076
3685.83228,0.24570
3683.90354,0.24135
3681.97479,0.23678
3680.04605,0.23196
3678.11730,0.22706
3676.18856,0.22104
3674.25981,0.21427
3672.33107,0.20888
3670.40232,0.20264
3668.47357,0.19494
3666.54483,0.18871
3664.61608,0.18337
3662.68734,0.17772
3660.75859,0.17200
3658.82985,0.16661
3656.90110,0.16085
3654.97236,0.15494
3653.04361,0.15038
3651.11487,0.14604
3649.18612,0.13983
3647.25738,0.13316
3645.32863,0.12811
3643.39989,0.12378
3641.47114,0.11946
3639.54239,0.11541
3637.61365,0.11175
3635.68490,0.10805
3633.75616,0.10417
3631.82741,0.10065
3629.89867,0.09716
3627.96992,0.09299
3626.04118,0.08955
3624.11243,0.08711
3622.18369,0.08501
3620.25494,0.08265
3618.32620,0.07959
3616.39745,0.07665
3614.46871,0.07426
3612.53996,0.07219
3610.61122,0.07008
3608.68247,0.06739
3606.75372,0.06461
3604.82498,0.06265
3602.89623,0.06118
3600.96749,0.05966
3599.03874,0.05801
3597.11000,0.05625
3595.18125,0.05456
3593.25251,0.05313
3591.32376,0.05194
3589.39502,0.05072
3587.46627,0.04925
3585.53753,0.04775
3583.60878,0.04636
3581.68004,0.04504
3579.75129,0.04383
3577.82254,0.04286
3575.89380,0.04213
3573.96505,0.04124
3572.03631,0.04022
3570.10756,0.03963
3568.17882,0.03957
3566.25007,0.03929
3564.32133,0.03838
3562.39258,0.03727
3560.46384,0.03626
3558.53509,0.03542
3556.60635,0.03474
3554.67760,0.03425
3552.74886,0.03376
3550.82011,0.03311
3548.89137,0.03235
3546.96262,0.03170
3545.03387,0.03146
3543.10513,0.03151
3541.17638,0.03140
3539.24764,0.03095
3537.31889,0.03029
3535.39015,0.02961
3533.46140,0.02900
3531.53266,0.02850
3529.60391,0.02808
3527.67517,0.02761
3525.74642,0.02701
3523.81768,0.02643
3521.88893,0.02613
3519.96019,0.02640
3518.03144,0.02694
3516.10270,0.02694
3514.17395,0.02632
3512.24520,0.02564
3510.31646,0.02532
3508.38771,0.02531
3506.45897,0.02526
3504.53022,0.02491
3502.60148,0.02440
3500.67273,0.02405
3498.74399,0.02384
3496.81524,0.02354
3494.88650,0.02337
3492.95775,0.02359
3491.02901,0.02402
3489.10026,0.02435
3487.17152,0.02453
3485.24277,0.02470
3483.31402,0.02495
3481.38528,0.02501
3479.45653,0.02486
3477.52779,0.02490
3475.59904,0.02505
3473.67030,0.02490
3471.74155,0.02467
3469.81281,0.02462
3467.88406,0.02479
3465.95532,0.02502
3464.02657,0.02494
3462.09783,0.02461
3460.16908,0.02442
3458.24034,0.02438
3456.31159,0.02429
3454.38285,0.02428
3452.45410,0.02447
3450.52535,0.02462
3448.59661,0.02465
3446.66786,0.02480
3444.73912,0.02509
3442.81037,0.02546
3440.88163,0.02580
3438.95288,0.02587
3437.02414,0.02596
3435.09539,0.02628
3433.16665,0.02625
3431.23790,0.02583
3429.30916,0.02574
3427.38041,0.02591
3425.45167,0.02603
3423.52292,0.02623
3421.59418,0.02634
3419.66543,0.02613
3417.73668,0.02610
3415.80794,0.02643
3413.87919,0.02663
3411.95045,0.02658
3410.02170,0.02641
3408.09296,0.02614
3406.16421,0.02588
3404.23547,0.02577
3402.30672,0.02567
3400.37798,0.02546
3398.44923,0.02549
3396.52049,0.02589
3394.59174,0.02627
3392.66300,0.02634
3390.73425,0.02632
3388.80550,0.02642
3386.87676,0.02655
3384.94801,0.02648
3383.01927,0.02616
3381.09052,0.02594
3379.16178,0.02603
3377.23303,0.02623
3375.30429,0.02633
3373.37554,0.02621
3371.44680,0.02603
3369.51805,0.02601
3367.58931,0.02609
3365.66056,0.02625
3363.73182,0.02648
3361.80307,0.02653
3359.87433,0.02636
3357.94558,0.02623
3356.01683,0.02627
3354.08809,0.02646
3352.15934,0.02672
3350.23060,0.02698
3348.30185,0.02721
3346.37311,0.02728
3344.44436,0.02723
3342.51562,0.02736
3340.58687,0.02767
3338.65813,0.02775
3336.72938,0.02738
3334.80064,0.02702
3332.87189,0.02731
3330.94315,0.02805
3329.01440,0.02852
3327.08566,0.02856
3325.15691,0.02846
3323.22816,0.02844
3321.29942,0.02868
3319.37067,0.02892
3317.44193,0.02883
3315.51318,0.02855
3313.58444,0.02841
3311.65569,0.02841
3309.72695,0.02846
3307.79820,0.02866
3305.86946,0.02897
3303.94071,0.02919
3302.01197,0.02935
3300.08322,0.02956
3298.15448,0.02948
3296.22573,0.02896
3294.29698,0.02859
3292.36824,0.02876
3290.43949,0.02926
3288.51075,0.02966
3286.58200,0.02979
3284.65326,0.02985
3282.72451,0.02993
3280.79577,0.02994
3278.86702,0.02997
3276.93828,0.03008
3275.00953,0.03010
3273.08079,0.03014
3271.15204,0.03047
3269.22330,0.03093
3267.29455,0.03100
3265.36581,0.03054
3263.43706,0.03023
3261.50831,0.03065
3259.57957,0.03131
3257.65082,0.03168
3255.72208,0.03182
3253.79333,0.03189
3251.86459,0.03181
3249.93584,0.03154
3248.00710,0.03146
3246.07835,0.03163
3244.14961,0.03166
3242.22086,0.03168
3240.29212,0.03215
3238.36337,0.03272
3236.43463,0.03266
3234.50588,0.03205
3232.57713,0.03145
3230.64839,0.03133
3228.71964,0.03168
3226.79090,0.03206
3224.86215,0.03215
3222.93341,0.03210
3221.00466,0.03229
3219.07592,0.03280
3217.14717,0.03330
3215.21843,0.03355
3213.28968,0.03352
3211.36094,0.03344
3209.43219,0.03351
3207.50345,0.03369
3205.57470,0.03380
3203.64596,0.03390
3201.71721,0.03413
3199.78846,0.03432
3197.85972,0.03439
3195.93097,0.03463
3194.00223,0.03498
3192.07348,0.03504
3190.14474,0.03497
3188.21599,0.03524
3186.28725,0.03570
3184.35850,0.03581
3182.42976,0.03554
3180.50101,0.03532
3178.57227,0.03536
3176.64352,0.03553
3174.71478,0.03583
3172.78603,0.03638
3170.85729,0.03702
3168.92854,0.03758
3166.99979,0.03801
3165.07105,0.03802
3163.14230,0.03774
3161.21356,0.03769
3159.28481,0.03783
3157.35607,0.03808
3155.42732,0.03854
3153.49858,0.03884
3151.56983,0.03888
3149.64109,0.03914
3147.71234,0.03969
3145.78360,0.04029
3143.85485,0.04075
3141.92611,0.04110
3139.99736,0.04154
3138.06861,0.04204
3136.13987,0.04247
3134.21112,0.04283
3132.28238,0.04306
3130.35363,0.04324
3128.42489,0.04362
3126.49614,0.04425
3124.56740,0.04493
3122.63865,0.04554
3120.70991,0.04612
3118.78116,0.04660
3116.85242,0.04682
3114.92367,0.04704
3112.99493,0.04750
3111.06618,0.04813
3109.13744,0.04882
3107.20869,0.04951
3105.27994,0.05016
3103.35120,0.05072
3101.42245,0.05113
3099.49371,0.05165
3097.56496,0.05252
3095.63622,0.05349
3093.70747,0.05410
3091.77873,0.05445
3089.84998,0.05498
3087.92124,0.05581
3085.99249,0.05667
3084.06375,0.05732
3082.13500,0.05782
3080.20626,0.05842
3078.27751,0.05910
3076.34877,0.05981
3074.42002,0.06064
3072.49127,0.06156
3070.56253,0.06242
3068.63378,0.06312
3066.70504,0.06362
3064.77629,0.06405
3062.84755,0.06471
3060.91880,0.06567
3058.99006,0.06670
3057.06131,0.06762
3055.13257,0.06847
3053.20382,0.06933
3051.27508,0.07009
3049.34633,0.07066
3047.41759,0.07121
3045.48884,0.07202
3043.56009,0.07300
3041.63135,0.07382
3039.70260,0.07447
3037.77386,0.07513
3035.84511,0.07586
3033.91637,0.07665
3031.98762,0.07744
3030.05888,0.07826
3028.13013,0.07907
3026.20139,0.07987
3024.27264,0.08082
3022.34390,0.08175
3020.41515,0.08244
3018.48641,0.08303
3016.55766,0.08351
3014.62892,0.08385
3012.70017,0.08426
3010.77142,0.08476
3008.84268,0.08536
3006.91393,0.08599
3004.98519,0.08627
3003.05644,0.08606
3001.12770,0.08582
2999.19895,0.08563
2997.27021,0.08516
2995.34146,0.08434
2993.41272,0.08346
2991.48397,0.08261
2989.55523,0.08133
2987.62648,0.07925
2985.69774,0.07670
2983.76899,0.07439
2981.84025,0.07280
2979.91150,0.07170
2977.98275,0.07026
2976.05401,0.06807
2974.12526,0.06541
2972.19652,0.06277
2970.26777,0.06067
2968.33903,0.05940
2966.41028,0.05867
2964.48154,0.05806
2962.55279,0.05735
2960.62405,0.05630
2958.69530,0.05508
2956.76656,0.05399
2954.83781,0.05310
2952.90907,0.05227
2950.98032,0.05134
2949.05157,0.05043
2947.12283,0.04966
2945.19408,0.04891
2943.26534,0.04814
2941.33659,0.04746
2939.40785,0.04691
2937.47910,0.04632
2935.55036,0.04567
2933.62161,0.04515
2931.69287,0.04478
2929.76412,0.04440
2927.83538,0.04385
2925.90663,0.04336
2923.97789,0.04301
2922.04914,0.04242
2920.12040,0.04161
2918.19165,0.04097
2916.26290,0.04046
2914.33416,0.03988
2912.40541,0.03933
2910.47667,0.03892
2908.54792,0.03862
2906.61918,0.03835
2904.69043,0.03807
2902.76169,0.03793
2900.83294,0.03799
2898.90420,0.03814
2896.97545,0.03836
2895.04671,0.03862
2893.11796,0.03894
2891.18922,0.03936
2889.26047,0.03991
2887.33172,0.04066
2885.40298,0.04146
2883.47423,0.04195
2881.54549,0.04210
2879.61674,0.04229
2877.68800,0.04274
2875.75925,0.04328
2873.83051,0.04363
2871.90176,0.04382
2869.97302,0.04422
2868.04427,0.04503
2866.11553,0.04619
2864.18678,0.04740
2862.25804,0.04827
2860.32929,0.04886
2858.40055,0.04958
2856.47180,0.05043
2854.54305,0.05127
2852.61431,0.05212
2850.68556,0.05296
2848.75682,0.05399
2846.82807,0.05553
2844.89933,0.05740
2842.97058,0.05925
2841.04184,0.06095
2839.11309,0.06249
2837.18435,0.06385
2835.25560,0.06517
2833.32686,0.06649
2831.39811,0.06764
2829.46937,0.06859
2827.54062,0.06954
2825.61188,0.07063
2823.68313,0.07177
2821.75438,0.07295
2819.82564,0.07436
2817.89689,0.07594
2815.96815,0.07737
2814.03940,0.07857
2812.11066,0.07971
2810.18191,0.08079
2808.25317,0.08193
2806.32442,0.08330
2804.39568,0.08467
2802.46693,0.08571
2800.53819,0.08656
2798.60944,0.08751
2796.68070,0.08853
2794.75195,0.08953
2792.82320,0.09043
2790.89446,0.09122
2788.96571,0.09203
2787.03697,0.09290
2785.10822,0.09364
2783.17948,0.09420
2781.25073,0.09480
2779.32199,0.09559
2777.39324,0.09643
2775.46450,0.09721
2773.53575,0.09786
2771.60701,0.09838
2769.67826,0.09886
2767.74952,0.09943
2765.82077,0.10006
2763.89203,0.10049
2761.96328,0.10078
2760.03453,0.10118
2758.10579,0.10156
2756.17704,0.10168
2754.24830,0.10173
2752.31955,0.10193
2750.39081,0.10214
2748.46206,0.10217
2746.53332,0.10207
2744.60457,0.10190
2742.67583,0.10164
2740.74708,0.10145
2738.81834,0.10153
2736.88959,0.10177
2734.96085,0.10199
2733.03210,0.10219
2731.10336,0.10247
2729.17461,0.10287
2727.24586,0.10330
2725.31712,0.10366
2723.38837,0.10406
2721.45963,0.10464
2719.53088,0.10540
2717.60214,0.10615
2715.67339,0.10692
2713.74465,0.10778
2711.81590,0.10873
2709.88716,0.10964
2707.95841,0.11047
2706.02967,0.11129
2704.10092,0.11220
2702.17218,0.11316
2700.24343,0.11420
2698.31468,0.11531
2696.38594,0.11638
2694.45719,0.11750
2692.52845,0.11868
2690.59970,0.11974
2688.67096,0.12083
2686.74221,0.12219
2684.81347,0.12364
2682.88472,0.12494
2680.95598,0.12608
2679.02723,0.12717
2677.09849,0.12823
2675.16974,0.12925
2673.24100,0.13019
2671.31225,0.13109
2669.38351,0.13199
2667.45476,0.13286
2665.52601,0.13358
2663.59727,0.13419
2661.66852,0.13485
2659.73978,0.13563
2657.81103,0.13645
2655.88229,0.13732
2653.95354,0.13830
2652.02480,0.13943
2650.09605,0.14061
2648.16731,0.14163
2646.23856,0.14238
2644.30982,0.14311
2642.38107,0.14408
2640.45233,0.14514
2638.52358,0.14615
2636.59484,0.14710
2634.66609,0.14791
2632.73734,0.14861
2630.80860,0.14934
2628.87985,0.15002
2626.95111,0.15064
2625.02236,0.15141
2623.09362,0.15227
2621.16487,0.15318
2619.23613,0.15416
2617.30738,0.15503
2615.37864,0.15568
2613.44989,0.15626
2611.52115,0.15681
2609.59240,0.15726
2607.66366,0.15771
2605.73491,0.15832
2603.80616,0.15901
2601.87742,0.15969
2599.94867,0.16033
2598.01993,0.16095
2596.09118,0.16167
2594.16244,0.16237
2592.23369,0.16282
2590.30495,0.16319
2588.37620,0.16366
2586.44746,0.16412
2584.51871,0.16453
2582.58997,0.16488
2580.66122,0.16509
2578.73248,0.16523
2576.80373,0.16552
2574.87499,0.16592
2572.94624,0.16622
2571.01749,0.16634
2569.08875,0.16633
2567.16000,0.16620
2565.23126,0.16604
2563.30251,0.16585
2561.37377,0.16575
2559.44502,0.16580
2557.51628,0.16585
2555.58753,0.16580
2553.65879,0.16576
2551.73004,0.16579
2549.80130,0.16567
2547.87255,0.16528
2545.94381,0.16480
2544.01506,0.16442
2542.08631,0.16421
2540.15757,0.16420
2538.22882,0.16431
2536.30008,0.16446
2534.37133,0.16468
2532.44259,0.16495
2530.51384,0.16520
2528.58510,0.16554
2526.65635,0.16594
2524.72761,0.16637
2522.79886,0.16695
2520.87012,0.16756
2518.94137,0.16801
2517.01263,0.16843
2515.08388,0.16898
2513.15514,0.16960
2511.22639,0.17036
2509.29764,0.17147
2507.36890,0.17292
2505.44015,0.17441
2503.51141,0.17569
2501.58266,0.17681
2499.65392,0.17782
2497.72517,0.17872
2495.79643,0.17969
2493.86768,0.18072
2491.93894,0.18172
2490.01019,0.18272
2488.08145,0.18369
2486.15270,0.18474
2484.22396,0.18593
2482.29521,0.18707
2480.36647,0.18812
2478.43772,0.18913
2476.50897,0.19007
2474.58023,0.19094
2472.65148,0.19190
2470.72274,0.19294
2468.79399,0.19390
2466.86525,0.19474
2464.93650,0.19548
2463.00776,0.19616
2461.07901,0.19681
2459.15027,0.19752
2457.22152,0.19838
2455.29278,0.19934
2453.36403,0.20025
2451.43529,0.20107
2449.50654,0.20192
2447.57779,0.20294
2445.64905,0.20401
2443.72030,0.20495
2441.79156,0.20592
2439.86281,0.20705
2437.93407,0.20824
2436.00532,0.20945
2434.07658,0.21079
2432.14783,0.21216
2430.21909,0.21338
2428.29034,0.21441
2426.36160,0.21546
2424.43285,0.21667
2422.50411,0.21795
2420.57536,0.21922
2418.64662,0.22049
2416.71787,0.22160
2414.78912,0.22248
2412.86038,0.22325
2410.93163,0.22394
2409.00289,0.22457
2407.07414,0.22519
2405.14540,0.22590
2403.21665,0.22674
2401.28791,0.22751
2399.35916,0.22816
2397.43042,0.22886
2395.50167,0.22959
2393.57293,0.23034
2391.64418,0.23128
2389.71544,0.23229
2387.78669,0.23312
2385.85795,0.23380
2383.92920,0.23442
2382.00045,0.23505
2380.07171,0.23575
2378.14296,0.23655
2376.21422,0.23747
2374.28547,0.23836
2372.35673,0.23913
2370.42798,0.23986
2368.49924,0.24054
2366.57049,0.24095
2364.64175,0.24116
2362.71300,0.24151
2360.78426,0.24203
2358.85551,0.24275
2356.92677,0.24367
2354.99802,0.24457
2353.06927,0.24545
2351.14053,0.24635
2349.21178,0.24719
2347.28304,0.24819
2345.35429,0.24952
2343.42555,0.25088
2341.49680,0.25196
2339.56806,0.25275
2337.63931,0.25319
2335.71057,0.25331
2333.78182,0.25346
2331.85308,0.25389
2329.92433,0.25442
2327.99559,0.25486
2326.06684,0.25516
2324.13810,0.25548
2322.20935,0.25607
2320.28060,0.25684
2318.35186,0.25746
2316.42311,0.25776
2314.49437,0.25793
2312.56562,0.25818
2310.63688,0.25848
2308.70813,0.25864
2306.77939,0.25857
2304.85064,0.25829
2302.92190,0.25787
2300.99315,0.25749
2299.06441,0.25716
2297.13566,0.25666
2295.20692,0.25613
2293.27817,0.25571
2291.34943,0.25531
2289.42068,0.25486
2287.49193,0.25426
2285.56319,0.25369
2283.63444,0.25336
2281.70570,0.25302
2279.77695,0.25236
2277.84821,0.25150
2275.91946,0.25053
2273.99072,0.24945
2272.06197,0.24833
2270.13323,0.24716
2268.20448,0.24581
2266.27574,0.24430
2264.34699,0.24274
2262.41825,0.24137
2260.48950,0.24031
2258.56075,0.23931
2256.63201,0.23824
2254.70326,0.23738
2252.77452,0.23667
2250.84577,0.23585
2248.91703,0.23507
2246.98828,0.23443
2245.05954,0.23374
2243.13079,0.23287
2241.20205,0.23186
2239.27330,0.23104
2237.34456,0.23054
2235.41581,0.23010
2233.48707,0.22966
2231.55832,0.22936
2229.62958,0.22923
2227.70083,0.22922
2225.77208,0.22930
2223.84334,0.22945
2221.91459,0.22957
2219.98585,0.22963
2218.05710,0.22970
2216.12836,0.22992
2214.19961,0.23020
2212.27087,0.23034
2210.34212,0.23019
2208.41338,0.22997
2206.48463,0.22993
2204.55589,0.22992
2202.62714,0.22978
2200.69840,0.22955
2198.76965,0.22919
2196.84090,0.22871
2194.91216,0.22816
2192.98341,0.22737
2191.05467,0.22638
2189.12592,0.22541
2187.19718,0.22439
2185.26843,0.22317
2183.33969,0.22187
2181.41094,0.22060
2179.48220,0.21932
2177.55345,0.21787
2175.62471,0.21626
2173.69596,0.21470
2171.76722,0.21329
2169.83847,0.21190
2167.90973,0.21050
2165.98098,0.20920
2164.05223,0.20807
2162.12349,0.20709
2160.19474,0.20621
2158.26600,0.20536
2156.33725,0.20464
2154.40851,0.20406
2152.47976,0.20339
2150.55102,0.20272
2148.62227,0.20232
2146.69353,0.20205
2144.76478,0.20159
2142.83604,0.20088
2140.90729,0.20019
2138.97855,0.19977
2137.04980,0.19953
2135.12106,0.19943
2133.19231,0.19953
2131.26356,0.19973
2129.33482,0.20004
2127.40607,0.20059
2125.47733,0.20126
2123.54858,0.20186
2121.61984,0.20244
2119.69109,0.20320
2117.76235,0.20420
2115.83360,0.20538
2113.90486,0.20666
2111.97611,0.20788
2110.04737,0.20892
2108.11862,0.20979
2106.18988,0.21073
2104.26113,0.21183
2102.33238,0.21288
2100.40364,0.21365
2098.47489,0.21424
2096.54615,0.21493
2094.61740,0.21581
2092.68866,0.21673
2090.75991,0.21758
2088.83117,0.21835
2086.90242,0.21907
2084.97368,0.21971
2083.04493,0.22017
2081.11619,0.22039
2079.18744,0.22048
2077.25870,0.22047
2075.32995,0.22034
2073.40121,0.22010
2071.47246,0.21982
2069.54371,0.21958
2067.61497,0.21940
2065.68622,0.21920
2063.75748,0.21898
2061.82873,0.21878
2059.89999,0.21869
2057.97124,0.21882
2056.04250,0.21910
2054.11375,0.21927
2052.18501,0.21922
2050.25626,0.21910
2048.32752,0.21911
2046.39877,0.21938
2044.47003,0.21990
2042.54128,0.22062
2040.61254,0.22137
2038.68379,0.22206
2036.75504,0.22288
2034.82630,0.22402
2032.89755,0.22548
2030.96881,0.22734
2029.04006,0.22939
2027.11132,0.23131
2025.18257,0.23314
2023.25383,0.23516
2021.32508,0.23729
2019.39634,0.23924
2017.46759,0.24099
2015.53885,0.24272
2013.61010,0.24441
2011.68136,0.24598
2009.75261,0.24727
2007.82386,0.24821
2005.89512,0.24895
2003.96637,0.24963
2002.03763,0.25026
2000.10888,0.25076
1998.18014,0.25103
1996.25139,0.25118
1994.32265,0.25156
1992.39390,0.25228
1990.46516,0.25306
1988.53641,0.25369
1986.60767,0.25433
1984.67892,0.25518
1982.75018,0.25631
1980.82143,0.25755
1978.89269,0.25867
1976.96394,0.25965
1975.03519,0.26059
1973.10645,0.26151
1971.17770,0.26242
1969.24896,0.26340
1967.32021,0.26438
1965.39147,0.26532
1963.46272,0.26632
1961.53398,0.26730
1959.60523,0.26815
1957.67649,0.26895
1955.74774,0.26994
1953.81900,0.27123
1951.89025,0.27271
1949.96151,0.27425
1948.03276,0.27583
1946.10402,0.27745
1944.17527,0.27908
1942.24652,0.28059
1940.31778,0.28180
1938.38903,0.28279
1936.46029,0.28377
1934.53154,0.28483
1932.60280,0.28598
1930.67405,0.28709
1928.74531,0.28793
1926.81656,0.28847
1924.88782,0.28905
1922.95907,0.28985
1921.03033,0.29064
1919.10158,0.29137
1917.17284,0.29200
1915.24409,0.29241
1913.31534,0.29284
1911.38660,0.29346
1909.45785,0.29416
1907.52911,0.29482
1905.60036,0.29530
1903.67162,0.29550
1901.74287,0.29556
1899.81413,0.29569
1897.88538,0.29588
1895.95664,0.29602
1894.02789,0.29610
1892.09915,0.29611
1890.17040,0.29607
1888.24166,0.29595
1886.31291,0.29572
1884.38417,0.29557
1882.45542,0.29548
1880.52667,0.29536
1878.59793,0.29516
1876.66918,0.29488
1874.74044,0.29460
1872.81169,0.29444
1870.88295,0.29444
1868.95420,0.29425
1867.02546,0.29359
1865.09671,0.29279
1863.16797,0.29211
1861.23922,0.29142
1859.31048,0.29057
1857.38173,0.28955
1855.45299,0.28841
1853.52424,0.28729
1851.59549,0.28630
1849.66675,0.28538
1847.73800,0.28446
1845.80926,0.28348
1843.88051,0.28209
1841.95177,0.28056
1840.02302,0.27939
1838.09428,0.27837
1836.16553,0.27732
1834.23679,0.27652
1832.30804,0.27605
1830.37930,0.27549
1828.45055,0.27455
1826.52181,0.27355
1824.59306,0.27256
1822.66432,0.27162
1820.73557,0.27079
1818.80682,0.26986
1816.87808,0.26875
1814.94933,0.26761
1813.02059,0.26663
1811.09184,0.26557
1809.16310,0.26408
1807.23435,0.26239
1805.30561,0.26083
1803.37686,0.25952
1801.44812,0.25836
1799.51937,0.25716
1797.59063,0.25590
1795.66188,0.25472
1793.73314,0.25369
1791.80439,0.25237
1789.87565,0.25066
1787.94690,0.24920
1786.01815,0.24806
1784.08941,0.24697
1782.16066,0.24584
1780.23192,0.24463
1778.30317,0.24340
1776.37443,0.24241
1774.44568,0.24159
1772.51694,0.24044
1770.58819,0.23874
1768.65945,0.23693
1766.73070,0.23529
1764.80196,0.23399
1762.87321,0.23272
1760.94447,0.23109
1759.01572,0.22957
1757.08697,0.22830
1755.15823,0.22689
1753.22948,0.22547
1751.30074,0.22410
1749.37199,0.22245
1747.44325,0.22038
1745.51450,0.21817
1743.58576,0.21603
1741.65701,0.21391
1739.72827,0.21161
1737.79952,0.20951
1735.87078,0.20778
1733.94203,0.20547
1732.01329,0.20265
1730.08454,0.20008
1728.15580,0.19756
1726.22705,0.19529
1724.29830,0.19312
1722.36956,0.19104
1720.44081,0.18938
1718.51207,0.18750
1716.58332,0.18415
1714.65458,0.18032
1712.72583,0.17729
1710.79709,0.17476
1708.86834,0.17240
1706.93960,0.16966
1705.01085,0.16638
1703.08211,0.16349
1701.15336,0.16044
1699.22462,0.15635
1697.29587,0.15232
1695.36713,0.14780
1693.43838,0.14345
1691.50963,0.13989
1689.58089,0.13621
1687.65214,0.13284
1685.72340,0.12959
1683.79465,0.12474
1681.86591,0.12012
1679.93716,0.11683
1678.00842,0.11374
1676.07967,0.11032
1674.15093,0.10683
1672.22218,0.10404
1670.29344,0.10123
1668.36469,0.09789
1666.43595,0.09526
1664.50720,0.09320
1662.57845,0.09105
1660.64971,0.08908
1658.72096,0.08765
1656.79222,0.08670
1654.86347,0.08584
1652.93473,0.08446
1651.00598,0.08336
1649.07724,0.08305
1647.14849,0.08287
1645.21975,0.08233
1643.29100,0.08197
1641.36226,0.08217
1639.43351,0.08284
1637.50477,0.08376
1635.57602,0.08448
1633.64728,0.08488
1631.71853,0.08555
1629.78978,0.08661
1627.86104,0.08791
1625.93229,0.08951
1624.00355,0.09150
1622.07480,0.09335
1620.14606,0.09477
1618.21731,0.09654
1616.28857,0.09909
1614.35982,0.10142
1612.43108,0.10311
1610.50233,0.10453
1608.57359,0.10595
1606.64484,0.10747
1604.71610,0.10895
1602.78735,0.11026
1600.85861,0.11136
1598.92986,0.11238
1597.00111,0.11340
1595.07237,0.11440
1593.14362,0.11534
1591.21488,0.11621
1589.28613,0.11696
1587.35739,0.11768
1585.42864,0.11842
1583.49990,0.11920
1581.57115,0.12009
1579.64241,0.12111
1577.71366,0.12240
1575.78492,0.12371
1573.85617,0.12441
1571.92743,0.12503
1569.99868,0.12589
1568.06993,0.12654
1566.14119,0.12680
1564.21244,0.12705
1562.28370,0.12749
1560.35495,0.12803
1558.42621,0.12841
1556.49746,0.12834
1554.56872,0.12799
1552.63997,0.12756
1550.71123,0.12719
1548.78248,0.12665
1546.85374,0.12606
1544.92499,0.12571
1542.99625,0.12549
1541.06750,0.12517
1539.13876,0.12415
1537.21001,0.12316
1535.28126,0.12269
1533.35252,0.12227
1531.42377,0.12176
1529.49503,0.12147
1527.56628,0.12132
1525.63754,0.12094
1523.70879,0.12030
1521.78005,0.11922
1519.85130,0.11775
1517.92256,0.11608
1515.99381,0.11398
1514.06507,0.11196
1512.13632,0.11048
1510.20758,0.10951
1508.27883,0.10829
1506.35008,0.10506
1504.42134,0.10165
1502.49259,0.09951
1500.56385,0.09766
1498.63510,0.09528
1496.70636,0.09186
1494.77761,0.08843
1492.84887,0.08564
1490.92012,0.08234
1488.99138,0.07762
1487.06263,0.07262
1485.13389,0.06836
1483.20514,0.06476
1481.27640,0.06171
1479.34765,0.05948
1477.41891,0.05780
1475.49016,0.05613
1473.56141,0.05401
1471.63267,0.05137
1469.70392,0.04937
1467.77518,0.04817
1465.84643,0.04696
1463.91769,0.04542
1461.98894,0.04416
1460.06020,0.04340
1458.13145,0.04257
1456.20271,0.04129
1454.27396,0.04017
1452.34522,0.03922
1450.41647,0.03824
1448.48773,0.03736
1446.55898,0.03664
1444.63024,0.03594
1442.70149,0.03536
1440.77274,0.03511
1438.84400,0.03495
1436.91525,0.03422
1434.98651,0.03318
1433.05776,0.03274
1431.12902,0.03273
1429.20027,0.03286
1427.27153,0.03318
1425.34278,0.03355
1423.41404,0.03379
1421.48529,0.03431
1419.55655,0.03531
1417.62780,0.03617
1415.69906,0.03675
1413.77031,0.03740
1411.84156,0.03811
1409.91282,0.03866
1407.98407,0.03894
1406.05533,0.03897
1404.12658,0.03874
1402.19784,0.03837
1400.26909,0.03790
1398.34035,0.03741
1396.41160,0.03703
1394.48286,0.03647
1392.55411,0.03561
1390.62537,0.03475
1388.69662,0.03384
1386.76788,0.03265
1384.83913,0.03133
1382.91039,0.03003
1380.98164,0.02882
1379.05289,0.02791
1377.12415,0.02747
1375.19540,0.02738
1373.26666,0.02739
1371.33791,0.02755
1369.40917,0.02794
1367.48042,0.02842
1365.55168,0.02893
1363.62293,0.02944
1361.69419,0.02985
1359.76544,0.03027
1357.83670,0.03081
1355.90795,0.03134
1353.97921,0.03181
1352.05046,0.03220
1350.12172,0.03240
1348.19297,0.03234
1346.26422,0.03207
1344.33548,0.03172
1342.40673,0.03131
1340.47799,0.03086
1338.54924,0.03050
1336.62050,0.03046
1334.69175,0.03076
1332.76301,0.03117
1330.83426,0.03156
1328.90552,0.03181
1326.97677,0.03185
1325.04803,0.03169
1323.11928,0.03143
1321.19054,0.03111
1319.26179,0.03074
1317.33304,0.03055
1315.40430,0.03072
1313.47555,0.03117
1311.54681,0.03191
1309.61806,0.03307
1307.68932,0.03448
1305.76057,0.03567
1303.83183,0.03654
1301.90308,0.03736
1299.97434,0.03825
1298.04559,0.03900
1296.11685,0.03933
1294.18810,0.03945
1292.25936,0.03970
1290.33061,0.03983
1288.40187,0.03937
1286.47312,0.03832
1284.54437,0.03706
1282.61563,0.03606
1280.68688,0.03561
1278.75814,0.03568
1276.82939,0.03613
1274.90065,0.03688
1272.97190,0.03775
1271.04316,0.03852
1269.11441,0.03889
1267.18567,0.03879
1265.25692,0.03861
1263.32818,0.03865
1261.39943,0.03873
1259.47069,0.03882
1257.54194,0.03904
1255.61320,0.03924
1253.68445,0.03933
1251.75570,0.03945
1249.82696,0.03951
1247.89821,0.03943
1245.96947,0.03916
1244.04072,0.03865
1242.11198,0.03804
1240.18323,0.03723
1238.25449,0.03618
1236.32574,0.03546
1234.39700,0.03550
1232.46825,0.03584
1230.53951,0.03598
1228.61076,0.03599
1226.68202,0.03624
1224.75327,0.03686
1222.82452,0.03755
1220.89578,0.03806
1218.96703,0.03832
1217.03829,0.03824
1215.10954,0.03750
1213.18080,0.03595
1211.25205,0.03397
1209.32331,0.03195
1207.39456,0.03015
1205.46582,0.02880
1203.53707,0.02796
1201.60833,0.02762
1199.67958,0.02769
1197.75084,0.02805
1195.82209,0.02859
1193.89335,0.02906
1191.96460,0.02930
1190.03585,0.02913
1188.10711,0.02843
1186.17836,0.02756
1184.24962,0.02684
1182.32087,0.02606
1180.39213,0.02508
1178.46338,0.02429
1176.53464,0.02402
1174.60589,0.02432
1172.67715,0.02517
1170.74840,0.02653
1168.81966,0.02817
1166.89091,0.02973
1164.96217,0.03093
1163.03342,0.03162
1161.10467,0.03168
1159.17593,0.03118
1157.24718,0.03037
1155.31844,0.02940
1153.38969,0.02831
1151.46095,0.02714
1149.53220,0.02606
1147.60346,0.02503
1145.67471,0.02394
1143.74597,0.02295
1141.81722,0.02215
1139.88848,0.02150
1137.95973,0.02092
1136.03099,0.02036
1134.10224,0.02000
1132.17350,0.01992
1130.24475,0.02009
1128.31600,0.02050
1126.38726,0.02129
1124.45851,0.02242
1122.52977,0.02361
1120.60102,0.02469
1118.67228,0.02569
1116.74353,0.02661
1114.81479,0.02743
1112.88604,0.02824
1110.95730,0.02889
1109.02855,0.02895
1107.09981,0.02837
1105.17106,0.02775
1103.24232,0.02751
1101.31357,0.02742
1099.38483,0.02724
1097.45608,0.02699
1095.52733,0.02674
1093.59859,0.02665
1091.66984,0.02698
1089.74110,0.02785
1087.81235,0.02935
1085.88361,0.03160
1083.95486,0.03438
1082.02612,0.03695
1080.09737,0.03854
1078.16863,0.03905
1076.23988,0.03924
1074.31114,0.03980
1072.38239,0.04074
1070.45365,0.04193
1068.52490,0.04322
1066.59615,0.04445
1064.66741,0.04585
1062.73866,0.04745
1060.80992,0.04851
1058.88117,0.04854
1056.95243,0.04794
1055.02368,0.04712
1053.09494,0.04596
1051.16619,0.04456
1049.23745,0.04343
1047.30870,0.04268
1045.37996,0.04206
1043.45121,0.04153
1041.52247,0.04122
1039.59372,0.04153
1037.66498,0.04277
1035.73623,0.04441
1033.80748,0.04573
1031.87874,0.04653
1029.94999,0.04682
1028.02125,0.04662
1026.09250,0.04626
1024.16376,0.04611
1022.23501,0.04621
1020.30627,0.04643
1018.37752,0.04662
1016.44878,0.04673
1014.52003,0.04673
1012.59129,0.04657
1010.66254,0.04620
1008.73380,0.04562
1006.80505,0.04519
1004.87631,0.04505
1002.94756,0.04510
1001.01881,0.04561
999.09007,0.04677
997.16132,0.04819
995.23258,0.04949
993.30383,0.05070
991.37509,0.05186
989.44634,0.05294
987.51760,0.05422
985.58885,0.05607
983.66011,0.05872
981.73136,0.06208
979.80262,0.06558
977.87387,0.06852
975.94513,0.07050
974.01638,0.07166
972.08763,0.07227
970.15889,0.07240
968.23014,0.07245
966.30140,0.07321
964.37265,0.07495
962.44391,0.07761
960.51516,0.08130
958.58642,0.08576
956.65767,0.09027
954.72893,0.09443
952.80018,0.09847
950.87144,0.10215
948.94269,0.10483
947.01395,0.10670
945.08520,0.10822
943.15646,0.10942
941.22771,0.11015
939.29896,0.11024
937.37022,0.10972
935.44147,0.10898
933.51273,0.10846
931.58398,0.10828
929.65524,0.10835
927.72649,0.10855
925.79775,0.10862
923.86900,0.10839
921.94026,0.10780
920.01151,0.10672
918.08277,0.10517
916.15402,0.10301
914.22528,0.09988
912.29653,0.09579
910.36779,0.09135
908.43904,0.08688
906.51029,0.08219
904.58155,0.07726
902.65280,0.07251
900.72406,0.06847
898.79531,0.06553
896.86657,0.06428
894.93782,0.06538
893.00908,0.06871
891.08033,0.07385
889.15159,0.08036
887.22284,0.08705
885.29410,0.09277
883.36535,0.09758
881.43661,0.10207
879.50786,0.10603
877.57911,0.10924
875.65037,0.11192
873.72162,0.11416
871.79288,0.11604
869.86413,0.11741
867.93539,0.11802
866.00664,0.11827
864.07790,0.11840
862.14915,0.11812
860.22041,0.11742
858.29166,0.11656
856.36292,0.11563
854.43417,0.11447
852.50543,0.11293
850.57668,0.11147
848.64794,0.11042
846.71919,0.10948
844.79044,0.10857
842.86170,0.10761
840.93295,0.10642
839.00421,0.10523
837.07546,0.10408
835.14672,0.10271
833.21797,0.10130
831.28923,0.10004
829.36048,0.09888
827.43174,0.09780
825.50299,0.09687
823.57425,0.09622
821.64550,0.09552
819.71676,0.09437
817.78801,0.09310
815.85926,0.09189
813.93052,0.09065
812.00177,0.08940
810.07303,0.08804
808.14428,0.08657
806.21554,0.08519
804.28679,0.08414
802.35805,0.08345
800.42930,0.08275
798.50056,0.08175
796.57181,0.08053
794.64307,0.07934
792.71432,0.07814
790.78558,0.07684
788.85683,0.07559
786.92809,0.07442
784.99934,0.07330
783.07059,0.07231
781.14185,0.07126
779.21310,0.06986
777.28436,0.06843
775.35561,0.06743
773.42687,0.06677
771.49812,0.06610
769.56938,0.06525
767.64063,0.06418
765.71189,0.06294
763.78314,0.06168
761.85440,0.06044
759.92565,0.05913
757.99691,0.05789
756.06816,0.05686
754.13942,0.05585
752.21067,0.05471
750.28192,0.05365
748.35318,0.05293
746.42443,0.05228
744.49569,0.05131
742.56694,0.05011
740.63820,0.04912
738.70945,0.04846
736.78071,0.04791
734.85196,0.04715
732.92322,0.04611
730.99447,0.04507
729.06573,0.04411
727.13698,0.04300
725.20824,0.04186
723.27949,0.04103
721.35074,0.04054
719.42200,0.04009
717.49325,0.03967
715.56451,0.03953
713.63576,0.03942
711.70702,0.03883
709.77827,0.03821
707.84953,0.03830
705.92078,0.03877
703.99204,0.03899
702.06329,0.03896
700.13455,0.03879
698.20580,0.03865
696.27706,0.03879
694.34831,0.03893
692.41957,0.03879
690.49082,0.03843
688.56207,0.03765
686.63333,0.03661
684.70458,0.03607
682.77584,0.03617
680.84709,0.03606
678.91835,0.03526
676.98960,0.03437
675.06086,0.03410
673.13211,0.03427
671.20337,0.03440
669.27462,0.03444
667.34588,0.03488
665.41713,0.03571
663.48839,0.03609
661.55964,0.03587
659.63090,0.03594
657.70215,0.03636
655.77340,0.03643
653.84466,0.03609
651.91591,0.03569
649.98717,0.03562
648.05842,0.03609
646.12968,0.03647
644.20093,0.03590
642.27219,0.03497
640.34344,0.03476
638.41470,0.03456
636.48595,0.03364
634.55721,0.03291
632.62846,0.03306
630.69972,0.03392
628.77097,0.03430
626.84222,0.03289
624.91348,0.03155
622.98473,0.03191
621.05599,0.03234
619.12724,0.03213
617.19850,0.03226
615.26975,0.03341
613.34101,0.03533
611.41226,0.03680
609.48352,0.03719
607.55477,0.03694
605.62603,0.03726
603.69728,0.03808
601.76854,0.03739
599.83979,0.03533
