7497.03301,0.81604
7495.10426,0.81208
7493.17552,0.81295
7491.24677,0.81910
7489.31803,0.82272
7487.38928,0.81921
7485.46054,0.81161
7483.53179,0.80548
7481.60305,0.80398
7479.67430,0.80570
7477.74556,0.80714
7475.81681,0.80575
7473.88807,0.80281
7471.95932,0.80154
7470.03057,0.79927
7468.10183,0.79352
7466.17308,0.79087
7464.24434,0.79208
7462.31559,0.79201
7460.38685,0.79400
7458.45810,0.79816
7456.52936,0.80058
7454.60061,0.80233
7452.67187,0.80312
7450.74312,0.80275
7448.81438,0.80188
7446.88563,0.80055
7444.95689,0.79747
7443.02814,0.79109
7441.09940,0.78823
7439.17065,0.79390
7437.24190,0.79874
7435.31316,0.79621
7433.38441,0.79039
7431.45567,0.78382
7429.52692,0.78123
7427.59818,0.78744
7425.66943,0.79439
7423.74069,0.79397
7421.81194,0.79257
7419.88320,0.79537
7417.95445,0.79521
7416.02571,0.78775
7414.09696,0.78056
7412.16822,0.77885
7410.23947,0.78017
7408.31073,0.78305
7406.38198,0.78636
7404.45323,0.78543
7402.52449,0.77936
7400.59574,0.77489
7398.66700,0.77673
7396.73825,0.78008
7394.80951,0.77748
7392.88076,0.77090
7390.95202,0.76931
7389.02327,0.77343
7387.09453,0.77456
7385.16578,0.77077
7383.23704,0.76641
7381.30829,0.76209
7379.37955,0.75951
7377.45080,0.76057
7375.52205,0.76416
7373.59331,0.76905
7371.66456,0.77145
7369.73582,0.76775
7367.80707,0.76185
7365.87833,0.76074
7363.94958,0.76285
7362.02084,0.76250
7360.09209,0.76003
7358.16335,0.75897
7356.23460,0.75986
7354.30586,0.76086
7352.37711,0.76204
7350.44837,0.76316
7348.51962,0.76095
7346.59088,0.75513
7344.66213,0.75090
7342.73338,0.75091
7340.80464,0.75173
7338.87589,0.75141
7336.94715,0.74945
7335.01840,0.74458
7333.08966,0.74008
7331.16091,0.73817
7329.23217,0.73654
7327.30342,0.73453
7325.37468,0.73408
7323.44593,0.73586
7321.51719,0.73803
7319.58844,0.73686
7317.65970,0.73170
7315.73095,0.72929
7313.80221,0.73202
7311.87346,0.73381
7309.94471,0.73427
7308.01597,0.73541
7306.08722,0.73608
7304.15848,0.73766
7302.22973,0.74018
7300.30099,0.74090
7298.37224,0.73825
7296.44350,0.73343
7294.51475,0.73052
7292.58601,0.73045
7290.65726,0.72985
7288.72852,0.72874
7286.79977,0.72823
7284.87103,0.72775
7282.94228,0.72934
7281.01353,0.73279
7279.08479,0.73412
7277.15604,0.73325
7275.22730,0.73204
7273.29855,0.73060
7271.36981,0.72920
7269.44106,0.72725
7267.51232,0.72440
7265.58357,0.72196
7263.65483,0.72160
7261.72608,0.72419
7259.79734,0.72787
7257.86859,0.73058
7255.93985,0.73112
7254.01110,0.72794
7252.08236,0.72269
7250.15361,0.71966
7248.22486,0.72020
7246.29612,0.72257
7244.36737,0.72710
7242.43863,0.73395
7240.50988,0.73957
7238.58114,0.74139
7236.65239,0.73895
7234.72365,0.73418
7232.79490,0.73113
7230.86616,0.73365
7228.93741,0.73998
7227.00867,0.74282
7225.07992,0.74023
7223.15118,0.73543
7221.22243,0.73110
7219.29369,0.73077
7217.36494,0.73301
7215.43619,0.73195
7213.50745,0.72853
7211.57870,0.72763
7209.64996,0.72931
7207.72121,0.72997
7205.79247,0.72870
7203.86372,0.72783
7201.93498,0.72768
7200.00623,0.72804
7198.07749,0.72840
7196.14874,0.72512
7194.22000,0.72033
7192.29125,0.71943
7190.36251,0.72157
7188.43376,0.72448
7186.50501,0.72531
7184.57627,0.72179
7182.64752,0.71882
7180.71878,0.72313
7178.79003,0.72929
7176.86129,0.72752
7174.93254,0.72089
7173.00380,0.71706
7171.07505,0.71754
7169.14631,0.71921
7167.21756,0.71754
7165.28882,0.71203
7163.36007,0.70663
7161.43133,0.70553
7159.50258,0.70920
7157.57384,0.71267
7155.64509,0.71197
7153.71634,0.70915
7151.78760,0.70803
7149.85885,0.70841
7147.93011,0.70653
7146.00136,0.70099
7144.07262,0.69651
7142.14387,0.69720
7140.21513,0.70073
7138.28638,0.70270
7136.35764,0.70198
7134.42889,0.70139
7132.50015,0.70111
7130.57140,0.69747
7128.64266,0.69267
7126.71391,0.69182
7124.78516,0.69228
7122.85642,0.68954
7120.92767,0.68534
7118.99893,0.68202
7117.07018,0.68013
7115.14144,0.67953
7113.21269,0.67807
7111.28395,0.67483
7109.35520,0.67178
7107.42646,0.67207
7105.49771,0.67556
7103.56897,0.67584
7101.64022,0.67009
7099.71148,0.66445
7097.78273,0.66382
7095.85399,0.66774
7093.92524,0.67234
7091.99649,0.67165
7090.06775,0.66594
7088.13900,0.66209
7086.21026,0.66294
7084.28151,0.66403
7082.35277,0.66093
7080.42402,0.65563
7078.49528,0.65251
7076.56653,0.65209
7074.63779,0.65120
7072.70904,0.64668
7070.78030,0.63997
7068.85155,0.63591
7066.92281,0.63604
7064.99406,0.63755
7063.06532,0.63802
7061.13657,0.63649
7059.20782,0.63190
7057.27908,0.62689
7055.35033,0.62665
7053.42159,0.63070
7051.49284,0.63375
7049.56410,0.63122
7047.63535,0.62396
7045.70661,0.61975
7043.77786,0.62208
7041.84912,0.62459
7039.92037,0.62137
7037.99163,0.61476
7036.06288,0.61164
7034.13414,0.61246
7032.20539,0.61201
7030.27664,0.60916
7028.34790,0.60551
7026.41915,0.60138
7024.49041,0.59834
7022.56166,0.59820
7020.63292,0.59997
7018.70417,0.60185
7016.77543,0.60262
7014.84668,0.60088
7012.91794,0.59708
7010.98919,0.59346
7009.06045,0.59177
7007.13170,0.59230
7005.20296,0.59376
7003.27421,0.59367
7001.34547,0.59067
6999.41672,0.58712
6997.48797,0.58451
6995.55923,0.58228
6993.63048,0.58243
6991.70174,0.58449
6989.77299,0.58447
6987.84425,0.58220
6985.91550,0.58061
6983.98676,0.58044
6982.05801,0.57998
6980.12927,0.57945
6978.20052,0.57950
6976.27178,0.57806
6974.34303,0.57539
6972.41429,0.57375
6970.48554,0.57252
6968.55680,0.57204
6966.62805,0.57496
6964.69930,0.57857
6962.77056,0.57761
6960.84181,0.57315
6958.91307,0.56832
6956.98432,0.56473
6955.05558,0.56382
6953.12683,0.56535
6951.19809,0.56792
6949.26934,0.56902
6947.34060,0.56623
6945.41185,0.56153
6943.48311,0.55968
6941.55436,0.56065
6939.62562,0.56189
6937.69687,0.56450
6935.76812,0.56637
6933.83938,0.56357
6931.91063,0.55992
6929.98189,0.56026
6928.05314,0.56316
6926.12440,0.56410
6924.19565,0.56216
6922.26691,0.56079
6920.33816,0.56086
6918.40942,0.55996
6916.48067,0.55741
6914.55193,0.55526
6912.62318,0.55566
6910.69444,0.55705
6908.76569,0.55566
6906.83695,0.55205
6904.90820,0.54956
6902.97945,0.54779
6901.05071,0.54654
6899.12196,0.54897
6897.19322,0.55373
6895.26447,0.55510
6893.33573,0.55157
6891.40698,0.54709
6889.47824,0.54526
6887.54949,0.54566
6885.62075,0.54781
6883.69200,0.55096
6881.76326,0.55162
6879.83451,0.55013
6877.90577,0.54924
6875.97702,0.54823
6874.04828,0.54766
6872.11953,0.54842
6870.19078,0.54845
6868.26204,0.54871
6866.33329,0.55113
6864.40455,0.55230
6862.47580,0.55056
6860.54706,0.54821
6858.61831,0.54590
6856.68957,0.54403
6854.76082,0.54312
6852.83208,0.54326
6850.90333,0.54448
6848.97459,0.54566
6847.04584,0.54506
6845.11710,0.54259
6843.18835,0.54088
6841.25960,0.54076
6839.33086,0.54017
6837.40211,0.53821
6835.47337,0.53519
6833.54462,0.53345
6831.61588,0.53448
6829.68713,0.53593
6827.75839,0.53598
6825.82964,0.53488
6823.90090,0.53343
6821.97215,0.53267
6820.04341,0.53213
6818.11466,0.53126
6816.18592,0.53151
6814.25717,0.53175
6812.32843,0.52931
6810.39968,0.52638
6808.47093,0.52513
6806.54219,0.52362
6804.61344,0.52179
6802.68470,0.52203
6800.75595,0.52409
6798.82721,0.52555
6796.89846,0.52564
6794.96972,0.52465
6793.04097,0.52182
6791.11223,0.51828
6789.18348,0.51718
6787.25474,0.51869
6785.32599,0.52076
6783.39725,0.52220
6781.46850,0.52281
6779.53975,0.52263
6777.61101,0.52113
6775.68226,0.51902
6773.75352,0.51791
6771.82477,0.51713
6769.89603,0.51634
6767.96728,0.51664
6766.03854,0.51726
6764.10979,0.51664
6762.18105,0.51428
6760.25230,0.51160
6758.32356,0.51051
6756.39481,0.51025
6754.46607,0.51114
6752.53732,0.51448
6750.60858,0.51772
6748.67983,0.51772
6746.75108,0.51466
6744.82234,0.51138
6742.89359,0.51013
6740.96485,0.51136
6739.03610,0.51438
6737.10736,0.51542
6735.17861,0.51280
6733.24987,0.51095
6731.32112,0.51182
6729.39238,0.51288
6727.46363,0.51357
6725.53489,0.51406
6723.60614,0.51305
6721.67740,0.51087
6719.74865,0.50957
6717.81991,0.51064
6715.89116,0.51290
6713.96241,0.51420
6712.03367,0.51491
6710.10492,0.51583
6708.17618,0.51679
6706.24743,0.51731
6704.31869,0.51691
6702.38994,0.51671
6700.46120,0.51785
6698.53245,0.51822
6696.60371,0.51619
6694.67496,0.51457
6692.74622,0.51470
6690.81747,0.51420
6688.88873,0.51395
6686.95998,0.51608
6685.03123,0.51783
6683.10249,0.51690
6681.17374,0.51602
6679.24500,0.51620
6677.31625,0.51527
6675.38751,0.51380
6673.45876,0.51287
6671.53002,0.51216
6669.60127,0.51329
6667.67253,0.51674
6665.74378,0.51913
6663.81504,0.51914
6661.88629,0.51887
6659.95755,0.51842
6658.02880,0.51717
6656.10006,0.51636
6654.17131,0.51616
6652.24256,0.51480
6650.31382,0.51255
6648.38507,0.51261
6646.45633,0.51604
6644.52758,0.52047
6642.59884,0.52366
6640.67009,0.52417
6638.74135,0.52306
6636.81260,0.52323
6634.88386,0.52480
6632.95511,0.52661
6631.02637,0.52750
6629.09762,0.52589
6627.16888,0.52330
6625.24013,0.52270
6623.31139,0.52337
6621.38264,0.52310
6619.45389,0.52273
6617.52515,0.52374
6615.59640,0.52488
6613.66766,0.52574
6611.73891,0.52708
6609.81017,0.52798
6607.88142,0.52874
6605.95268,0.52960
6604.02393,0.52871
6602.09519,0.52689
6600.16644,0.52658
6598.23770,0.52745
6596.30895,0.52899
6594.38021,0.53132
6592.45146,0.53233
6590.52271,0.53022
6588.59397,0.52737
6586.66522,0.52728
6584.73648,0.52990
6582.80773,0.53251
6580.87899,0.53331
6578.95024,0.53294
6577.02150,0.53315
6575.09275,0.53461
6573.16401,0.53515
6571.23526,0.53243
6569.30652,0.52922
6567.37777,0.52943
6565.44903,0.53112
6563.52028,0.53180
6561.59154,0.53304
6559.66279,0.53469
6557.73404,0.53430
6555.80530,0.53217
6553.87655,0.53093
6551.94781,0.53226
6550.01906,0.53446
6548.09032,0.53517
6546.16157,0.53502
6544.23283,0.53494
6542.30408,0.53500
6540.37534,0.53528
6538.44659,0.53520
6536.51785,0.53498
6534.58910,0.53468
6532.66036,0.53362
6530.73161,0.53273
6528.80287,0.53293
6526.87412,0.53322
6524.94537,0.53281
6523.01663,0.53305
6521.08788,0.53503
6519.15914,0.53707
6517.23039,0.53716
6515.30165,0.53463
6513.37290,0.53065
6511.44416,0.52912
6509.51541,0.53144
6507.58667,0.53392
6505.65792,0.53506
6503.72918,0.53622
6501.80043,0.53548
6499.87169,0.53181
6497.94294,0.52906
6496.01419,0.52923
6494.08545,0.52986
6492.15670,0.52965
6490.22796,0.53029
6488.29921,0.53202
6486.37047,0.53270
6484.44172,0.53194
6482.51298,0.53112
6480.58423,0.53055
6478.65549,0.53010
6476.72674,0.53088
6474.79800,0.53233
6472.86925,0.53177
6470.94051,0.53017
6469.01176,0.53053
6467.08302,0.53230
6465.15427,0.53365
6463.22552,0.53488
6461.29678,0.53595
6459.36803,0.53464
6457.43929,0.53185
6455.51054,0.53193
6453.58180,0.53564
6451.65305,0.53975
6449.72431,0.54052
6447.79556,0.53725
6445.86682,0.53387
6443.93807,0.53311
6442.00933,0.53338
6440.08058,0.53327
6438.15184,0.53391
6436.22309,0.53587
6434.29434,0.53724
6432.36560,0.53651
6430.43685,0.53509
6428.50811,0.53453
6426.57936,0.53462
6424.65062,0.53494
6422.72187,0.53574
6420.79313,0.53698
6418.86438,0.53839
6416.93564,0.54059
6415.00689,0.54264
6413.07815,0.54167
6411.14940,0.53823
6409.22066,0.53507
6407.29191,0.53385
6405.36317,0.53541
6403.43442,0.53763
6401.50567,0.53780
6399.57693,0.53713
6397.64818,0.53812
6395.71944,0.54090
6393.79069,0.54321
6391.86195,0.54286
6389.93320,0.54067
6388.00446,0.53871
6386.07571,0.53710
6384.14697,0.53561
6382.21822,0.53478
6380.28948,0.53488
6378.36073,0.53660
6376.43199,0.53900
6374.50324,0.53926
6372.57450,0.53813
6370.64575,0.53883
6368.71700,0.54135
6366.78826,0.54333
6364.85951,0.54368
6362.93077,0.54290
6361.00202,0.54211
6359.07328,0.54199
6357.14453,0.54241
6355.21579,0.54273
6353.28704,0.54269
6351.35830,0.54252
6349.42955,0.54186
6347.50081,0.54095
6345.57206,0.54141
6343.64332,0.54315
6341.71457,0.54447
6339.78582,0.54467
6337.85708,0.54326
6335.92833,0.54089
6333.99959,0.53994
6332.07084,0.54075
6330.14210,0.54163
6328.21335,0.54218
6326.28461,0.54267
6324.35586,0.54339
6322.42712,0.54475
6320.49837,0.54562
6318.56963,0.54464
6316.64088,0.54313
6314.71214,0.54253
6312.78339,0.54222
6310.85465,0.54220
6308.92590,0.54273
6306.99715,0.54293
6305.06841,0.54318
6303.13966,0.54385
6301.21092,0.54365
6299.28217,0.54321
6297.35343,0.54396
6295.42468,0.54532
6293.49594,0.54676
6291.56719,0.54843
6289.63845,0.55011
6287.70970,0.55167
6285.78096,0.55216
6283.85221,0.55048
6281.92347,0.54773
6279.99472,0.54633
6278.06598,0.54702
6276.13723,0.54857
6274.20848,0.55042
6272.27974,0.55234
6270.35099,0.55386
6268.42225,0.55541
6266.49350,0.55654
6264.56476,0.55636
6262.63601,0.55545
6260.70727,0.55467
6258.77852,0.55480
6256.84978,0.55631
6254.92103,0.55863
6252.99229,0.56091
6251.06354,0.56260
6249.13480,0.56301
6247.20605,0.56222
6245.27730,0.56182
6243.34856,0.56227
6241.41981,0.56289
6239.49107,0.56464
6237.56232,0.56775
6235.63358,0.56979
6233.70483,0.56989
6231.77609,0.56963
6229.84734,0.56961
6227.91860,0.56980
6225.98985,0.57031
6224.06111,0.57053
6222.13236,0.57043
6220.20362,0.57103
6218.27487,0.57276
6216.34613,0.57499
6214.41738,0.57592
6212.48863,0.57461
6210.55989,0.57365
6208.63114,0.57490
6206.70240,0.57670
6204.77365,0.57788
6202.84491,0.57900
6200.91616,0.58047
6198.98742,0.58121
6197.05867,0.58040
6195.12993,0.58006
6193.20118,0.58150
6191.27244,0.58319
6189.34369,0.58406
6187.41495,0.58468
6185.48620,0.58556
6183.55746,0.58657
6181.62871,0.58735
6179.69996,0.58787
6177.77122,0.58857
6175.84247,0.58958
6173.91373,0.59145
6171.98498,0.59464
6170.05624,0.59716
6168.12749,0.59684
6166.19875,0.59502
6164.27000,0.59449
6162.34126,0.59550
6160.41251,0.59701
6158.48377,0.59826
6156.55502,0.59866
6154.62628,0.59928
6152.69753,0.60046
6150.76878,0.60048
6148.84004,0.60017
6146.91129,0.60179
6144.98255,0.60406
6143.05380,0.60421
6141.12506,0.60245
6139.19631,0.60189
6137.26757,0.60397
6135.33882,0.60643
6133.41008,0.60747
6131.48133,0.60769
6129.55259,0.60818
6127.62384,0.60904
6125.69510,0.60935
6123.76635,0.60908
6121.83761,0.60901
6119.90886,0.60992
6117.98011,0.61236
6116.05137,0.61456
6114.12262,0.61487
6112.19388,0.61505
6110.26513,0.61602
6108.33639,0.61595
6106.40764,0.61513
6104.47890,0.61545
6102.55015,0.61645
6100.62141,0.61725
6098.69266,0.61767
6096.76392,0.61791
6094.83517,0.61912
6092.90643,0.62048
6090.97768,0.62061
6089.04893,0.62082
6087.12019,0.62160
6085.19144,0.62243
6083.26270,0.62362
6081.33395,0.62490
6079.40521,0.62599
6077.47646,0.62691
6075.54772,0.62775
6073.61897,0.62875
6071.69023,0.62929
6069.76148,0.62885
6067.83274,0.62841
6065.90399,0.62895
6063.97525,0.63031
6062.04650,0.63169
6060.11776,0.63184
6058.18901,0.63078
6056.26026,0.63047
6054.33152,0.63103
6052.40277,0.63120
6050.47403,0.63195
6048.54528,0.63397
6046.61654,0.63588
6044.68779,0.63688
6042.75905,0.63742
6040.83030,0.63770
6038.90156,0.63811
6036.97281,0.63910
6035.04407,0.64045
6033.11532,0.64185
6031.18658,0.64281
6029.25783,0.64298
6027.32909,0.64266
6025.40034,0.64212
6023.47159,0.64176
6021.54285,0.64197
6019.61410,0.64317
6017.68536,0.64504
6015.75661,0.64671
6013.82787,0.64796
6011.89912,0.64866
6009.97038,0.64892
6008.04163,0.64886
6006.11289,0.64823
6004.18414,0.64732
6002.25540,0.64653
6000.32665,0.64635
5998.39791,0.64760
5996.46916,0.64957
5994.54041,0.65034
5992.61167,0.64970
5990.68292,0.64876
5988.75418,0.64886
5986.82543,0.65039
5984.89669,0.65165
5982.96794,0.65170
5981.03920,0.65156
5979.11045,0.65146
5977.18171,0.65155
5975.25296,0.65253
5973.32422,0.65405
5971.39547,0.65547
5969.46673,0.65624
5967.53798,0.65570
5965.60924,0.65495
5963.68049,0.65542
5961.75174,0.65606
5959.82300,0.65499
5957.89425,0.65278
5955.96551,0.65130
5954.03676,0.65029
5952.10802,0.64956
5950.17927,0.65016
5948.25053,0.65092
5946.32178,0.65043
5944.39304,0.64979
5942.46429,0.64987
5940.53555,0.64954
5938.60680,0.64852
5936.67806,0.64798
5934.74931,0.64742
5932.82057,0.64584
5930.89182,0.64477
5928.96307,0.64592
5927.03433,0.64762
5925.10558,0.64758
5923.17684,0.64678
5921.24809,0.64682
5919.31935,0.64749
5917.39060,0.64745
5915.46186,0.64597
5913.53311,0.64536
5911.60437,0.64772
5909.67562,0.64982
5907.74688,0.64810
5905.81813,0.64506
5903.88939,0.64378
5901.96064,0.64325
5900.03189,0.64227
5898.10315,0.64146
5896.17440,0.64104
5894.24566,0.64052
5892.31691,0.63952
5890.38817,0.63729
5888.45942,0.63419
5886.53068,0.63264
5884.60193,0.63356
5882.67319,0.63507
5880.74444,0.63542
5878.81570,0.63411
5876.88695,0.63153
5874.95821,0.62920
5873.02946,0.62813
5871.10072,0.62785
5869.17197,0.62777
5867.24322,0.62740
5865.31448,0.62753
5863.38573,0.62882
5861.45699,0.62999
5859.52824,0.63031
5857.59950,0.62989
5855.67075,0.62932
5853.74201,0.62952
5851.81326,0.63007
5849.88452,0.63002
5847.95577,0.62977
5846.02703,0.63021
5844.09828,0.63107
5842.16954,0.63210
5840.24079,0.63269
5838.31205,0.63185
5836.38330,0.63048
5834.45455,0.62925
5832.52581,0.62847
5830.59706,0.62857
5828.66832,0.62825
5826.73957,0.62726
5824.81083,0.62678
5822.88208,0.62621
5820.95334,0.62527
5819.02459,0.62522
5817.09585,0.62584
5815.16710,0.62555
5813.23836,0.62477
5811.30961,0.62485
5809.38087,0.62556
5807.45212,0.62619
5805.52337,0.62668
5803.59463,0.62660
5801.66588,0.62547
5799.73714,0.62473
5797.80839,0.62540
5795.87965,0.62618
5793.95090,0.62604
5792.02216,0.62518
5790.09341,0.62413
5788.16467,0.62335
5786.23592,0.62328
5784.30718,0.62396
5782.37843,0.62402
5780.44969,0.62271
5778.52094,0.62151
5776.59220,0.62120
5774.66345,0.62097
5772.73470,0.62065
5770.80596,0.62090
5768.87721,0.62190
5766.94847,0.62302
5765.01972,0.62362
5763.09098,0.62353
5761.16223,0.62291
5759.23349,0.62202
5757.30474,0.62161
5755.37600,0.62235
5753.44725,0.62301
5751.51851,0.62241
5749.58976,0.62181
5747.66102,0.62172
5745.73227,0.62157
5743.80352,0.62132
5741.87478,0.62047
5739.94603,0.61917
5738.01729,0.61832
5736.08854,0.61807
5734.15980,0.61797
5732.23105,0.61799
5730.30231,0.61847
5728.37356,0.61873
5726.44482,0.61813
5724.51607,0.61779
5722.58733,0.61828
5720.65858,0.61839
5718.72984,0.61718
5716.80109,0.61526
5714.87235,0.61449
5712.94360,0.61548
5711.01485,0.61630
5709.08611,0.61599
5707.15736,0.61539
5705.22862,0.61495
5703.29987,0.61539
5701.37113,0.61694
5699.44238,0.61745
5697.51364,0.61568
5695.58489,0.61409
5693.65615,0.61376
5691.72740,0.61316
5689.79866,0.61238
5687.86991,0.61169
5685.94117,0.61078
5684.01242,0.61090
5682.08368,0.61265
5680.15493,0.61445
5678.22618,0.61494
5676.29744,0.61436
5674.36869,0.61315
5672.43995,0.61162
5670.51120,0.61022
5668.58246,0.60913
5666.65371,0.60871
5664.72497,0.60906
5662.79622,0.60922
5660.86748,0.60865
5658.93873,0.60839
5657.00999,0.60844
5655.08124,0.60790
5653.15250,0.60770
5651.22375,0.60855
5649.29500,0.60960
5647.36626,0.61018
5645.43751,0.60989
5643.50877,0.60891
5641.58002,0.60811
5639.65128,0.60779
5637.72253,0.60722
5635.79379,0.60612
5633.86504,0.60556
5631.93630,0.60616
5630.00755,0.60725
5628.07881,0.60759
5626.15006,0.60645
5624.22132,0.60551
5622.29257,0.60668
5620.36383,0.60856
5618.43508,0.60956
5616.50633,0.61015
5614.57759,0.61031
5612.64884,0.60969
5610.72010,0.60890
5608.79135,0.60829
5606.86261,0.60794
5604.93386,0.60760
5603.00512,0.60725
5601.07637,0.60784
5599.14763,0.60918
5597.21888,0.60977
5595.29014,0.60928
5593.36139,0.60874
5591.43265,0.60866
5589.50390,0.60876
5587.57516,0.60933
5585.64641,0.61014
5583.71766,0.60982
5581.78892,0.60866
5579.86017,0.60794
5577.93143,0.60780
5576.00268,0.60829
5574.07394,0.60917
5572.14519,0.60985
5570.21645,0.61045
5568.28770,0.61077
5566.35896,0.61047
5564.43021,0.61012
5562.50147,0.61035
5560.57272,0.61093
5558.64398,0.61120
5556.71523,0.61115
5554.78648,0.61074
5552.85774,0.60975
5550.92899,0.60913
5549.00025,0.60965
5547.07150,0.61078
5545.14276,0.61183
5543.21401,0.61252
5541.28527,0.61278
5539.35652,0.61277
5537.42778,0.61286
5535.49903,0.61324
5533.57029,0.61366
5531.64154,0.61355
5529.71280,0.61292
5527.78405,0.61268
5525.85531,0.61294
5523.92656,0.61292
5521.99781,0.61247
5520.06907,0.61221
5518.14032,0.61271
5516.21158,0.61350
5514.28283,0.61334
5512.35409,0.61246
5510.42534,0.61212
5508.49660,0.61254
5506.56785,0.61311
5504.63911,0.61322
5502.71036,0.61286
5500.78162,0.61256
5498.85287,0.61250
5496.92413,0.61284
5494.99538,0.61319
5493.06664,0.61252
5491.13789,0.61112
5489.20914,0.61070
5487.28040,0.61145
5485.35165,0.61179
5483.42291,0.61123
5481.49416,0.61100
5479.56542,0.61186
5477.63667,0.61282
5475.70793,0.61285
5473.77918,0.61224
5471.85044,0.61189
5469.92169,0.61233
5467.99295,0.61317
5466.06420,0.61386
5464.13546,0.61453
5462.20671,0.61520
5460.27796,0.61578
5458.34922,0.61610
5456.42047,0.61627
5454.49173,0.61677
5452.56298,0.61717
5450.63424,0.61715
5448.70549,0.61718
5446.77675,0.61709
5444.84800,0.61695
5442.91926,0.61770
5440.99051,0.61921
5439.06177,0.62037
5437.13302,0.62051
5435.20428,0.62044
5433.27553,0.62138
5431.34679,0.62271
5429.41804,0.62350
5427.48929,0.62410
5425.56055,0.62468
5423.63180,0.62473
5421.70306,0.62436
5419.77431,0.62439
5417.84557,0.62517
5415.91682,0.62635
5413.98808,0.62756
5412.05933,0.62856
5410.13059,0.62897
5408.20184,0.62886
5406.27310,0.62889
5404.34435,0.62920
5402.41561,0.62974
5400.48686,0.63033
5398.55811,0.63039
5396.62937,0.63001
5394.70062,0.62981
5392.77188,0.63019
5390.84313,0.63088
5388.91439,0.63127
5386.98564,0.63144
5385.05690,0.63164
5383.12815,0.63148
5381.19941,0.63108
5379.27066,0.63112
5377.34192,0.63137
5375.41317,0.63142
5373.48443,0.63169
5371.55568,0.63200
5369.62694,0.63167
5367.69819,0.63083
5365.76944,0.63030
5363.84070,0.63026
5361.91195,0.63005
5359.98321,0.62970
5358.05446,0.62946
5356.12572,0.62878
5354.19697,0.62776
5352.26823,0.62739
5350.33948,0.62750
5348.41074,0.62720
5346.48199,0.62658
5344.55325,0.62580
5342.62450,0.62489
5340.69576,0.62481
5338.76701,0.62541
5336.83827,0.62508
5334.90952,0.62362
5332.98077,0.62176
5331.05203,0.61989
5329.12328,0.61869
5327.19454,0.61821
5325.26579,0.61770
5323.33705,0.61674
5321.40830,0.61529
5319.47956,0.61369
5317.55081,0.61217
5315.62207,0.61036
5313.69332,0.60842
5311.76458,0.60682
5309.83583,0.60517
5307.90709,0.60296
5305.97834,0.60053
5304.04959,0.59827
5302.12085,0.59655
5300.19210,0.59532
5298.26336,0.59333
5296.33461,0.59008
5294.40587,0.58711
5292.47712,0.58526
5290.54838,0.58368
5288.61963,0.58139
5286.69089,0.57835
5284.76214,0.57502
5282.83340,0.57167
5280.90465,0.56820
5278.97591,0.56462
5277.04716,0.56134
5275.11842,0.55804
5273.18967,0.55418
5271.26092,0.55007
5269.33218,0.54613
5267.40343,0.54279
5265.47469,0.53989
5263.54594,0.53640
5261.61720,0.53246
5259.68845,0.52912
5257.75971,0.52650
5255.83096,0.52378
5253.90222,0.52038
5251.97347,0.51664
5250.04473,0.51278
5248.11598,0.50891
5246.18724,0.50567
5244.25849,0.50283
5242.32975,0.49985
5240.40100,0.49717
5238.47225,0.49486
5236.54351,0.49256
5234.61476,0.49032
5232.68602,0.48788
5230.75727,0.48471
5228.82853,0.48147
5226.89978,0.47952
5224.97104,0.47863
5223.04229,0.47731
5221.11355,0.47530
5219.18480,0.47276
5217.25606,0.47013
5215.32731,0.46833
5213.39857,0.46696
5211.46982,0.46517
5209.54107,0.46358
5207.61233,0.46288
5205.68358,0.46233
5203.75484,0.46107
5201.82609,0.45943
5199.89735,0.45795
5197.96860,0.45679
5196.03986,0.45588
5194.11111,0.45524
5192.18237,0.45501
5190.25362,0.45491
5188.32488,0.45439
5186.39613,0.45381
5184.46739,0.45402
5182.53864,0.45463
5180.60990,0.45461
5178.68115,0.45382
5176.75240,0.45322
5174.82366,0.45401
5172.89491,0.45549
5170.96617,0.45564
5169.03742,0.45469
5167.10868,0.45459
5165.17993,0.45557
5163.25119,0.45683
5161.32244,0.45790
5159.39370,0.45839
5157.46495,0.45837
5155.53621,0.45839
5153.60746,0.45857
5151.67872,0.45860
5149.74997,0.45860
5147.82123,0.45929
5145.89248,0.46084
5143.96373,0.46250
5142.03499,0.46340
5140.10624,0.46360
5138.17750,0.46434
5136.24875,0.46591
5134.32001,0.46720
5132.39126,0.46795
5130.46252,0.46893
5128.53377,0.47017
5126.60503,0.47076
5124.67628,0.47061
5122.74754,0.47114
5120.81879,0.47294
5118.89005,0.47478
5116.96130,0.47565
5115.03255,0.47610
5113.10381,0.47694
5111.17506,0.47828
5109.24632,0.47980
5107.31757,0.48099
5105.38883,0.48168
5103.46008,0.48207
5101.53134,0.48242
5099.60259,0.48321
5097.67385,0.48454
5095.74510,0.48614
5093.81636,0.48774
5091.88761,0.48898
5089.95887,0.48957
5088.03012,0.49003
5086.10138,0.49116
5084.17263,0.49256
5082.24388,0.49347
5080.31514,0.49449
5078.38639,0.49605
5076.45765,0.49694
5074.52890,0.49692
5072.60016,0.49741
5070.67141,0.49843
5068.74267,0.49916
5066.81392,0.50026
5064.88518,0.50209
5062.95643,0.50341
5061.02769,0.50382
5059.09894,0.50435
5057.17020,0.50513
5055.24145,0.50562
5053.31270,0.50629
5051.38396,0.50757
5049.45521,0.50909
5047.52647,0.51053
5045.59772,0.51165
5043.66898,0.51230
5041.74023,0.51302
5039.81149,0.51412
5037.88274,0.51516
5035.95400,0.51600
5034.02525,0.51697
5032.09651,0.51821
5030.16776,0.51913
5028.23902,0.51932
5026.31027,0.51959
5024.38153,0.52058
5022.45278,0.52143
5020.52403,0.52155
5018.59529,0.52172
5016.66654,0.52251
5014.73780,0.52360
5012.80905,0.52431
5010.88031,0.52448
5008.95156,0.52466
5007.02282,0.52513
5005.09407,0.52565
5003.16533,0.52592
5001.23658,0.52607
4999.30784,0.52660
4997.37909,0.52749
4995.45035,0.52828
4993.52160,0.52855
4991.59286,0.52813
4989.66411,0.52764
4987.73536,0.52778
4985.80662,0.52811
4983.87787,0.52819
4981.94913,0.52810
4980.02038,0.52775
4978.09164,0.52776
4976.16289,0.52829
4974.23415,0.52819
4972.30540,0.52735
4970.37666,0.52688
4968.44791,0.52678
4966.51917,0.52626
4964.59042,0.52574
4962.66168,0.52578
4960.73293,0.52577
4958.80418,0.52522
4956.87544,0.52414
4954.94669,0.52268
4953.01795,0.52146
4951.08920,0.52100
4949.16046,0.52081
4947.23171,0.51993
4945.30297,0.51810
4943.37422,0.51631
4941.44548,0.51545
4939.51673,0.51486
4937.58799,0.51345
4935.65924,0.51148
4933.73050,0.50998
4931.80175,0.50920
4929.87301,0.50835
4927.94426,0.50707
4926.01551,0.50538
4924.08677,0.50333
4922.15802,0.50133
4920.22928,0.49947
4918.30053,0.49747
4916.37179,0.49538
4914.44304,0.49356
4912.51430,0.49187
4910.58555,0.48985
4908.65681,0.48782
4906.72806,0.48626
4904.79932,0.48453
4902.87057,0.48224
4900.94183,0.47995
4899.01308,0.47796
4897.08434,0.47606
4895.15559,0.47413
4893.22684,0.47199
4891.29810,0.46910
4889.36935,0.46580
4887.44061,0.46340
4885.51186,0.46207
4883.58312,0.46049
4881.65437,0.45780
4879.72563,0.45481
4877.79688,0.45263
4875.86814,0.45121
4873.93939,0.44999
4872.01065,0.44829
4870.08190,0.44594
4868.15316,0.44397
4866.22441,0.44281
4864.29566,0.44139
4862.36692,0.43922
4860.43817,0.43711
4858.50943,0.43546
4856.58068,0.43403
4854.65194,0.43266
4852.72319,0.43166
4850.79445,0.43099
4848.86570,0.42993
4846.93696,0.42849
4845.00821,0.42707
4843.07947,0.42534
4841.15072,0.42322
4839.22198,0.42126
4837.29323,0.41972
4835.36449,0.41841
4833.43574,0.41696
4831.50699,0.41531
4829.57825,0.41371
4827.64950,0.41241
4825.72076,0.41147
4823.79201,0.41038
4821.86327,0.40873
4819.93452,0.40713
4818.00578,0.40611
4816.07703,0.40517
4814.14829,0.40390
4812.21954,0.40264
4810.29080,0.40179
4808.36205,0.40098
4806.43331,0.39983
4804.50456,0.39859
4802.57582,0.39759
4800.64707,0.39716
4798.71832,0.39710
4796.78958,0.39641
4794.86083,0.39493
4792.93209,0.39361
4791.00334,0.39291
4789.07460,0.39255
4787.14585,0.39211
4785.21711,0.39153
4783.28836,0.39101
4781.35962,0.39026
4779.43087,0.38953
4777.50213,0.38955
4775.57338,0.38979
4773.64464,0.38941
4771.71589,0.38880
4769.78714,0.38869
4767.85840,0.38878
4765.92965,0.38830
4764.00091,0.38740
4762.07216,0.38683
4760.14342,0.38665
4758.21467,0.38649
4756.28593,0.38638
4754.35718,0.38652
4752.42844,0.38679
4750.49969,0.38697
4748.57095,0.38722
4746.64220,0.38781
4744.71346,0.38841
4742.78471,0.38887
4740.85597,0.38962
4738.92722,0.39052
4736.99847,0.39094
4735.06973,0.39117
4733.14098,0.39187
4731.21224,0.39274
4729.28349,0.39319
4727.35475,0.39356
4725.42600,0.39412
4723.49726,0.39454
4721.56851,0.39488
4719.63977,0.39576
4717.71102,0.39717
4715.78228,0.39847
4713.85353,0.39926
4711.92479,0.39967
4709.99604,0.40020
4708.06729,0.40086
4706.13855,0.40123
4704.20980,0.40151
4702.28106,0.40217
4700.35231,0.40329
4698.42357,0.40463
4696.49482,0.40611
4694.56608,0.40771
4692.63733,0.40895
4690.70859,0.40960
4688.77984,0.41031
4686.85110,0.41165
4684.92235,0.41330
4682.99361,0.41443
4681.06486,0.41486
4679.13612,0.41539
4677.20737,0.41632
4675.27862,0.41715
4673.34988,0.41766
4671.42113,0.41813
4669.49239,0.41903
4667.56364,0.42036
4665.63490,0.42138
4663.70615,0.42183
4661.77741,0.42229
4659.84866,0.42298
4657.91992,0.42375
4655.99117,0.42471
4654.06243,0.42590
4652.13368,0.42713
4650.20494,0.42798
4648.27619,0.42850
4646.34745,0.42913
4644.41870,0.42991
4642.48995,0.43059
4640.56121,0.43123
4638.63246,0.43203
4636.70372,0.43307
4634.77497,0.43423
4632.84623,0.43510
4630.91748,0.43552
4628.98874,0.43618
4627.05999,0.43725
4625.13125,0.43818
4623.20250,0.43902
4621.27376,0.43999
4619.34501,0.44079
4617.41627,0.44123
4615.48752,0.44174
4613.55877,0.44259
4611.63003,0.44343
4609.70128,0.44400
4607.77254,0.44464
4605.84379,0.44568
4603.91505,0.44699
4601.98630,0.44809
4600.05756,0.44884
4598.12881,0.44960
4596.20007,0.45053
4594.27132,0.45128
4592.34258,0.45184
4590.41383,0.45273
4588.48509,0.45378
4586.55634,0.45442
4584.62760,0.45502
4582.69885,0.45608
4580.77010,0.45718
4578.84136,0.45818
4576.91261,0.45921
4574.98387,0.46000
4573.05512,0.46057
4571.12638,0.46151
4569.19763,0.46269
4567.26889,0.46356
4565.34014,0.46431
4563.41140,0.46516
4561.48265,0.46592
4559.55391,0.46680
4557.62516,0.46817
4555.69642,0.46951
4553.76767,0.47010
4551.83893,0.46995
4549.91018,0.46974
4547.98143,0.47032
4546.05269,0.47170
4544.12394,0.47306
4542.19520,0.47385
4540.26645,0.47413
4538.33771,0.47423
4536.40896,0.47460
4534.48022,0.47518
4532.55147,0.47547
4530.62273,0.47564
4528.69398,0.47630
4526.76524,0.47732
4524.83649,0.47796
4522.90775,0.47818
4520.97900,0.47851
4519.05025,0.47920
4517.12151,0.48014
4515.19276,0.48095
4513.26402,0.48132
4511.33527,0.48155
4509.40653,0.48207
4507.47778,0.48266
4505.54904,0.48284
4503.62029,0.48274
4501.69155,0.48278
4499.76280,0.48317
4497.83406,0.48365
4495.90531,0.48374
4493.97657,0.48363
4492.04782,0.48365
4490.11908,0.48372
4488.19033,0.48376
4486.26158,0.48381
4484.33284,0.48391
4482.40409,0.48403
4480.47535,0.48420
4478.54660,0.48435
4476.61786,0.48432
4474.68911,0.48391
4472.76037,0.48310
4470.83162,0.48237
4468.90288,0.48205
4466.97413,0.48163
4465.04539,0.48053
4463.11664,0.47909
4461.18790,0.47784
4459.25915,0.47675
4457.33041,0.47552
4455.40166,0.47414
4453.47291,0.47260
4451.54417,0.47066
4449.61542,0.46836
4447.68668,0.46619
4445.75793,0.46423
4443.82919,0.46197
4441.90044,0.45896
4439.97170,0.45556
4438.04295,0.45251
4436.11421,0.44963
4434.18546,0.44633
4432.25672,0.44265
4430.32797,0.43878
4428.39923,0.43497
4426.47048,0.43172
4424.54173,0.42903
4422.61299,0.42634
4420.68424,0.42320
4418.75550,0.41969
4416.82675,0.41643
4414.89801,0.41388
4412.96926,0.41174
4411.04052,0.40957
4409.11177,0.40743
4407.18303,0.40536
4405.25428,0.40324
4403.32554,0.40130
4401.39679,0.39963
4399.46805,0.39844
4397.53930,0.39819
4395.61056,0.39857
4393.68181,0.39882
4391.75306,0.39881
4389.82432,0.39894
4387.89557,0.39959
4385.96683,0.40065
4384.03808,0.40176
4382.10934,0.40283
4380.18059,0.40405
4378.25185,0.40568
4376.32310,0.40765
4374.39436,0.40919
4372.46561,0.40981
4370.53687,0.41006
4368.60812,0.41060
4366.67938,0.41140
4364.75063,0.41185
4362.82189,0.41165
4360.89314,0.41113
4358.96439,0.41052
4357.03565,0.40981
4355.10690,0.40912
4353.17816,0.40842
4351.24941,0.40756
4349.32067,0.40662
4347.39192,0.40571
4345.46318,0.40491
4343.53443,0.40426
4341.60569,0.40349
4339.67694,0.40248
4337.74820,0.40140
4335.81945,0.40021
4333.89071,0.39881
4331.96196,0.39739
4330.03321,0.39612
4328.10447,0.39486
4326.17572,0.39359
4324.24698,0.39232
4322.31823,0.39079
4320.38949,0.38917
4318.46074,0.38782
4316.53200,0.38661
4314.60325,0.38541
4312.67451,0.38446
4310.74576,0.38361
4308.81702,0.38263
4306.88827,0.38167
4304.95953,0.38079
4303.03078,0.37975
4301.10204,0.37857
4299.17329,0.37743
4297.24454,0.37637
4295.31580,0.37539
4293.38705,0.37447
4291.45831,0.37343
4289.52956,0.37231
4287.60082,0.37111
4285.67207,0.36975
4283.74333,0.36854
4281.81458,0.36792
4279.88584,0.36780
4277.95709,0.36777
4276.02835,0.36759
4274.09960,0.36723
4272.17086,0.36673
4270.24211,0.36631
4268.31336,0.36632
4266.38462,0.36660
4264.45587,0.36666
4262.52713,0.36656
4260.59838,0.36659
4258.66964,0.36675
4256.74089,0.36699
4254.81215,0.36716
4252.88340,0.36692
4250.95466,0.36641
4249.02591,0.36621
4247.09717,0.36631
4245.16842,0.36627
4243.23968,0.36601
4241.31093,0.36589
4239.38219,0.36625
4237.45344,0.36714
4235.52469,0.36815
4233.59595,0.36879
4231.66720,0.36932
4229.73846,0.37011
4227.80971,0.37089
4225.88097,0.37147
4223.95222,0.37189
4222.02348,0.37190
4220.09473,0.37171
4218.16599,0.37181
4216.23724,0.37209
4214.30850,0.37225
4212.37975,0.37241
4210.45101,0.37282
4208.52226,0.37348
4206.59352,0.37428
4204.66477,0.37511
4202.73602,0.37585
4200.80728,0.37656
4198.87853,0.37719
4196.94979,0.37753
4195.02104,0.37783
4193.09230,0.37834
4191.16355,0.37869
4189.23481,0.37858
4187.30606,0.37826
4185.37732,0.37813
4183.44857,0.37799
4181.51983,0.37741
4179.59108,0.37682
4177.66234,0.37697
4175.73359,0.37768
4173.80484,0.37823
4171.87610,0.37857
4169.94735,0.37907
4168.01861,0.37973
4166.08986,0.38041
4164.16112,0.38083
4162.23237,0.38068
4160.30363,0.38018
4158.37488,0.37974
4156.44614,0.37920
4154.51739,0.37822
4152.58865,0.37715
4150.65990,0.37638
4148.73116,0.37576
4146.80241,0.37500
4144.87367,0.37414
4142.94492,0.37326
4141.01617,0.37242
4139.08743,0.37166
4137.15868,0.37104
4135.22994,0.37058
4133.30119,0.37016
4131.37245,0.36961
4129.44370,0.36876
4127.51496,0.36769
4125.58621,0.36660
4123.65747,0.36545
4121.72872,0.36426
4119.79998,0.36312
4117.87123,0.36165
4115.94249,0.35961
4114.01374,0.35757
4112.08500,0.35582
4110.15625,0.35405
4108.22750,0.35199
4106.29876,0.34968
4104.37001,0.34759
4102.44127,0.34588
4100.51252,0.34397
4098.58378,0.34173
4096.65503,0.33947
4094.72629,0.33730
4092.79754,0.33521
4090.86880,0.33321
4088.94005,0.33137
4087.01131,0.32946
4085.08256,0.32711
4083.15382,0.32461
4081.22507,0.32228
4079.29632,0.32014
4077.36758,0.31809
4075.43883,0.31601
4073.51009,0.31407
4071.58134,0.31225
4069.65260,0.31005
4067.72385,0.30751
4065.79511,0.30515
4063.86636,0.30311
4061.93762,0.30107
4060.00887,0.29857
4058.08013,0.29573
4056.15138,0.29303
4054.22264,0.29064
4052.29389,0.28847
4050.36515,0.28630
4048.43640,0.28399
4046.50765,0.28186
4044.57891,0.28019
4042.65016,0.27881
4040.72142,0.27736
4038.79267,0.27549
4036.86393,0.27357
4034.93518,0.27220
4033.00644,0.27122
4031.07769,0.27030
4029.14895,0.26954
4027.22020,0.26890
4025.29146,0.26829
4023.36271,0.26780
4021.43397,0.26733
4019.50522,0.26685
4017.57648,0.26685
4015.64773,0.26734
4013.71898,0.26771
4011.79024,0.26796
4009.86149,0.26848
4007.93275,0.26921
4006.00400,0.26997
4004.07526,0.27075
4002.14651,0.27143
4000.21777,0.27199
3998.28902,0.27269
3996.36028,0.27369
3994.43153,0.27470
3992.50279,0.27536
3990.57404,0.27575
3988.64530,0.27635
3986.71655,0.27735
3984.78780,0.27830
3982.85906,0.27895
3980.93031,0.27952
3979.00157,0.28016
3977.07282,0.28077
3975.14408,0.28112
3973.21533,0.28116
3971.28659,0.28133
3969.35784,0.28182
3967.42910,0.28240
3965.50035,0.28297
3963.57161,0.28350
3961.64286,0.28399
3959.71412,0.28459
3957.78537,0.28517
3955.85663,0.28559
3953.92788,0.28602
3951.99913,0.28677
3950.07039,0.28776
3948.14164,0.28846
3946.21290,0.28891
3944.28415,0.28975
3942.35541,0.29093
3940.42666,0.29198
3938.49792,0.29298
3936.56917,0.29422
3934.64043,0.29555
3932.71168,0.29679
3930.78294,0.29795
3928.85419,0.29916
3926.92545,0.30055
3924.99670,0.30186
3923.06795,0.30280
3921.13921,0.30365
3919.21046,0.30474
3917.28172,0.30567
3915.35297,0.30614
3913.42423,0.30675
3911.49548,0.30769
3909.56674,0.30850
3907.63799,0.30927
3905.70925,0.31065
3903.78050,0.31240
3901.85176,0.31359
3899.92301,0.31412
3897.99427,0.31441
3896.06552,0.31488
3894.13678,0.31564
3892.20803,0.31658
3890.27928,0.31734
3888.35054,0.31788
3886.42179,0.31862
3884.49305,0.31931
3882.56430,0.31945
3880.63556,0.31957
3878.70681,0.32019
3876.77807,0.32105
3874.84932,0.32207
3872.92058,0.32331
3870.99183,0.32484
3869.06309,0.32654
3867.13434,0.32793
3865.20560,0.32915
3863.27685,0.33043
3861.34811,0.33168
3859.41936,0.33287
3857.49061,0.33396
3855.56187,0.33505
3853.63312,0.33626
3851.70438,0.33741
3849.77563,0.33844
3847.84689,0.33947
3845.91814,0.34062
3843.98940,0.34184
3842.06065,0.34269
3840.13191,0.34318
3838.20316,0.34395
3836.27442,0.34477
3834.34567,0.34512
3832.41693,0.34516
3830.48818,0.34501
3828.55943,0.34481
3826.63069,0.34468
3824.70194,0.34468
3822.77320,0.34488
3820.84445,0.34514
3818.91571,0.34514
3816.98696,0.34475
3815.05822,0.34399
3813.12947,0.34323
3811.20073,0.34264
3809.27198,0.34223
3807.34324,0.34207
3805.41449,0.34196
3803.48575,0.34192
3801.55700,0.34218
3799.62826,0.34231
3797.69951,0.34208
3795.77076,0.34188
3793.84202,0.34175
3791.91327,0.34160
3789.98453,0.34148
3788.05578,0.34144
3786.12704,0.34123
3784.19829,0.34071
3782.26955,0.34028
3780.34080,0.34014
3778.41206,0.33975
3776.48331,0.33880
3774.55457,0.33787
3772.62582,0.33735
3770.69708,0.33731
3768.76833,0.33749
3766.83959,0.33731
3764.91084,0.33653
3762.98209,0.33544
3761.05335,0.33449
3759.12460,0.33374
3757.19586,0.33333
3755.26711,0.33318
3753.33837,0.33292
3751.40962,0.33230
3749.48088,0.33109
3747.55213,0.32991
3745.62339,0.32891
3743.69464,0.32749
3741.76590,0.32597
3739.83715,0.32487
3737.90841,0.32383
3735.97966,0.32244
3734.05091,0.32080
3732.12217,0.31880
3730.19342,0.31671
3728.26468,0.31493
3726.33593,0.31321
3724.40719,0.31120
3722.47844,0.30892
3720.54970,0.30639
3718.62095,0.30376
3716.69221,0.30145
3714.76346,0.29958
3712.83472,0.29756
3710.90597,0.29434
3708.97723,0.29010
3707.04848,0.28629
3705.11974,0.28335
3703.19099,0.28057
3701.26224,0.27687
3699.33350,0.27269
3697.40475,0.26897
3695.47601,0.26540
3693.54726,0.26187
3691.61852,0.25821
3689.68977,0.25325
3687.76103,0.24694
3685.83228,0.24134
3683.90354,0.23651
3681.97479,0.23179
3680.04605,0.22726
3678.11730,0.22266
3676.18856,0.21651
3674.25981,0.20949
3672.33107,0.20403
3670.40232,0.19800
3668.47357,0.19089
3666.54483,0.18507
3664.61608,0.17968
3662.68734,0.17386
3660.75859,0.16809
3658.82985,0.16256
3656.90110,0.15623
3654.97236,0.14972
3653.04361,0.14523
3651.11487,0.14152
3649.18612,0.13576
3647.25738,0.12884
3645.32863,0.12364
3643.39989,0.11963
3641.47114,0.11575
3639.54239,0.11173
3637.61365,0.10790
3635.68490,0.10449
3633.75616,0.10139
3631.82741,0.09860
3629.89867,0.09514
3627.96992,0.09019
3626.04118,0.08619
3624.11243,0.08364
3622.18369,0.08174
3620.25494,0.07984
3618.32620,0.07709
3616.39745,0.07420
3614.46871,0.07167
3612.53996,0.06916
3610.61122,0.06668
3608.68247,0.06432
3606.75372,0.06227
3604.82498,0.06073
3602.89623,0.05929
3600.96749,0.05778
3599.03874,0.05638
3597.11000,0.05476
3595.18125,0.05280
3593.25251,0.05111
3591.32376,0.04995
3589.39502,0.04878
3587.46627,0.04728
3585.53753,0.04602
3583.60878,0.04511
3581.68004,0.04422
3579.75129,0.04323
3577.82254,0.04227
3575.89380,0.04151
3573.96505,0.04084
3572.03631,0.04017
3570.10756,0.03966
3568.17882,0.03906
3566.25007,0.03787
3564.32133,0.03682
3562.39258,0.03636
3560.46384,0.03587
3558.53509,0.03488
3556.60635,0.03388
3554.67760,0.03331
3552.74886,0.03285
3550.82011,0.03229
3548.89137,0.03173
3546.96262,0.03107
3545.03387,0.03053
3543.10513,0.03036
3541.17638,0.03036
3539.24764,0.03020
3537.31889,0.02978
3535.39015,0.02932
3533.46140,0.02896
3531.53266,0.02866
3529.60391,0.02826
3527.67517,0.02772
3525.74642,0.02717
3523.81768,0.02677
3521.88893,0.02656
3519.96019,0.02637
3518.03144,0.02598
3516.10270,0.02562
3514.17395,0.02569
3512.24520,0.02590
3510.31646,0.02572
3508.38771,0.02532
3506.45897,0.02505
3504.53022,0.02484
3502.60148,0.02460
3500.67273,0.02427
3498.74399,0.02410
3496.81524,0.02428
3494.88650,0.02439
3492.95775,0.02428
3491.02901,0.02439
3489.10026,0.02464
3487.17152,0.02458
3485.24277,0.02423
3483.31402,0.02380
3481.38528,0.02345
3479.45653,0.02343
3477.52779,0.02370
3475.59904,0.02410
3473.67030,0.02427
3471.74155,0.02388
3469.81281,0.02336
3467.88406,0.02335
3465.95532,0.02379
3464.02657,0.02422
3462.09783,0.02441
3460.16908,0.02433
3458.24034,0.02411
3456.31159,0.02403
3454.38285,0.02413
3452.45410,0.02433
3450.52535,0.02468
3448.59661,0.02508
3446.66786,0.02528
3444.73912,0.02541
3442.81037,0.02565
3440.88163,0.02586
3438.95288,0.02575
3437.02414,0.02538
3435.09539,0.02531
3433.16665,0.02556
3431.23790,0.02550
3429.30916,0.02529
3427.38041,0.02551
3425.45167,0.02598
3423.52292,0.02607
3421.59418,0.02572
3419.66543,0.02529
3417.73668,0.02523
3415.80794,0.02558
3413.87919,0.02585
3411.95045,0.02576
3410.02170,0.02571
3408.09296,0.02582
3406.16421,0.02572
3404.23547,0.02552
3402.30672,0.02561
3400.37798,0.02578
3398.44923,0.02584
3396.52049,0.02575
3394.59174,0.02550
3392.66300,0.02519
3390.73425,0.02510
3388.80550,0.02541
3386.87676,0.02588
3384.94801,0.02616
3383.01927,0.02622
3381.09052,0.02619
3379.16178,0.02613
3377.23303,0.02623
3375.30429,0.02641
3373.37554,0.02627
3371.44680,0.02592
3369.51805,0.02575
3367.58931,0.02573
3365.66056,0.02599
3363.73182,0.02659
3361.80307,0.02710
3359.87433,0.02709
3357.94558,0.02670
3356.01683,0.02634
3354.08809,0.02620
3352.15934,0.02616
3350.23060,0.02607
3348.30185,0.02603
3346.37311,0.02645
3344.44436,0.02729
3342.51562,0.02787
3340.58687,0.02787
3338.65813,0.02774
3336.72938,0.02799
3334.80064,0.02839
3332.87189,0.02861
3330.94315,0.02877
3329.01440,0.02893
3327.08566,0.02892
3325.15691,0.02900
3323.22816,0.02924
3321.29942,0.02919
3319.37067,0.02879
3317.44193,0.02833
3315.51318,0.02808
3313.58444,0.02818
3311.65569,0.02851
3309.72695,0.02887
3307.79820,0.02915
3305.86946,0.02932
3303.94071,0.02933
3302.01197,0.02920
3300.08322,0.02915
3298.15448,0.02939
3296.22573,0.02980
3294.29698,0.03006
3292.36824,0.02987
3290.43949,0.02943
3288.51075,0.02929
3286.58200,0.02954
3284.65326,0.02967
3282.72451,0.02954
3280.79577,0.02953
3278.86702,0.02981
3276.93828,0.02995
3275.00953,0.02993
3273.08079,0.03015
3271.15204,0.03039
3269.22330,0.03030
3267.29455,0.03016
3265.36581,0.03043
3263.43706,0.03106
3261.50831,0.03145
3259.57957,0.03151
3257.65082,0.03150
3255.72208,0.03139
3253.79333,0.03118
3251.86459,0.03103
3249.93584,0.03099
3248.00710,0.03094
3246.07835,0.03093
3244.14961,0.03109
3242.22086,0.03139
3240.29212,0.03176
3238.36337,0.03211
3236.43463,0.03221
3234.50588,0.03201
3232.57713,0.03197
3230.64839,0.03239
3228.71964,0.03300
3226.79090,0.03335
3224.86215,0.03333
3222.93341,0.03303
3221.00466,0.03279
3219.07592,0.03313
3217.14717,0.03357
3215.21843,0.03343
3213.28968,0.03318
3211.36094,0.03308
3209.43219,0.03295
3207.50345,0.03295
3205.57470,0.03333
3203.64596,0.03393
3201.71721,0.03431
3199.78846,0.03436
3197.85972,0.03439
3195.93097,0.03453
3194.00223,0.03464
3192.07348,0.03464
3190.14474,0.03455
3188.21599,0.03443
3186.28725,0.03449
3184.35850,0.03489
3182.42976,0.03538
3180.50101,0.03568
3178.57227,0.03592
3176.64352,0.03626
3174.71478,0.03656
3172.78603,0.03673
3170.85729,0.03683
3168.92854,0.03687
3166.99979,0.03701
3165.07105,0.03739
3163.14230,0.03785
3161.21356,0.03809
3159.28481,0.03816
3157.35607,0.03820
3155.42732,0.03837
3153.49858,0.03882
3151.56983,0.03939
3149.64109,0.03978
3147.71234,0.04001
3145.78360,0.04025
3143.85485,0.04045
3141.92611,0.04059
3139.99736,0.04076
3138.06861,0.04103
3136.13987,0.04149
3134.21112,0.04198
3132.28238,0.04247
3130.35363,0.04312
3128.42489,0.04384
3126.49614,0.04443
3124.56740,0.04477
3122.63865,0.04492
3120.70991,0.04519
3118.78116,0.04558
3116.85242,0.04574
3114.92367,0.04581
3112.99493,0.04618
3111.06618,0.04695
3109.13744,0.04807
3107.20869,0.04919
3105.27994,0.04990
3103.35120,0.05037
3101.42245,0.05098
3099.49371,0.05162
3097.56496,0.05204
3095.63622,0.05232
3093.70747,0.05270
3091.77873,0.05325
3089.84998,0.05383
3087.92124,0.05453
3085.99249,0.05549
3084.06375,0.05646
3082.13500,0.05720
3080.20626,0.05781
3078.27751,0.05852
3076.34877,0.05930
3074.42002,0.05992
3072.49127,0.06035
3070.56253,0.06089
3068.63378,0.06156
3066.70504,0.06218
3064.77629,0.06286
3062.84755,0.06377
3060.91880,0.06485
3058.99006,0.06591
3057.06131,0.06675
3055.13257,0.06730
3053.20382,0.06784
3051.27508,0.06851
3049.34633,0.06915
3047.41759,0.06980
3045.48884,0.07062
3043.56009,0.07169
3041.63135,0.07287
3039.70260,0.07381
3037.77386,0.07434
3035.84511,0.07479
3033.91637,0.07559
3031.98762,0.07657
3030.05888,0.07733
3028.13013,0.07787
3026.20139,0.07840
3024.27264,0.07908
3022.34390,0.07983
3020.41515,0.08049
3018.48641,0.08109
3016.55766,0.08175
3014.62892,0.08249
3012.70017,0.08313
3010.77142,0.08350
3008.84268,0.08364
3006.91393,0.08374
3004.98519,0.08386
3003.05644,0.08393
3001.12770,0.08398
2999.19895,0.08387
2997.27021,0.08351
2995.34146,0.08292
2993.41272,0.08216
2991.48397,0.08129
2989.55523,0.08012
2987.62648,0.07834
2985.69774,0.07603
2983.76899,0.07380
2981.84025,0.07211
2979.91150,0.07079
2977.98275,0.06927
2976.05401,0.06731
2974.12526,0.06504
2972.19652,0.06254
2970.26777,0.06017
2968.33903,0.05855
2966.41028,0.05792
2964.48154,0.05782
2962.55279,0.05749
2960.62405,0.05660
2958.69530,0.05537
2956.76656,0.05411
2954.83781,0.05307
2952.90907,0.05221
2950.98032,0.05136
2949.05157,0.05055
2947.12283,0.04993
2945.19408,0.04932
2943.26534,0.04841
2941.33659,0.04740
2939.40785,0.04668
2937.47910,0.04611
2935.55036,0.04547
2933.62161,0.04472
2931.69287,0.04405
2929.76412,0.04364
2927.83538,0.04335
2925.90663,0.04298
2923.97789,0.04241
2922.04914,0.04182
2920.12040,0.04135
2918.19165,0.04090
2916.26290,0.04041
2914.33416,0.03995
2912.40541,0.03949
2910.47667,0.03894
2908.54792,0.03836
2906.61918,0.03784
2904.69043,0.03742
2902.76169,0.03731
2900.83294,0.03755
2898.90420,0.03795
2896.97545,0.03839
2895.04671,0.03879
2893.11796,0.03909
2891.18922,0.03955
2889.26047,0.04030
2887.33172,0.04096
2885.40298,0.04143
2883.47423,0.04178
2881.54549,0.04201
2879.61674,0.04234
2877.68800,0.04282
2875.75925,0.04324
2873.83051,0.04369
2871.90176,0.04441
2869.97302,0.04528
2868.04427,0.04605
2866.11553,0.04655
2864.18678,0.04682
2862.25804,0.04731
2860.32929,0.04826
2858.40055,0.04942
2856.47180,0.05040
2854.54305,0.05116
2852.61431,0.05197
2850.68556,0.05300
2848.75682,0.05432
2846.82807,0.05598
2844.89933,0.05766
2842.97058,0.05928
2841.04184,0.06090
2839.11309,0.06237
2837.18435,0.06365
2835.25560,0.06500
2833.32686,0.06639
2831.39811,0.06753
2829.46937,0.06843
2827.54062,0.06936
2825.61188,0.07049
2823.68313,0.07179
2821.75438,0.07314
2819.82564,0.07437
2817.89689,0.07547
2815.96815,0.07660
2814.03940,0.07791
2812.11066,0.07932
2810.18191,0.08066
2808.25317,0.08183
2806.32442,0.08290
2804.39568,0.08403
2802.46693,0.08518
2800.53819,0.08622
2798.60944,0.08724
2796.68070,0.08833
2794.75195,0.08942
2792.82320,0.09039
2790.89446,0.09125
2788.96571,0.09203
2787.03697,0.09268
2785.10822,0.09329
2783.17948,0.09396
2781.25073,0.09467
2779.32199,0.09527
2777.39324,0.09586
2775.46450,0.09649
2773.53575,0.09700
2771.60701,0.09745
2769.67826,0.09809
2767.74952,0.09883
2765.82077,0.09937
2763.89203,0.09975
2761.96328,0.10011
2760.03453,0.10045
2758.10579,0.10083
2756.17704,0.10121
2754.24830,0.10152
2752.31955,0.10168
2750.39081,0.10163
2748.46206,0.10151
2746.53332,0.10146
2744.60457,0.10146
2742.67583,0.10136
2740.74708,0.10110
2738.81834,0.10099
2736.88959,0.10118
2734.96085,0.10148
2733.03210,0.10168
2731.10336,0.10187
2729.17461,0.10222
2727.24586,0.10268
2725.31712,0.10317
2723.38837,0.10376
2721.45963,0.10447
2719.53088,0.10520
2717.60214,0.10587
2715.67339,0.10644
2713.74465,0.10706
2711.81590,0.10784
2709.88716,0.10866
2707.95841,0.10951
2706.02967,0.11058
2704.10092,0.11181
2702.17218,0.11294
2700.24343,0.11388
2698.31468,0.11469
2696.38594,0.11552
2694.45719,0.11654
2692.52845,0.11784
2690.59970,0.11925
2688.67096,0.12062
2686.74221,0.12191
2684.81347,0.12316
2682.88472,0.12436
2680.95598,0.12540
2679.02723,0.12635
2677.09849,0.12743
2675.16974,0.12863
2673.24100,0.12974
2671.31225,0.13073
2669.38351,0.13172
2667.45476,0.13259
2665.52601,0.13323
2663.59727,0.13381
2661.66852,0.13447
2659.73978,0.13513
2657.81103,0.13584
2655.88229,0.13680
2653.95354,0.13792
2652.02480,0.13892
2650.09605,0.13978
2648.16731,0.14077
2646.23856,0.14202
2644.30982,0.14322
2642.38107,0.14410
2640.45233,0.14486
2638.52358,0.14578
2636.59484,0.14675
2634.66609,0.14758
2632.73734,0.14837
2630.80860,0.14923
2628.87985,0.15011
2626.95111,0.15095
2625.02236,0.15170
2623.09362,0.15226
2621.16487,0.15267
2619.23613,0.15322
2617.30738,0.15410
2615.37864,0.15516
2613.44989,0.15607
2611.52115,0.15670
2609.59240,0.15714
2607.66366,0.15758
2605.73491,0.15809
2603.80616,0.15867
2601.87742,0.15929
2599.94867,0.15983
2598.01993,0.16034
2596.09118,0.16100
2594.16244,0.16176
2592.23369,0.16240
2590.30495,0.16293
2588.37620,0.16337
2586.44746,0.16363
2584.51871,0.16376
2582.58997,0.16401
2580.66122,0.16439
2578.73248,0.16472
2576.80373,0.16511
2574.87499,0.16563
2572.94624,0.16599
2571.01749,0.16607
2569.08875,0.16606
2567.16000,0.16596
2565.23126,0.16569
2563.30251,0.16536
2561.37377,0.16522
2559.44502,0.16533
2557.51628,0.16538
2555.58753,0.16517
2553.65879,0.16502
2551.73004,0.16507
2549.80130,0.16503
2547.87255,0.16480
2545.94381,0.16441
2544.01506,0.16392
2542.08631,0.16363
2540.15757,0.16367
2538.22882,0.16381
2536.30008,0.16397
2534.37133,0.16424
2532.44259,0.16461
2530.51384,0.16498
2528.58510,0.16537
2526.65635,0.16591
2524.72761,0.16652
2522.79886,0.16697
2520.87012,0.16725
2518.94137,0.16758
2517.01263,0.16808
2515.08388,0.16868
2513.15514,0.16925
2511.22639,0.16997
2509.29764,0.17102
2507.36890,0.17231
2505.44015,0.17364
2503.51141,0.17500
2501.58266,0.17630
2499.65392,0.17745
2497.72517,0.17856
2495.79643,0.17967
2493.86768,0.18065
2491.93894,0.18163
2490.01019,0.18261
2488.08145,0.18344
2486.15270,0.18431
2484.22396,0.18542
2482.29521,0.18644
2480.36647,0.18719
2478.43772,0.18787
2476.50897,0.18878
2474.58023,0.19002
2472.65148,0.19134
2470.72274,0.19244
2468.79399,0.19332
2466.86525,0.19408
2464.93650,0.19485
2463.00776,0.19561
2461.07901,0.19625
2459.15027,0.19684
2457.22152,0.19754
2455.29278,0.19828
2453.36403,0.19900
2451.43529,0.19991
2449.50654,0.20107
2447.57779,0.20234
2445.64905,0.20346
2443.72030,0.20435
2441.79156,0.20520
2439.86281,0.20625
2437.93407,0.20751
2436.00532,0.20890
2434.07658,0.21039
2432.14783,0.21171
2430.21909,0.21280
2428.29034,0.21387
2426.36160,0.21495
2424.43285,0.21596
2422.50411,0.21704
2420.57536,0.21829
2418.64662,0.21957
2416.71787,0.22076
2414.78912,0.22186
2412.86038,0.22279
2410.93163,0.22343
2409.00289,0.22391
2407.07414,0.22450
2405.14540,0.22524
2403.21665,0.22594
2401.28791,0.22663
2399.35916,0.22733
2397.43042,0.22811
2395.50167,0.22899
2393.57293,0.22984
2391.64418,0.23064
2389.71544,0.23132
2387.78669,0.23190
2385.85795,0.23251
2383.92920,0.23319
2382.00045,0.23399
2380.07171,0.23492
2378.14296,0.23594
2376.21422,0.23694
2374.28547,0.23773
2372.35673,0.23841
2370.42798,0.23933
2368.49924,0.24037
2366.57049,0.24113
2364.64175,0.24171
2362.71300,0.24232
2360.78426,0.24276
2358.85551,0.24309
2356.92677,0.24360
2354.99802,0.24426
2353.06927,0.24495
2351.14053,0.24567
2349.21178,0.24641
2347.28304,0.24740
2345.35429,0.24877
2343.42555,0.25019
2341.49680,0.25120
2339.56806,0.25174
2337.63931,0.25219
2335.71057,0.25283
2333.78182,0.25359
2331.85308,0.25419
2329.92433,0.25457
2327.99559,0.25490
2326.06684,0.25513
2324.13810,0.25527
2322.20935,0.25567
2320.28060,0.25625
2318.35186,0.25660
2316.42311,0.25672
2314.49437,0.25686
2312.56562,0.25707
2310.63688,0.25715
2308.70813,0.25706
2306.77939,0.25690
2304.85064,0.25666
2302.92190,0.25630
2300.99315,0.25592
2299.06441,0.25558
2297.13566,0.25522
2295.20692,0.25474
2293.27817,0.25423
2291.34943,0.25382
2289.42068,0.25346
2287.49193,0.25301
2285.56319,0.25251
2283.63444,0.25203
2281.70570,0.25139
2279.77695,0.25061
2277.84821,0.24980
2275.91946,0.24889
2273.99072,0.24787
2272.06197,0.24683
2270.13323,0.24572
2268.20448,0.24439
2266.27574,0.24283
2264.34699,0.24121
2262.41825,0.23974
2260.48950,0.23851
2258.56075,0.23744
2256.63201,0.23650
2254.70326,0.23566
2252.77452,0.23483
2250.84577,0.23398
2248.91703,0.23315
2246.98828,0.23227
2245.05954,0.23133
2243.13079,0.23058
2241.20205,0.23011
2239.27330,0.22974
2237.34456,0.22935
2235.41581,0.22896
2233.48707,0.22856
2231.55832,0.22814
2229.62958,0.22782
2227.70083,0.22769
2225.77208,0.22766
2223.84334,0.22760
2221.91459,0.22759
2219.98585,0.22770
2218.05710,0.22790
2216.12836,0.22812
2214.19961,0.22829
2212.27087,0.22829
2210.34212,0.22812
2208.41338,0.22801
2206.48463,0.22801
2204.55589,0.22798
2202.62714,0.22780
2200.69840,0.22742
2198.76965,0.22695
2196.84090,0.22657
2194.91216,0.22613
2192.98341,0.22534
2191.05467,0.22425
2189.12592,0.22314
2187.19718,0.22207
2185.26843,0.22092
2183.33969,0.21967
2181.41094,0.21836
2179.48220,0.21701
2177.55345,0.21564
2175.62471,0.21429
2173.69596,0.21299
2171.76722,0.21165
2169.83847,0.21024
2167.90973,0.20887
2165.98098,0.20754
2164.05223,0.20626
2162.12349,0.20517
2160.19474,0.20428
2158.26600,0.20347
2156.33725,0.20268
2154.40851,0.20196
2152.47976,0.20138
2150.55102,0.20086
2148.62227,0.20040
2146.69353,0.20008
2144.76478,0.19980
2142.83604,0.19933
2140.90729,0.19878
2138.97855,0.19836
2137.04980,0.19805
2135.12106,0.19773
2133.19231,0.19746
2131.26356,0.19750
2129.33482,0.19789
2127.40607,0.19845
2125.47733,0.19909
2123.54858,0.19990
2121.61984,0.20082
2119.69109,0.20172
2117.76235,0.20262
2115.83360,0.20363
2113.90486,0.20471
2111.97611,0.20579
2110.04737,0.20688
2108.11862,0.20803
2106.18988,0.20912
2104.26113,0.21007
2102.33238,0.21095
2100.40364,0.21178
2098.47489,0.21251
2096.54615,0.21324
2094.61740,0.21406
2092.68866,0.21495
2090.75991,0.21588
2088.83117,0.21659
2086.90242,0.21705
2084.97368,0.21757
2083.04493,0.21817
2081.11619,0.21849
2079.18744,0.21847
2077.25870,0.21837
2075.32995,0.21831
2073.40121,0.21818
2071.47246,0.21784
2069.54371,0.21746
2067.61497,0.21723
2065.68622,0.21714
2063.75748,0.21707
2061.82873,0.21702
2059.89999,0.21705
2057.97124,0.21713
2056.04250,0.21714
2054.11375,0.21710
2052.18501,0.21719
2050.25626,0.21735
2048.32752,0.21747
2046.39877,0.21757
2044.47003,0.21785
2042.54128,0.21839
2040.61254,0.21906
2038.68379,0.21987
2036.75504,0.22087
2034.82630,0.22213
2032.89755,0.22366
2030.96881,0.22542
2029.04006,0.22727
2027.11132,0.22913
2025.18257,0.23106
2023.25383,0.23310
2021.32508,0.23515
2019.39634,0.23711
2017.46759,0.23906
2015.53885,0.24085
2013.61010,0.24233
2011.68136,0.24364
2009.75261,0.24493
2007.82386,0.24617
2005.89512,0.24720
2003.96637,0.24789
2002.03763,0.24825
2000.10888,0.24847
1998.18014,0.24874
1996.25139,0.24914
1994.32265,0.24962
1992.39390,0.25013
1990.46516,0.25079
1988.53641,0.25168
1986.60767,0.25258
1984.67892,0.25342
1982.75018,0.25437
1980.82143,0.25551
1978.89269,0.25669
1976.96394,0.25779
1975.03519,0.25888
1973.10645,0.25988
1971.17770,0.26069
1969.24896,0.26146
1967.32021,0.26236
1965.39147,0.26330
1963.46272,0.26416
1961.53398,0.26499
1959.60523,0.26590
1957.67649,0.26697
1955.74774,0.26812
1953.81900,0.26925
1951.89025,0.27046
1949.96151,0.27186
1948.03276,0.27336
1946.10402,0.27492
1944.17527,0.27658
1942.24652,0.27822
1940.31778,0.27956
1938.38903,0.28070
1936.46029,0.28173
1934.53154,0.28261
1932.60280,0.28347
1930.67405,0.28433
1928.74531,0.28516
1926.81656,0.28595
1924.88782,0.28680
1922.95907,0.28764
1921.03033,0.28824
1919.10158,0.28870
1917.17284,0.28930
1915.24409,0.29002
1913.31534,0.29067
1911.38660,0.29120
1909.45785,0.29166
1907.52911,0.29211
1905.60036,0.29251
1903.67162,0.29296
1901.74287,0.29352
1899.81413,0.29395
1897.88538,0.29406
1895.95664,0.29404
1894.02789,0.29394
1892.09915,0.29375
1890.17040,0.29361
1888.24166,0.29356
1886.31291,0.29358
1884.38417,0.29358
1882.45542,0.29344
1880.52667,0.29318
1878.59793,0.29284
1876.66918,0.29254
1874.74044,0.29227
1872.81169,0.29201
1870.88295,0.29187
1868.95420,0.29171
1867.02546,0.29118
1865.09671,0.29045
1863.16797,0.28973
1861.23922,0.28894
1859.31048,0.28817
1857.38173,0.28748
1855.45299,0.28665
1853.52424,0.28546
1851.59549,0.28419
1849.66675,0.28309
1847.73800,0.28208
1845.80926,0.28099
1843.88051,0.27960
1841.95177,0.27812
1840.02302,0.27691
1838.09428,0.27591
1836.16553,0.27510
1834.23679,0.27455
1832.30804,0.27416
1830.37930,0.27357
1828.45055,0.27259
1826.52181,0.27160
1824.59306,0.27062
1822.66432,0.26957
1820.73557,0.26857
1818.80682,0.26749
1816.87808,0.26626
1814.94933,0.26517
1813.02059,0.26428
1811.09184,0.26316
1809.16310,0.26167
1807.23435,0.26021
1805.30561,0.25894
1803.37686,0.25770
1801.44812,0.25624
1799.51937,0.25464
1797.59063,0.25334
1795.66188,0.25240
1793.73314,0.25139
1791.80439,0.24987
1789.87565,0.24822
1787.94690,0.24689
1786.01815,0.24570
1784.08941,0.24458
1782.16066,0.24358
1780.23192,0.24258
1778.30317,0.24144
1776.37443,0.24026
1774.44568,0.23911
1772.51694,0.23780
1770.58819,0.23619
1768.65945,0.23444
1766.73070,0.23270
1764.80196,0.23130
1762.87321,0.23001
1760.94447,0.22838
1759.01572,0.22680
1757.08697,0.22542
1755.15823,0.22411
1753.22948,0.22291
1751.30074,0.22151
1749.37199,0.21949
1747.44325,0.21720
1745.51450,0.21516
1743.58576,0.21329
1741.65701,0.21124
1739.72827,0.20893
1737.79952,0.20693
1735.87078,0.20520
1733.94203,0.20254
1732.01329,0.19951
1730.08454,0.19713
1728.15580,0.19477
1726.22705,0.19237
1724.29830,0.18987
1722.36956,0.18759
1720.44081,0.18587
1718.51207,0.18392
1716.58332,0.18076
1714.65458,0.17722
1712.72583,0.17413
1710.79709,0.17132
1708.86834,0.16865
1706.93960,0.16574
1705.01085,0.16250
1703.08211,0.15955
1701.15336,0.15616
1699.22462,0.15171
1697.29587,0.14767
1695.36713,0.14331
1693.43838,0.13915
1691.50963,0.13582
1689.58089,0.13234
1687.65214,0.12901
1685.72340,0.12572
1683.79465,0.12104
1681.86591,0.11661
1679.93716,0.11333
1678.00842,0.11019
1676.07967,0.10668
1674.15093,0.10322
1672.22218,0.10074
1670.29344,0.09817
1668.36469,0.09471
1666.43595,0.09197
1664.50720,0.09008
1662.57845,0.08811
1660.64971,0.08613
1658.72096,0.08470
1656.79222,0.08393
1654.86347,0.08352
1652.93473,0.08239
1651.00598,0.08103
1649.07724,0.08046
1647.14849,0.08002
1645.21975,0.07953
1643.29100,0.07930
1641.36226,0.07927
1639.43351,0.07955
1637.50477,0.08025
1635.57602,0.08117
1633.64728,0.08205
1631.71853,0.08294
1629.78978,0.08400
1627.86104,0.08532
1625.93229,0.08694
1624.00355,0.08881
1622.07480,0.09080
1620.14606,0.09264
1618.21731,0.09457
1616.28857,0.09689
1614.35982,0.09889
1612.43108,0.10055
1610.50233,0.10236
1608.57359,0.10412
1606.64484,0.10545
1604.71610,0.10655
1602.78735,0.10787
1600.85861,0.10937
1598.92986,0.11080
1597.00111,0.11196
1595.07237,0.11282
1593.14362,0.11357
1591.21488,0.11440
1589.28613,0.11523
1587.35739,0.11600
1585.42864,0.11676
1583.49990,0.11755
1581.57115,0.11843
1579.64241,0.11945
1577.71366,0.12065
1575.78492,0.12169
1573.85617,0.12235
1571.92743,0.12321
1569.99868,0.12432
1568.06993,0.12503
1566.14119,0.12529
1564.21244,0.12549
1562.28370,0.12574
1560.35495,0.12619
1558.42621,0.12668
1556.49746,0.12661
1554.56872,0.12633
1552.63997,0.12594
1550.71123,0.12552
1548.78248,0.12500
1546.85374,0.12446
1544.92499,0.12403
1542.99625,0.12352
1541.06750,0.12255
1539.13876,0.12117
1537.21001,0.12061
1535.28126,0.12067
1533.35252,0.12074
1531.42377,0.12061
1529.49503,0.12042
1527.56628,0.12012
1525.63754,0.11969
1523.70879,0.11923
1521.78005,0.11804
1519.85130,0.11610
1517.92256,0.11444
1515.99381,0.11284
1514.06507,0.11105
1512.13632,0.10929
1510.20758,0.10788
1508.27883,0.10620
1506.35008,0.10284
1504.42134,0.09986
1502.49259,0.09816
1500.56385,0.09657
1498.63510,0.09442
1496.70636,0.09130
1494.77761,0.08791
1492.84887,0.08499
1490.92012,0.08148
1488.99138,0.07660
1487.06263,0.07175
1485.13389,0.06772
1483.20514,0.06421
1481.27640,0.06124
1479.34765,0.05906
1477.41891,0.05751
1475.49016,0.05604
1473.56141,0.05383
1471.63267,0.05089
1469.70392,0.04891
1467.77518,0.04787
1465.84643,0.04687
1463.91769,0.04560
1461.98894,0.04442
1460.06020,0.04349
1458.13145,0.04232
1456.20271,0.04071
1454.27396,0.03955
1452.34522,0.03881
1450.41647,0.03804
1448.48773,0.03720
1446.55898,0.03636
1444.63024,0.03569
1442.70149,0.03527
1440.77274,0.03495
1438.84400,0.03459
1436.91525,0.03412
1434.98651,0.03370
1433.05776,0.03342
1431.12902,0.03314
1429.20027,0.03301
1427.27153,0.03320
1425.34278,0.03359
1423.41404,0.03395
1421.48529,0.03454
1419.55655,0.03551
1417.62780,0.03624
1415.69906,0.03673
1413.77031,0.03733
1411.84156,0.03791
1409.91282,0.03829
1407.98407,0.03855
1406.05533,0.03879
1404.12658,0.03882
1402.19784,0.03857
1400.26909,0.03816
1398.34035,0.03750
1396.41160,0.03658
1394.48286,0.03561
1392.55411,0.03484
1390.62537,0.03428
1388.69662,0.03366
1386.76788,0.03268
1384.83913,0.03140
1382.91039,0.03005
1380.98164,0.02891
1379.05289,0.02818
1377.12415,0.02773
1375.19540,0.02738
1373.26666,0.02726
1371.33791,0.02749
1369.40917,0.02787
1367.48042,0.02826
1365.55168,0.02865
1363.62293,0.02902
1361.69419,0.02951
1359.76544,0.03018
1357.83670,0.03075
1355.90795,0.03114
1353.97921,0.03155
1352.05046,0.03204
1350.12172,0.03238
1348.19297,0.03245
1346.26422,0.03224
1344.33548,0.03183
1342.40673,0.03142
1340.47799,0.03113
1338.54924,0.03087
1336.62050,0.03067
1334.69175,0.03080
1332.76301,0.03128
1330.83426,0.03183
1328.90552,0.03212
1326.97677,0.03204
1325.04803,0.03169
1323.11928,0.03129
1321.19054,0.03102
1319.26179,0.03087
1317.33304,0.03083
1315.40430,0.03101
1313.47555,0.03154
1311.54681,0.03237
1309.61806,0.03345
1307.68932,0.03471
1305.76057,0.03590
1303.83183,0.03680
1301.90308,0.03755
1299.97434,0.03838
1298.04559,0.03913
1296.11685,0.03960
1294.18810,0.03978
1292.25936,0.03977
1290.33061,0.03956
1288.40187,0.03899
1286.47312,0.03806
1284.54437,0.03697
1282.61563,0.03595
1280.68688,0.03538
1278.75814,0.03539
1276.82939,0.03577
1274.90065,0.03643
1272.97190,0.03740
1271.04316,0.03834
1269.11441,0.03884
1267.18567,0.03875
1265.25692,0.03838
1263.32818,0.03817
1261.39943,0.03823
1259.47069,0.03849
1257.54194,0.03898
1255.61320,0.03951
1253.68445,0.03967
1251.75570,0.03948
1249.82696,0.03925
1247.89821,0.03911
1245.96947,0.03895
1244.04072,0.03858
1242.11198,0.03799
1240.18323,0.03731
1238.25449,0.03650
1236.32574,0.03564
1234.39700,0.03522
1232.46825,0.03545
1230.53951,0.03581
1228.61076,0.03593
1226.68202,0.03606
1224.75327,0.03651
1222.82452,0.03715
1220.89578,0.03760
1218.96703,0.03784
1217.03829,0.03796
1215.10954,0.03758
1213.18080,0.03638
1211.25205,0.03436
1209.32331,0.03194
1207.39456,0.02994
1205.46582,0.02874
1203.53707,0.02824
1201.60833,0.02828
1199.67958,0.02854
1197.75084,0.02870
1195.82209,0.02879
1193.89335,0.02888
1191.96460,0.02890
1190.03585,0.02867
1188.10711,0.02825
1186.17836,0.02766
1184.24962,0.02683
1182.32087,0.02592
1180.39213,0.02500
1178.46338,0.02422
1176.53464,0.02398
1174.60589,0.02432
1172.67715,0.02500
1170.74840,0.02611
1168.81966,0.02778
1166.89091,0.02962
1164.96217,0.03103
1163.03342,0.03175
1161.10467,0.03156
1159.17593,0.03070
1157.24718,0.02976
1155.31844,0.02899
1153.38969,0.02815
1151.46095,0.02703
1149.53220,0.02595
1147.60346,0.02511
1145.67471,0.02421
1143.74597,0.02312
1141.81722,0.02194
1139.88848,0.02086
1137.95973,0.02024
1136.03099,0.02010
1134.10224,0.02007
1132.17350,0.02001
1130.24475,0.02013
1128.31600,0.02070
1126.38726,0.02169
1124.45851,0.02280
1122.52977,0.02372
1120.60102,0.02453
1118.67228,0.02550
1116.74353,0.02665
1114.81479,0.02778
1112.88604,0.02871
1110.95730,0.02924
1109.02855,0.02913
1107.09981,0.02857
1105.17106,0.02808
1103.24232,0.02773
1101.31357,0.02734
1099.38483,0.02705
1097.45608,0.02692
1095.52733,0.02678
1093.59859,0.02662
1091.66984,0.02670
1089.74110,0.02739
1087.81235,0.02890
1085.88361,0.03119
1083.95486,0.03385
1082.02612,0.03619
1080.09737,0.03776
1078.16863,0.03861
1076.23988,0.03918
1074.31114,0.03977
1072.38239,0.04051
1070.45365,0.04170
1068.52490,0.04327
1066.59615,0.04469
1064.66741,0.04591
1062.73866,0.04712
1060.80992,0.04795
1058.88117,0.04812
1056.95243,0.04782
1055.02368,0.04717
1053.09494,0.04596
1051.16619,0.04438
1049.23745,0.04307
1047.30870,0.04215
1045.37996,0.04142
1043.45121,0.04093
1041.52247,0.04068
1039.59372,0.04098
1037.66498,0.04210
1035.73623,0.04367
1033.80748,0.04514
1031.87874,0.04609
1029.94999,0.04637
1028.02125,0.04619
1026.09250,0.04596
1024.16376,0.04585
1022.23501,0.04579
1020.30627,0.04597
1018.37752,0.04637
1016.44878,0.04666
1014.52003,0.04681
1012.59129,0.04671
1010.66254,0.04620
1008.73380,0.04550
1006.80505,0.04488
1004.87631,0.04455
1002.94756,0.04483
1001.01881,0.04587
999.09007,0.04742
997.16132,0.04886
995.23258,0.05000
993.30383,0.05128
991.37509,0.05263
989.44634,0.05364
987.51760,0.05469
985.58885,0.05640
983.66011,0.05880
981.73136,0.06167
979.80262,0.06488
977.87387,0.06808
975.94513,0.07059
974.01638,0.07193
972.08763,0.07228
970.15889,0.07210
968.23014,0.07207
966.30140,0.07300
964.37265,0.07506
962.44391,0.07794
960.51516,0.08146
958.58642,0.08543
956.65767,0.08967
954.72893,0.09401
952.80018,0.09805
950.87144,0.10146
948.94269,0.10419
947.01395,0.10640
945.08520,0.10820
943.15646,0.10927
941.22771,0.10940
939.29896,0.10898
937.37022,0.10838
935.44147,0.10784
933.51273,0.10769
931.58398,0.10800
929.65524,0.10832
927.72649,0.10833
925.79775,0.10812
923.86900,0.10781
921.94026,0.10735
920.01151,0.10658
918.08277,0.10508
916.15402,0.10246
914.22528,0.09883
912.29653,0.09461
910.36779,0.09030
908.43904,0.08601
906.51029,0.08153
904.58155,0.07711
902.65280,0.07306
900.72406,0.06904
898.79531,0.06534
896.86657,0.06340
894.93782,0.06439
893.00908,0.06834
891.08033,0.07423
889.15159,0.08068
887.22284,0.08685
885.29410,0.09228
883.36535,0.09674
881.43661,0.10069
879.50786,0.10448
877.57911,0.10788
875.65037,0.11066
873.72162,0.11266
871.79288,0.11406
869.86413,0.11521
867.93539,0.11599
866.00664,0.11623
864.07790,0.11594
862.14915,0.11547
860.22041,0.11495
858.29166,0.11407
856.36292,0.11286
854.43417,0.11164
852.50543,0.11061
850.57668,0.10967
848.64794,0.10861
846.71919,0.10742
844.79044,0.10610
842.86170,0.10487
840.93295,0.10386
839.00421,0.10274
837.07546,0.10135
835.14672,0.10006
833.21797,0.09930
831.28923,0.09865
829.36048,0.09752
827.43174,0.09627
825.50299,0.09518
823.57425,0.09395
821.64550,0.09258
819.71676,0.09122
817.78801,0.08983
815.85926,0.08853
813.93052,0.08755
812.00177,0.08673
810.07303,0.08570
808.14428,0.08445
806.21554,0.08300
804.28679,0.08160
802.35805,0.08068
800.42930,0.07982
798.50056,0.07884
796.57181,0.07800
794.64307,0.07696
792.71432,0.07580
790.78558,0.07498
788.85683,0.07417
786.92809,0.07294
784.99934,0.07154
783.07059,0.07046
781.14185,0.06955
779.21310,0.06836
777.28436,0.06699
775.35561,0.06578
773.42687,0.06477
771.49812,0.06378
769.56938,0.06274
767.64063,0.06196
765.71189,0.06135
763.78314,0.06045
761.85440,0.05920
759.92565,0.05803
757.99691,0.05723
756.06816,0.05646
754.13942,0.05536
752.21067,0.05402
750.28192,0.05259
748.35318,0.05134
746.42443,0.05046
744.49569,0.04985
742.56694,0.04917
740.63820,0.04825
738.70945,0.04727
736.78071,0.04653
734.85196,0.04597
732.92322,0.04508
730.99447,0.04384
729.06573,0.04281
727.13698,0.04223
725.20824,0.04162
723.27949,0.04062
721.35074,0.03958
719.42200,0.03881
717.49325,0.03851
715.56451,0.03867
713.63576,0.03871
711.70702,0.03833
709.77827,0.03793
707.84953,0.03789
705.92078,0.03815
703.99204,0.03853
702.06329,0.03879
700.13455,0.03870
698.20580,0.03841
696.27706,0.03813
694.34831,0.03784
692.41957,0.03743
690.49082,0.03725
688.56207,0.03748
686.63333,0.03766
684.70458,0.03724
682.77584,0.03646
680.84709,0.03584
678.91835,0.03539
676.98960,0.03483
675.06086,0.03440
673.13211,0.03450
671.20337,0.03521
669.27462,0.03629
667.34588,0.03730
665.41713,0.03789
663.48839,0.03785
661.55964,0.03687
659.63090,0.03555
657.70215,0.03504
655.77340,0.03563
653.84466,0.03643
651.91591,0.03626
649.98717,0.03558
648.05842,0.03572
646.12968,0.03646
644.20093,0.03643
642.27219,0.03556
640.34344,0.03487
638.41470,0.03433
636.48595,0.03336
634.55721,0.03292
632.62846,0.03426
630.69972,0.03568
628.77097,0.03545
626.84222,0.03440
624.91348,0.03353
622.98473,0.03301
621.05599,0.03320
619.12724,0.03391
617.19850,0.03433
615.26975,0.03456
613.34101,0.03551
611.41226,0.03715
609.48352,0.03837
607.55477,0.03822
605.62603,0.03738
603.69728,0.03720
601.76854,0.03756
599.83979,0.03811
