7497.03301,0.79677
7495.10426,0.79692
7493.17552,0.80295
7491.24677,0.80908
7489.31803,0.81368
7487.38928,0.81472
7485.46054,0.81228
7483.53179,0.81015
7481.60305,0.80834
7479.67430,0.80554
7477.74556,0.80171
7475.81681,0.79845
7473.88807,0.79886
7471.95932,0.80111
7470.03057,0.80221
7468.10183,0.80533
7466.17308,0.81139
7464.24434,0.81255
7462.31559,0.80615
7460.38685,0.80096
7458.45810,0.80060
7456.52936,0.80254
7454.60061,0.80562
7452.67187,0.80465
7450.74312,0.79825
7448.81438,0.79346
7446.88563,0.79193
7444.95689,0.79224
7443.02814,0.79656
7441.09940,0.80233
7439.17065,0.80343
7437.24190,0.79952
7435.31316,0.79396
7433.38441,0.78674
7431.45567,0.77988
7429.52692,0.78160
7427.59818,0.79185
7425.66943,0.79934
7423.74069,0.79815
7421.81194,0.79398
7419.88320,0.79107
7417.95445,0.78624
7416.02571,0.78126
7414.09696,0.78112
7412.16822,0.78435
7410.23947,0.78707
7408.31073,0.78789
7406.38198,0.78761
7404.45323,0.78644
7402.52449,0.78517
7400.59574,0.78316
7398.66700,0.77636
7396.73825,0.76767
7394.80951,0.76573
7392.88076,0.76989
7390.95202,0.77330
7389.02327,0.77380
7387.09453,0.77061
7385.16578,0.76779
7383.23704,0.77188
7381.30829,0.77690
7379.37955,0.77719
7377.45080,0.77715
7375.52205,0.77579
7373.59331,0.76952
7371.66456,0.76288
7369.73582,0.76279
7367.80707,0.76700
7365.87833,0.76892
7363.94958,0.76777
7362.02084,0.76321
7360.09209,0.75732
7358.16335,0.75532
7356.23460,0.75708
7354.30586,0.75985
7352.37711,0.76157
7350.44837,0.76144
7348.51962,0.76138
7346.59088,0.76111
7344.66213,0.75954
7342.73338,0.75888
7340.80464,0.75803
7338.87589,0.75422
7336.94715,0.74970
7335.01840,0.74608
7333.08966,0.74189
7331.16091,0.73748
7329.23217,0.73715
7327.30342,0.74160
7325.37468,0.74425
7323.44593,0.74290
7321.51719,0.74180
7319.58844,0.74260
7317.65970,0.74278
7315.73095,0.74196
7313.80221,0.74439
7311.87346,0.74827
7309.94471,0.74400
7308.01597,0.73318
7306.08722,0.72784
7304.15848,0.73188
7302.22973,0.74065
7300.30099,0.74666
7298.37224,0.74570
7296.44350,0.74489
7294.51475,0.74710
7292.58601,0.74599
7290.65726,0.74229
7288.72852,0.73965
7286.79977,0.73863
7284.87103,0.73921
7282.94228,0.73668
7281.01353,0.72892
7279.08479,0.72321
7277.15604,0.72443
7275.22730,0.72955
7273.29855,0.73411
7271.36981,0.73714
7269.44106,0.74095
7267.51232,0.74397
7265.58357,0.74131
7263.65483,0.73452
7261.72608,0.73097
7259.79734,0.73497
7257.86859,0.74076
7255.93985,0.74115
7254.01110,0.74043
7252.08236,0.74346
7250.15361,0.74459
7248.22486,0.74005
7246.29612,0.73435
7244.36737,0.73283
7242.43863,0.73751
7240.50988,0.74323
7238.58114,0.74284
7236.65239,0.73911
7234.72365,0.73682
7232.79490,0.73477
7230.86616,0.73294
7228.93741,0.73327
7227.00867,0.73472
7225.07992,0.73400
7223.15118,0.73088
7221.22243,0.73085
7219.29369,0.73407
7217.36494,0.73425
7215.43619,0.73277
7213.50745,0.73342
7211.57870,0.73231
7209.64996,0.72812
7207.72121,0.72611
7205.79247,0.72812
7203.86372,0.73022
7201.93498,0.73017
7200.00623,0.73049
7198.07749,0.73095
7196.14874,0.73004
7194.22000,0.72950
7192.29125,0.72904
7190.36251,0.72821
7188.43376,0.72868
7186.50501,0.72988
7184.57627,0.73012
7182.64752,0.72906
7180.71878,0.72773
7178.79003,0.72697
7176.86129,0.72763
7174.93254,0.73000
7173.00380,0.73022
7171.07505,0.72626
7169.14631,0.72172
7167.21756,0.71903
7165.28882,0.71860
7163.36007,0.71903
7161.43133,0.71693
7159.50258,0.71346
7157.57384,0.71172
7155.64509,0.71113
7153.71634,0.71180
7151.78760,0.71377
7149.85885,0.71579
7147.93011,0.71633
7146.00136,0.71412
7144.07262,0.71103
7142.14387,0.70776
7140.21513,0.70453
7138.28638,0.70527
7136.35764,0.70790
7134.42889,0.70722
7132.50015,0.70412
7130.57140,0.70049
7128.64266,0.69723
7126.71391,0.69608
7124.78516,0.69640
7122.85642,0.69532
7120.92767,0.69347
7118.99893,0.69295
7117.07018,0.69253
7115.14144,0.69198
7113.21269,0.69265
7111.28395,0.69276
7109.35520,0.69082
7107.42646,0.68939
7105.49771,0.68799
7103.56897,0.68297
7101.64022,0.67677
7099.71148,0.67300
7097.78273,0.67220
7095.85399,0.67480
7093.92524,0.67796
7091.99649,0.67767
7090.06775,0.67409
7088.13900,0.66861
7086.21026,0.66252
7084.28151,0.65961
7082.35277,0.66104
7080.42402,0.66127
7078.49528,0.65772
7076.56653,0.65358
7074.63779,0.65100
7072.70904,0.65068
7070.78030,0.65137
7068.85155,0.65021
7066.92281,0.64756
7064.99406,0.64678
7063.06532,0.64741
7061.13657,0.64528
7059.20782,0.63941
7057.27908,0.63262
7055.35033,0.62878
7053.42159,0.62781
7051.49284,0.62612
7049.56410,0.62517
7047.63535,0.62744
7045.70661,0.62891
7043.77786,0.62670
7041.84912,0.62399
7039.92037,0.62217
7037.99163,0.61952
7036.06288,0.61660
7034.13414,0.61474
7032.20539,0.61383
7030.27664,0.61344
7028.34790,0.61378
7026.41915,0.61375
7024.49041,0.61053
7022.56166,0.60585
7020.63292,0.60351
7018.70417,0.60250
7016.77543,0.60192
7014.84668,0.60225
7012.91794,0.60308
7010.98919,0.60437
7009.06045,0.60401
7007.13170,0.60018
7005.20296,0.59585
7003.27421,0.59324
7001.34547,0.59081
6999.41672,0.58894
6997.48797,0.58980
6995.55923,0.59217
6993.63048,0.59332
6991.70174,0.59301
6989.77299,0.59089
6987.84425,0.58718
6985.91550,0.58527
6983.98676,0.58586
6982.05801,0.58501
6980.12927,0.58129
6978.20052,0.57856
6976.27178,0.58008
6974.34303,0.58275
6972.41429,0.58139
6970.48554,0.57535
6968.55680,0.56903
6966.62805,0.56751
6964.69930,0.57038
6962.77056,0.57367
6960.84181,0.57602
6958.91307,0.57674
6956.98432,0.57479
6955.05558,0.57269
6953.12683,0.57237
6951.19809,0.57128
6949.26934,0.56915
6947.34060,0.56897
6945.41185,0.57046
6943.48311,0.57163
6941.55436,0.57216
6939.62562,0.57085
6937.69687,0.56756
6935.76812,0.56567
6933.83938,0.56625
6931.91063,0.56604
6929.98189,0.56340
6928.05314,0.56105
6926.12440,0.56067
6924.19565,0.56057
6922.26691,0.56017
6920.33816,0.55889
6918.40942,0.55645
6916.48067,0.55617
6914.55193,0.55939
6912.62318,0.56350
6910.69444,0.56607
6908.76569,0.56570
6906.83695,0.56315
6904.90820,0.56135
6902.97945,0.56073
6901.05071,0.55871
6899.12196,0.55562
6897.19322,0.55456
6895.26447,0.55553
6893.33573,0.55469
6891.40698,0.55211
6889.47824,0.55269
6887.54949,0.55569
6885.62075,0.55677
6883.69200,0.55664
6881.76326,0.55647
6879.83451,0.55428
6877.90577,0.55082
6875.97702,0.54948
6874.04828,0.55017
6872.11953,0.55054
6870.19078,0.54969
6868.26204,0.54869
6866.33329,0.54924
6864.40455,0.55051
6862.47580,0.55057
6860.54706,0.54956
6858.61831,0.54851
6856.68957,0.54731
6854.76082,0.54513
6852.83208,0.54195
6850.90333,0.53866
6848.97459,0.53672
6847.04584,0.53742
6845.11710,0.54123
6843.18835,0.54600
6841.25960,0.54834
6839.33086,0.54867
6837.40211,0.54833
6835.47337,0.54616
6833.54462,0.54272
6831.61588,0.54063
6829.68713,0.53998
6827.75839,0.53889
6825.82964,0.53806
6823.90090,0.53876
6821.97215,0.53894
6820.04341,0.53622
6818.11466,0.53174
6816.18592,0.52904
6814.25717,0.53015
6812.32843,0.53264
6810.39968,0.53266
6808.47093,0.53092
6806.54219,0.53141
6804.61344,0.53413
6802.68470,0.53384
6800.75595,0.52861
6798.82721,0.52414
6796.89846,0.52469
6794.96972,0.52666
6793.04097,0.52637
6791.11223,0.52590
6789.18348,0.52700
6787.25474,0.52791
6785.32599,0.52712
6783.39725,0.52531
6781.46850,0.52412
6779.53975,0.52349
6777.61101,0.52255
6775.68226,0.52136
6773.75352,0.51994
6771.82477,0.51823
6769.89603,0.51744
6767.96728,0.51904
6766.03854,0.52038
6764.10979,0.51813
6762.18105,0.51489
6760.25230,0.51423
6758.32356,0.51404
6756.39481,0.51121
6754.46607,0.50904
6752.53732,0.51068
6750.60858,0.51280
6748.67983,0.51380
6746.75108,0.51508
6744.82234,0.51553
6742.89359,0.51505
6740.96485,0.51599
6739.03610,0.51766
6737.10736,0.51701
6735.17861,0.51488
6733.24987,0.51538
6731.32112,0.51936
6729.39238,0.52135
6727.46363,0.51848
6725.53489,0.51626
6723.60614,0.51771
6721.67740,0.51947
6719.74865,0.51888
6717.81991,0.51687
6715.89116,0.51664
6713.96241,0.51758
6712.03367,0.51663
6710.10492,0.51582
6708.17618,0.51726
6706.24743,0.51803
6704.31869,0.51712
6702.38994,0.51680
6700.46120,0.51701
6698.53245,0.51673
6696.60371,0.51658
6694.67496,0.51606
6692.74622,0.51435
6690.81747,0.51279
6688.88873,0.51295
6686.95998,0.51517
6685.03123,0.51798
6683.10249,0.51815
6681.17374,0.51447
6679.24500,0.51164
6677.31625,0.51433
6675.38751,0.51900
6673.45876,0.52031
6671.53002,0.51951
6669.60127,0.51959
6667.67253,0.51997
6665.74378,0.51886
6663.81504,0.51625
6661.88629,0.51441
6659.95755,0.51472
6658.02880,0.51586
6656.10006,0.51672
6654.17131,0.51729
6652.24256,0.51748
6650.31382,0.51752
6648.38507,0.51822
6646.45633,0.52011
6644.52758,0.52169
6642.59884,0.52166
6640.67009,0.52171
6638.74135,0.52236
6636.81260,0.52243
6634.88386,0.52267
6632.95511,0.52353
6631.02637,0.52418
6629.09762,0.52482
6627.16888,0.52548
6625.24013,0.52586
6623.31139,0.52667
6621.38264,0.52814
6619.45389,0.52890
6617.52515,0.52859
6615.59640,0.52921
6613.66766,0.53076
6611.73891,0.53149
6609.81017,0.53214
6607.88142,0.53298
6605.95268,0.53231
6604.02393,0.53004
6602.09519,0.52786
6600.16644,0.52781
6598.23770,0.52999
6596.30895,0.53194
6594.38021,0.53181
6592.45146,0.53097
6590.52271,0.53226
6588.59397,0.53500
6586.66522,0.53556
6584.73648,0.53435
6582.80773,0.53429
6580.87899,0.53517
6578.95024,0.53613
6577.02150,0.53685
6575.09275,0.53558
6573.16401,0.53342
6571.23526,0.53445
6569.30652,0.53771
6567.37777,0.53921
6565.44903,0.53887
6563.52028,0.53738
6561.59154,0.53515
6559.66279,0.53416
6557.73404,0.53481
6555.80530,0.53561
6553.87655,0.53574
6551.94781,0.53529
6550.01906,0.53435
6548.09032,0.53333
6546.16157,0.53337
6544.23283,0.53492
6542.30408,0.53717
6540.37534,0.53798
6538.44659,0.53583
6536.51785,0.53373
6534.58910,0.53528
6532.66036,0.53850
6530.73161,0.53912
6528.80287,0.53661
6526.87412,0.53451
6524.94537,0.53484
6523.01663,0.53615
6521.08788,0.53764
6519.15914,0.53901
6517.23039,0.53929
6515.30165,0.53894
6513.37290,0.53828
6511.44416,0.53630
6509.51541,0.53396
6507.58667,0.53437
6505.65792,0.53731
6503.72918,0.53903
6501.80043,0.53774
6499.87169,0.53565
6497.94294,0.53598
6496.01419,0.53776
6494.08545,0.53747
6492.15670,0.53506
6490.22796,0.53329
6488.29921,0.53398
6486.37047,0.53629
6484.44172,0.53680
6482.51298,0.53459
6480.58423,0.53357
6478.65549,0.53469
6476.72674,0.53545
6474.79800,0.53663
6472.86925,0.53884
6470.94051,0.54048
6469.01176,0.54112
6467.08302,0.54042
6465.15427,0.53838
6463.22552,0.53690
6461.29678,0.53713
6459.36803,0.53864
6457.43929,0.54108
6455.51054,0.54243
6453.58180,0.54096
6451.65305,0.53862
6449.72431,0.53708
6447.79556,0.53639
6445.86682,0.53677
6443.93807,0.53781
6442.00933,0.53833
6440.08058,0.53771
6438.15184,0.53731
6436.22309,0.53900
6434.29434,0.54197
6432.36560,0.54303
6430.43685,0.54249
6428.50811,0.54376
6426.57936,0.54530
6424.65062,0.54396
6422.72187,0.54144
6420.79313,0.54017
6418.86438,0.54063
6416.93564,0.54150
6415.00689,0.54149
6413.07815,0.54177
6411.14940,0.54210
6409.22066,0.54124
6407.29191,0.54102
6405.36317,0.54122
6403.43442,0.53977
6401.50567,0.53850
6399.57693,0.53924
6397.64818,0.54128
6395.71944,0.54351
6393.79069,0.54409
6391.86195,0.54226
6389.93320,0.54059
6388.00446,0.54161
6386.07571,0.54384
6384.14697,0.54370
6382.21822,0.54069
6380.28948,0.53821
6378.36073,0.53900
6376.43199,0.54208
6374.50324,0.54403
6372.57450,0.54342
6370.64575,0.54202
6368.71700,0.54103
6366.78826,0.54063
6364.85951,0.54024
6362.93077,0.53973
6361.00202,0.54140
6359.07328,0.54467
6357.14453,0.54628
6355.21579,0.54657
6353.28704,0.54724
6351.35830,0.54721
6349.42955,0.54489
6347.50081,0.54165
6345.57206,0.54029
6343.64332,0.54153
6341.71457,0.54300
6339.78582,0.54234
6337.85708,0.54069
6335.92833,0.54058
6333.99959,0.54226
6332.07084,0.54374
6330.14210,0.54415
6328.21335,0.54429
6326.28461,0.54405
6324.35586,0.54320
6322.42712,0.54266
6320.49837,0.54331
6318.56963,0.54446
6316.64088,0.54548
6314.71214,0.54729
6312.78339,0.54905
6310.85465,0.54878
6308.92590,0.54753
6306.99715,0.54711
6305.06841,0.54703
6303.13966,0.54687
6301.21092,0.54697
6299.28217,0.54682
6297.35343,0.54694
6295.42468,0.54819
6293.49594,0.54960
6291.56719,0.55034
6289.63845,0.55040
6287.70970,0.55004
6285.78096,0.54983
6283.85221,0.54987
6281.92347,0.55011
6279.99472,0.55060
6278.06598,0.55087
6276.13723,0.55094
6274.20848,0.55108
6272.27974,0.55146
6270.35099,0.55293
6268.42225,0.55480
6266.49350,0.55555
6264.56476,0.55571
6262.63601,0.55606
6260.70727,0.55667
6258.77852,0.55818
6256.84978,0.56120
6254.92103,0.56383
6252.99229,0.56342
6251.06354,0.56118
6249.13480,0.55973
6247.20605,0.55969
6245.27730,0.56170
6243.34856,0.56562
6241.41981,0.56803
6239.49107,0.56722
6237.56232,0.56588
6235.63358,0.56564
6233.70483,0.56650
6231.77609,0.56867
6229.84734,0.57106
6227.91860,0.57255
6225.98985,0.57305
6224.06111,0.57226
6222.13236,0.57175
6220.20362,0.57433
6218.27487,0.57841
6216.34613,0.58041
6214.41738,0.58050
6212.48863,0.58048
6210.55989,0.58068
6208.63114,0.58039
6206.70240,0.57987
6204.77365,0.58027
6202.84491,0.58186
6200.91616,0.58400
6198.98742,0.58514
6197.05867,0.58460
6195.12993,0.58450
6193.20118,0.58588
6191.27244,0.58690
6189.34369,0.58699
6187.41495,0.58714
6185.48620,0.58744
6183.55746,0.58808
6181.62871,0.58978
6179.69996,0.59282
6177.77122,0.59568
6175.84247,0.59568
6173.91373,0.59391
6171.98498,0.59429
6170.05624,0.59683
6168.12749,0.59872
6166.19875,0.59914
6164.27000,0.59914
6162.34126,0.59987
6160.41251,0.60158
6158.48377,0.60367
6156.55502,0.60528
6154.62628,0.60503
6152.69753,0.60341
6150.76878,0.60323
6148.84004,0.60500
6146.91129,0.60670
6144.98255,0.60755
6143.05380,0.60825
6141.12506,0.60917
6139.19631,0.60979
6137.26757,0.60994
6135.33882,0.61061
6133.41008,0.61152
6131.48133,0.61112
6129.55259,0.61013
6127.62384,0.61035
6125.69510,0.61179
6123.76635,0.61313
6121.83761,0.61381
6119.90886,0.61399
6117.98011,0.61423
6116.05137,0.61548
6114.12262,0.61743
6112.19388,0.61898
6110.26513,0.62005
6108.33639,0.62073
6106.40764,0.62100
6104.47890,0.62113
6102.55015,0.62164
6100.62141,0.62254
6098.69266,0.62388
6096.76392,0.62553
6094.83517,0.62652
6092.90643,0.62693
6090.97768,0.62700
6089.04893,0.62652
6087.12019,0.62625
6085.19144,0.62651
6083.26270,0.62724
6081.33395,0.62823
6079.40521,0.62929
6077.47646,0.63051
6075.54772,0.63062
6073.61897,0.62940
6071.69023,0.62982
6069.76148,0.63236
6067.83274,0.63421
6065.90399,0.63488
6063.97525,0.63547
6062.04650,0.63576
6060.11776,0.63559
6058.18901,0.63594
6056.26026,0.63757
6054.33152,0.63964
6052.40277,0.64092
6050.47403,0.64145
6048.54528,0.64161
6046.61654,0.64163
6044.68779,0.64134
6042.75905,0.64049
6040.83030,0.64033
6038.90156,0.64168
6036.97281,0.64329
6035.04407,0.64475
6033.11532,0.64662
6031.18658,0.64813
6029.25783,0.64828
6027.32909,0.64815
6025.40034,0.64885
6023.47159,0.64920
6021.54285,0.64864
6019.61410,0.64812
6017.68536,0.64760
6015.75661,0.64653
6013.82787,0.64582
6011.89912,0.64602
6009.97038,0.64626
6008.04163,0.64682
6006.11289,0.64863
6004.18414,0.65110
6002.25540,0.65296
6000.32665,0.65381
5998.39791,0.65445
5996.46916,0.65569
5994.54041,0.65665
5992.61167,0.65591
5990.68292,0.65423
5988.75418,0.65352
5986.82543,0.65411
5984.89669,0.65580
5982.96794,0.65800
5981.03920,0.65900
5979.11045,0.65850
5977.18171,0.65720
5975.25296,0.65593
5973.32422,0.65656
5971.39547,0.65838
5969.46673,0.65820
5967.53798,0.65737
5965.60924,0.65917
5963.68049,0.66143
5961.75174,0.66071
5959.82300,0.65812
5957.89425,0.65624
5955.96551,0.65567
5954.03676,0.65588
5952.10802,0.65621
5950.17927,0.65654
5948.25053,0.65668
5946.32178,0.65589
5944.39304,0.65488
5942.46429,0.65513
5940.53555,0.65609
5938.60680,0.65603
5936.67806,0.65442
5934.74931,0.65274
5932.82057,0.65272
5930.89182,0.65321
5928.96307,0.65155
5927.03433,0.64901
5925.10558,0.64873
5923.17684,0.64987
5921.24809,0.65035
5919.31935,0.65053
5917.39060,0.65082
5915.46186,0.65019
5913.53311,0.64870
5911.60437,0.64817
5909.67562,0.64882
5907.74688,0.64887
5905.81813,0.64797
5903.88939,0.64708
5901.96064,0.64621
5900.03189,0.64509
5898.10315,0.64412
5896.17440,0.64336
5894.24566,0.64305
5892.31691,0.64337
5890.38817,0.64337
5888.45942,0.64208
5886.53068,0.63975
5884.60193,0.63795
5882.67319,0.63814
5880.74444,0.63915
5878.81570,0.63820
5876.88695,0.63569
5874.95821,0.63447
5873.02946,0.63426
5871.10072,0.63340
5869.17197,0.63246
5867.24322,0.63206
5865.31448,0.63166
5863.38573,0.63112
5861.45699,0.63090
5859.52824,0.63131
5857.59950,0.63195
5855.67075,0.63235
5853.74201,0.63285
5851.81326,0.63411
5849.88452,0.63575
5847.95577,0.63628
5846.02703,0.63512
5844.09828,0.63322
5842.16954,0.63190
5840.24079,0.63224
5838.31205,0.63371
5836.38330,0.63406
5834.45455,0.63250
5832.52581,0.63035
5830.59706,0.62902
5828.66832,0.62903
5826.73957,0.62978
5824.81083,0.63064
5822.88208,0.63112
5820.95334,0.63031
5819.02459,0.62870
5817.09585,0.62790
5815.16710,0.62781
5813.23836,0.62758
5811.30961,0.62742
5809.38087,0.62725
5807.45212,0.62701
5805.52337,0.62749
5803.59463,0.62858
5801.66588,0.62956
5799.73714,0.62998
5797.80839,0.62952
5795.87965,0.62845
5793.95090,0.62692
5792.02216,0.62604
5790.09341,0.62678
5788.16467,0.62689
5786.23592,0.62534
5784.30718,0.62495
5782.37843,0.62637
5780.44969,0.62695
5778.52094,0.62591
5776.59220,0.62553
5774.66345,0.62635
5772.73470,0.62624
5770.80596,0.62489
5768.87721,0.62366
5766.94847,0.62372
5765.01972,0.62540
5763.09098,0.62654
5761.16223,0.62570
5759.23349,0.62477
5757.30474,0.62508
5755.37600,0.62578
5753.44725,0.62598
5751.51851,0.62537
5749.58976,0.62427
5747.66102,0.62347
5745.73227,0.62326
5743.80352,0.62345
5741.87478,0.62364
5739.94603,0.62327
5738.01729,0.62261
5736.08854,0.62189
5734.15980,0.62079
5732.23105,0.61968
5730.30231,0.61916
5728.37356,0.61971
5726.44482,0.62121
5724.51607,0.62237
5722.58733,0.62254
5720.65858,0.62215
5718.72984,0.62144
5716.80109,0.62055
5714.87235,0.61961
5712.94360,0.61901
5711.01485,0.61888
5709.08611,0.61854
5707.15736,0.61824
5705.22862,0.61854
5703.29987,0.61881
5701.37113,0.61896
5699.44238,0.61945
5697.51364,0.61975
5695.58489,0.61931
5693.65615,0.61806
5691.72740,0.61636
5689.79866,0.61552
5687.86991,0.61596
5685.94117,0.61629
5684.01242,0.61570
5682.08368,0.61449
5680.15493,0.61365
5678.22618,0.61412
5676.29744,0.61519
5674.36869,0.61522
5672.43995,0.61431
5670.51120,0.61390
5668.58246,0.61415
5666.65371,0.61433
5664.72497,0.61419
5662.79622,0.61355
5660.86748,0.61276
5658.93873,0.61255
5657.00999,0.61284
5655.08124,0.61295
5653.15250,0.61256
5651.22375,0.61206
5649.29500,0.61200
5647.36626,0.61246
5645.43751,0.61280
5643.50877,0.61230
5641.58002,0.61144
5639.65128,0.61096
5637.72253,0.61057
5635.79379,0.61056
5633.86504,0.61158
5631.93630,0.61243
5630.00755,0.61169
5628.07881,0.61033
5626.15006,0.60958
5624.22132,0.60893
5622.29257,0.60816
5620.36383,0.60830
5618.43508,0.60922
5616.50633,0.60975
5614.57759,0.61009
5612.64884,0.61084
5610.72010,0.61129
5608.79135,0.61125
5606.86261,0.61143
5604.93386,0.61201
5603.00512,0.61287
5601.07637,0.61326
5599.14763,0.61246
5597.21888,0.61105
5595.29014,0.61002
5593.36139,0.60992
5591.43265,0.61044
5589.50390,0.61111
5587.57516,0.61180
5585.64641,0.61243
5583.71766,0.61310
5581.78892,0.61338
5579.86017,0.61311
5577.93143,0.61310
5576.00268,0.61368
5574.07394,0.61472
5572.14519,0.61564
5570.21645,0.61589
5568.28770,0.61609
5566.35896,0.61624
5564.43021,0.61575
5562.50147,0.61484
5560.57272,0.61396
5558.64398,0.61364
5556.71523,0.61423
5554.78648,0.61499
5552.85774,0.61531
5550.92899,0.61612
5549.00025,0.61747
5547.07150,0.61766
5545.14276,0.61680
5543.21401,0.61637
5541.28527,0.61628
5539.35652,0.61615
5537.42778,0.61636
5535.49903,0.61640
5533.57029,0.61587
5531.64154,0.61570
5529.71280,0.61573
5527.78405,0.61510
5525.85531,0.61440
5523.92656,0.61435
5521.99781,0.61444
5520.06907,0.61448
5518.14032,0.61500
5516.21158,0.61571
5514.28283,0.61627
5512.35409,0.61677
5510.42534,0.61661
5508.49660,0.61609
5506.56785,0.61577
5504.63911,0.61505
5502.71036,0.61427
5500.78162,0.61432
5498.85287,0.61499
5496.92413,0.61571
5494.99538,0.61607
5493.06664,0.61595
5491.13789,0.61537
5489.20914,0.61473
5487.28040,0.61466
5485.35165,0.61506
5483.42291,0.61551
5481.49416,0.61590
5479.56542,0.61633
5477.63667,0.61651
5475.70793,0.61597
5473.77918,0.61563
5471.85044,0.61614
5469.92169,0.61638
5467.99295,0.61620
5466.06420,0.61656
5464.13546,0.61696
5462.20671,0.61664
5460.27796,0.61633
5458.34922,0.61696
5456.42047,0.61806
5454.49173,0.61859
5452.56298,0.61884
5450.63424,0.61943
5448.70549,0.62028
5446.77675,0.62125
5444.84800,0.62157
5442.91926,0.62127
5440.99051,0.62166
5439.06177,0.62262
5437.13302,0.62340
5435.20428,0.62402
5433.27553,0.62471
5431.34679,0.62556
5429.41804,0.62596
5427.48929,0.62593
5425.56055,0.62672
5423.63180,0.62807
5421.70306,0.62876
5419.77431,0.62876
5417.84557,0.62876
5415.91682,0.62933
5413.98808,0.63074
5412.05933,0.63226
5410.13059,0.63291
5408.20184,0.63297
5406.27310,0.63291
5404.34435,0.63278
5402.41561,0.63298
5400.48686,0.63354
5398.55811,0.63370
5396.62937,0.63327
5394.70062,0.63312
5392.77188,0.63376
5390.84313,0.63450
5388.91439,0.63507
5386.98564,0.63567
5385.05690,0.63602
5383.12815,0.63610
5381.19941,0.63595
5379.27066,0.63604
5377.34192,0.63723
5375.41317,0.63810
5373.48443,0.63712
5371.55568,0.63593
5369.62694,0.63563
5367.69819,0.63520
5365.76944,0.63433
5363.84070,0.63401
5361.91195,0.63444
5359.98321,0.63466
5358.05446,0.63463
5356.12572,0.63494
5354.19697,0.63526
5352.26823,0.63512
5350.33948,0.63491
5348.41074,0.63475
5346.48199,0.63380
5344.55325,0.63212
5342.62450,0.63078
5340.69576,0.62986
5338.76701,0.62925
5336.83827,0.62891
5334.90952,0.62825
5332.98077,0.62744
5331.05203,0.62724
5329.12328,0.62739
5327.19454,0.62701
5325.26579,0.62598
5323.33705,0.62445
5321.40830,0.62245
5319.47956,0.62071
5317.55081,0.62000
5315.62207,0.61965
5313.69332,0.61865
5311.76458,0.61709
5309.83583,0.61497
5307.90709,0.61206
5305.97834,0.60952
5304.04959,0.60782
5302.12085,0.60581
5300.19210,0.60344
5298.26336,0.60172
5296.33461,0.60064
5294.40587,0.59912
5292.47712,0.59647
5290.54838,0.59309
5288.61963,0.59004
5286.69089,0.58772
5284.76214,0.58548
5282.83340,0.58277
5280.90465,0.57963
5278.97591,0.57652
5277.04716,0.57346
5275.11842,0.57012
5273.18967,0.56680
5271.26092,0.56378
5269.33218,0.56108
5267.40343,0.55858
5265.47469,0.55567
5263.54594,0.55209
5261.61720,0.54803
5259.68845,0.54396
5257.75971,0.54046
5255.83096,0.53761
5253.90222,0.53467
5251.97347,0.53099
5250.04473,0.52717
5248.11598,0.52376
5246.18724,0.52063
5244.25849,0.51812
5242.32975,0.51624
5240.40100,0.51415
5238.47225,0.51129
5236.54351,0.50792
5234.61476,0.50478
5232.68602,0.50244
5230.75727,0.50079
5228.82853,0.49935
5226.89978,0.49777
5224.97104,0.49576
5223.04229,0.49360
5221.11355,0.49180
5219.18480,0.49001
5217.25606,0.48776
5215.32731,0.48550
5213.39857,0.48390
5211.46982,0.48274
5209.54107,0.48148
5207.61233,0.47998
5205.68358,0.47812
5203.75484,0.47626
5201.82609,0.47539
5199.89735,0.47588
5197.96860,0.47661
5196.03986,0.47638
5194.11111,0.47522
5192.18237,0.47358
5190.25362,0.47243
5188.32488,0.47253
5186.39613,0.47272
5184.46739,0.47216
5182.53864,0.47192
5180.60990,0.47251
5178.68115,0.47293
5176.75240,0.47243
5174.82366,0.47159
5172.89491,0.47157
5170.96617,0.47246
5169.03742,0.47322
5167.10868,0.47359
5165.17993,0.47388
5163.25119,0.47422
5161.32244,0.47488
5159.39370,0.47554
5157.46495,0.47567
5155.53621,0.47577
5153.60746,0.47654
5151.67872,0.47776
5149.74997,0.47887
5147.82123,0.47952
5145.89248,0.47984
5143.96373,0.48034
5142.03499,0.48123
5140.10624,0.48209
5138.17750,0.48251
5136.24875,0.48315
5134.32001,0.48484
5132.39126,0.48670
5130.46252,0.48768
5128.53377,0.48839
5126.60503,0.48915
5124.67628,0.48948
5122.74754,0.48982
5120.81879,0.49088
5118.89005,0.49241
5116.96130,0.49392
5115.03255,0.49522
5113.10381,0.49617
5111.17506,0.49688
5109.24632,0.49789
5107.31757,0.49943
5105.38883,0.50093
5103.46008,0.50185
5101.53134,0.50245
5099.60259,0.50343
5097.67385,0.50499
5095.74510,0.50613
5093.81636,0.50628
5091.88761,0.50665
5089.95887,0.50782
5088.03012,0.50868
5086.10138,0.50918
5084.17263,0.51007
5082.24388,0.51095
5080.31514,0.51171
5078.38639,0.51302
5076.45765,0.51426
5074.52890,0.51475
5072.60016,0.51538
5070.67141,0.51684
5068.74267,0.51842
5066.81392,0.51937
5064.88518,0.51992
5062.95643,0.52067
5061.02769,0.52156
5059.09894,0.52219
5057.17020,0.52251
5055.24145,0.52274
5053.31270,0.52324
5051.38396,0.52455
5049.45521,0.52641
5047.52647,0.52757
5045.59772,0.52765
5043.66898,0.52772
5041.74023,0.52851
5039.81149,0.52969
5037.88274,0.53087
5035.95400,0.53204
5034.02525,0.53309
5032.09651,0.53378
5030.16776,0.53397
5028.23902,0.53399
5026.31027,0.53453
5024.38153,0.53575
5022.45278,0.53678
5020.52403,0.53714
5018.59529,0.53752
5016.66654,0.53795
5014.73780,0.53804
5012.80905,0.53821
5010.88031,0.53882
5008.95156,0.53971
5007.02282,0.54061
5005.09407,0.54134
5003.16533,0.54187
5001.23658,0.54201
4999.30784,0.54162
4997.37909,0.54097
4995.45035,0.54061
4993.52160,0.54105
4991.59286,0.54188
4989.66411,0.54212
4987.73536,0.54196
4985.80662,0.54195
4983.87787,0.54184
4981.94913,0.54129
4980.02038,0.54041
4978.09164,0.53979
4976.16289,0.53964
4974.23415,0.53956
4972.30540,0.53923
4970.37666,0.53875
4968.44791,0.53806
4966.51917,0.53699
4964.59042,0.53581
4962.66168,0.53524
4960.73293,0.53547
4958.80418,0.53559
4956.87544,0.53480
4954.94669,0.53336
4953.01795,0.53187
4951.08920,0.53063
4949.16046,0.52971
4947.23171,0.52885
4945.30297,0.52752
4943.37422,0.52575
4941.44548,0.52407
4939.51673,0.52262
4937.58799,0.52140
4935.65924,0.52040
4933.73050,0.51899
4931.80175,0.51664
4929.87301,0.51417
4927.94426,0.51226
4926.01551,0.51042
4924.08677,0.50875
4922.15802,0.50754
4920.22928,0.50584
4918.30053,0.50336
4916.37179,0.50104
4914.44304,0.49903
4912.51430,0.49713
4910.58555,0.49551
4908.65681,0.49381
4906.72806,0.49158
4904.79932,0.48912
4902.87057,0.48681
4900.94183,0.48439
4899.01308,0.48181
4897.08434,0.47940
4895.15559,0.47685
4893.22684,0.47391
4891.29810,0.47127
4889.36935,0.46929
4887.44061,0.46765
4885.51186,0.46602
4883.58312,0.46420
4881.65437,0.46212
4879.72563,0.45954
4877.79688,0.45652
4875.86814,0.45392
4873.93939,0.45196
4872.01065,0.45006
4870.08190,0.44822
4868.15316,0.44659
4866.22441,0.44482
4864.29566,0.44283
4862.36692,0.44097
4860.43817,0.43939
4858.50943,0.43792
4856.58068,0.43660
4854.65194,0.43503
4852.72319,0.43332
4850.79445,0.43235
4848.86570,0.43173
4846.93696,0.43049
4845.00821,0.42877
4843.07947,0.42701
4841.15072,0.42543
4839.22198,0.42389
4837.29323,0.42211
4835.36449,0.42033
4833.43574,0.41892
4831.50699,0.41770
4829.57825,0.41648
4827.64950,0.41524
4825.72076,0.41362
4823.79201,0.41167
4821.86327,0.40997
4819.93452,0.40854
4818.00578,0.40741
4816.07703,0.40653
4814.14829,0.40521
4812.21954,0.40332
4810.29080,0.40186
4808.36205,0.40127
4806.43331,0.40089
4804.50456,0.40030
4802.57582,0.39977
4800.64707,0.39913
4798.71832,0.39819
4796.78958,0.39735
4794.86083,0.39671
4792.93209,0.39606
4791.00334,0.39519
4789.07460,0.39412
4787.14585,0.39339
4785.21711,0.39302
4783.28836,0.39254
4781.35962,0.39207
4779.43087,0.39176
4777.50213,0.39135
4775.57338,0.39077
4773.64464,0.39024
4771.71589,0.38987
4769.78714,0.38969
4767.85840,0.38960
4765.92965,0.38941
4764.00091,0.38905
4762.07216,0.38843
4760.14342,0.38754
4758.21467,0.38691
4756.28593,0.38695
4754.35718,0.38741
4752.42844,0.38788
4750.49969,0.38835
4748.57095,0.38896
4746.64220,0.38951
4744.71346,0.38973
4742.78471,0.39002
4740.85597,0.39069
4738.92722,0.39129
4736.99847,0.39173
4735.06973,0.39233
4733.14098,0.39293
4731.21224,0.39336
4729.28349,0.39368
4727.35475,0.39393
4725.42600,0.39442
4723.49726,0.39534
4721.56851,0.39642
4719.63977,0.39747
4717.71102,0.39848
4715.78228,0.39946
4713.85353,0.40030
4711.92479,0.40059
4709.99604,0.40050
4708.06729,0.40076
4706.13855,0.40170
4704.20980,0.40299
4702.28106,0.40425
4700.35231,0.40531
4698.42357,0.40598
4696.49482,0.40657
4694.56608,0.40783
4692.63733,0.40980
4690.70859,0.41145
4688.77984,0.41221
4686.85110,0.41276
4684.92235,0.41371
4682.99361,0.41502
4681.06486,0.41620
4679.13612,0.41698
4677.20737,0.41784
4675.27862,0.41880
4673.34988,0.41928
4671.42113,0.41942
4669.49239,0.41990
4667.56364,0.42091
4665.63490,0.42215
4663.70615,0.42329
4661.77741,0.42431
4659.84866,0.42520
4657.91992,0.42592
4655.99117,0.42657
4654.06243,0.42741
4652.13368,0.42873
4650.20494,0.43016
4648.27619,0.43102
4646.34745,0.43126
4644.41870,0.43153
4642.48995,0.43222
4640.56121,0.43293
4638.63246,0.43352
4636.70372,0.43432
4634.77497,0.43516
4632.84623,0.43592
4630.91748,0.43706
4628.98874,0.43872
4627.05999,0.43999
4625.13125,0.44033
4623.20250,0.44052
4621.27376,0.44130
4619.34501,0.44230
4617.41627,0.44294
4615.48752,0.44349
4613.55877,0.44462
4611.63003,0.44615
4609.70128,0.44717
4607.77254,0.44759
4605.84379,0.44813
4603.91505,0.44903
4601.98630,0.45023
4600.05756,0.45151
4598.12881,0.45242
4596.20007,0.45292
4594.27132,0.45343
4592.34258,0.45424
4590.41383,0.45528
4588.48509,0.45619
4586.55634,0.45693
4584.62760,0.45759
4582.69885,0.45804
4580.77010,0.45840
4578.84136,0.45909
4576.91261,0.46019
4574.98387,0.46134
4573.05512,0.46230
4571.12638,0.46326
4569.19763,0.46448
4567.26889,0.46572
4565.34014,0.46652
4563.41140,0.46704
4561.48265,0.46781
4559.55391,0.46893
4557.62516,0.47004
4555.69642,0.47103
4553.76767,0.47195
4551.83893,0.47261
4549.91018,0.47289
4547.98143,0.47306
4546.05269,0.47367
4544.12394,0.47468
4542.19520,0.47534
4540.26645,0.47574
4538.33771,0.47647
4536.40896,0.47744
4534.48022,0.47828
4532.55147,0.47873
4530.62273,0.47899
4528.69398,0.47954
4526.76524,0.48027
4524.83649,0.48078
4522.90775,0.48116
4520.97900,0.48162
4519.05025,0.48203
4517.12151,0.48241
4515.19276,0.48291
4513.26402,0.48332
4511.33527,0.48337
4509.40653,0.48342
4507.47778,0.48392
4505.54904,0.48479
4503.62029,0.48557
4501.69155,0.48584
4499.76280,0.48552
4497.83406,0.48512
4495.90531,0.48505
4493.97657,0.48548
4492.04782,0.48622
4490.11908,0.48660
4488.19033,0.48639
4486.26158,0.48608
4484.33284,0.48606
4482.40409,0.48614
4480.47535,0.48603
4478.54660,0.48605
4476.61786,0.48633
4474.68911,0.48625
4472.76037,0.48559
4470.83162,0.48490
4468.90288,0.48458
4466.97413,0.48432
4465.04539,0.48366
4463.11664,0.48254
4461.18790,0.48111
4459.25915,0.47944
4457.33041,0.47762
4455.40166,0.47578
4453.47291,0.47405
4451.54417,0.47217
4449.61542,0.46982
4447.68668,0.46730
4445.75793,0.46485
4443.82919,0.46218
4441.90044,0.45932
4439.97170,0.45653
4438.04295,0.45389
4436.11421,0.45110
4434.18546,0.44776
4432.25672,0.44403
4430.32797,0.44047
4428.39923,0.43722
4426.47048,0.43397
4424.54173,0.43064
4422.61299,0.42731
4420.68424,0.42400
4418.75550,0.42076
4416.82675,0.41776
4414.89801,0.41498
4412.96926,0.41232
4411.04052,0.40986
4409.11177,0.40748
4407.18303,0.40510
4405.25428,0.40312
4403.32554,0.40159
4401.39679,0.40030
4399.46805,0.39950
4397.53930,0.39917
4395.61056,0.39901
4393.68181,0.39936
4391.75306,0.40020
4389.82432,0.40084
4387.89557,0.40125
4385.96683,0.40192
4384.03808,0.40297
4382.10934,0.40435
4380.18059,0.40612
4378.25185,0.40799
4376.32310,0.40940
4374.39436,0.41028
4372.46561,0.41096
4370.53687,0.41169
4368.60812,0.41251
4366.67938,0.41311
4364.75063,0.41334
4362.82189,0.41342
4360.89314,0.41318
4358.96439,0.41229
4357.03565,0.41125
4355.10690,0.41059
4353.17816,0.41005
4351.24941,0.40935
4349.32067,0.40855
4347.39192,0.40747
4345.46318,0.40616
4343.53443,0.40510
4341.60569,0.40424
4339.67694,0.40328
4337.74820,0.40247
4335.81945,0.40179
4333.89071,0.40076
4331.96196,0.39929
4330.03321,0.39763
4328.10447,0.39597
4326.17572,0.39415
4324.24698,0.39235
4322.31823,0.39104
4320.38949,0.38995
4318.46074,0.38881
4316.53200,0.38805
4314.60325,0.38746
4312.67451,0.38641
4310.74576,0.38532
4308.81702,0.38448
4306.88827,0.38337
4304.95953,0.38196
4303.03078,0.38077
4301.10204,0.37976
4299.17329,0.37870
4297.24454,0.37763
4295.31580,0.37647
4293.38705,0.37521
4291.45831,0.37414
4289.52956,0.37344
4287.60082,0.37273
4285.67207,0.37160
4283.74333,0.37044
4281.81458,0.36971
4279.88584,0.36909
4277.95709,0.36839
4276.02835,0.36795
4274.09960,0.36777
4272.17086,0.36746
4270.24211,0.36712
4268.31336,0.36718
4266.38462,0.36753
4264.45587,0.36784
4262.52713,0.36815
4260.59838,0.36835
4258.66964,0.36826
4256.74089,0.36822
4254.81215,0.36840
4252.88340,0.36848
4250.95466,0.36831
4249.02591,0.36808
4247.09717,0.36782
4245.16842,0.36763
4243.23968,0.36790
4241.31093,0.36857
4239.38219,0.36905
4237.45344,0.36939
4235.52469,0.37011
4233.59595,0.37102
4231.66720,0.37170
4229.73846,0.37220
4227.80971,0.37277
4225.88097,0.37340
4223.95222,0.37387
4222.02348,0.37411
4220.09473,0.37406
4218.16599,0.37365
4216.23724,0.37310
4214.30850,0.37281
4212.37975,0.37304
4210.45101,0.37381
4208.52226,0.37480
4206.59352,0.37576
4204.66477,0.37666
4202.73602,0.37739
4200.80728,0.37807
4198.87853,0.37904
4196.94979,0.38011
4195.02104,0.38070
4193.09230,0.38082
4191.16355,0.38079
4189.23481,0.38060
4187.30606,0.38031
4185.37732,0.38017
4183.44857,0.38025
4181.51983,0.38048
4179.59108,0.38071
4177.66234,0.38074
4175.73359,0.38063
4173.80484,0.38075
4171.87610,0.38121
4169.94735,0.38175
4168.01861,0.38237
4166.08986,0.38304
4164.16112,0.38333
4162.23237,0.38323
4160.30363,0.38303
4158.37488,0.38264
4156.44614,0.38202
4154.51739,0.38126
4152.58865,0.38046
4150.65990,0.37977
4148.73116,0.37919
4146.80241,0.37840
4144.87367,0.37716
4142.94492,0.37586
4141.01617,0.37502
4139.08743,0.37464
4137.15868,0.37439
4135.22994,0.37400
4133.30119,0.37336
4131.37245,0.37255
4129.44370,0.37180
4127.51496,0.37112
4125.58621,0.37012
4123.65747,0.36861
4121.72872,0.36674
4119.79998,0.36482
4117.87123,0.36312
4115.94249,0.36156
4114.01374,0.35993
4112.08500,0.35829
4110.15625,0.35671
4108.22750,0.35512
4106.29876,0.35347
4104.37001,0.35156
4102.44127,0.34926
4100.51252,0.34683
4098.58378,0.34441
4096.65503,0.34201
4094.72629,0.33986
4092.79754,0.33774
4090.86880,0.33531
4088.94005,0.33301
4087.01131,0.33109
4085.08256,0.32910
4083.15382,0.32696
4081.22507,0.32508
4079.29632,0.32329
4077.36758,0.32120
4075.43883,0.31874
4073.51009,0.31625
4071.58134,0.31403
4069.65260,0.31192
4067.72385,0.30979
4065.79511,0.30775
4063.86636,0.30566
4061.93762,0.30324
4060.00887,0.30071
4058.08013,0.29843
4056.15138,0.29617
4054.22264,0.29371
4052.29389,0.29126
4050.36515,0.28895
4048.43640,0.28660
4046.50765,0.28405
4044.57891,0.28152
4042.65016,0.27960
4040.72142,0.27826
4038.79267,0.27686
4036.86393,0.27540
4034.93518,0.27429
4033.00644,0.27339
4031.07769,0.27233
4029.14895,0.27118
4027.22020,0.27029
4025.29146,0.26991
4023.36271,0.26983
4021.43397,0.26964
4019.50522,0.26934
4017.57648,0.26918
4015.64773,0.26926
4013.71898,0.26961
4011.79024,0.27021
4009.86149,0.27081
4007.93275,0.27125
4006.00400,0.27166
4004.07526,0.27217
4002.14651,0.27293
4000.21777,0.27395
3998.28902,0.27506
3996.36028,0.27626
3994.43153,0.27731
3992.50279,0.27781
3990.57404,0.27810
3988.64530,0.27874
3986.71655,0.27974
3984.78780,0.28062
3982.85906,0.28092
3980.93031,0.28087
3979.00157,0.28121
3977.07282,0.28204
3975.14408,0.28291
3973.21533,0.28356
3971.28659,0.28398
3969.35784,0.28425
3967.42910,0.28461
3965.50035,0.28529
3963.57161,0.28616
3961.64286,0.28682
3959.71412,0.28717
3957.78537,0.28740
3955.85663,0.28774
3953.92788,0.28845
3951.99913,0.28943
3950.07039,0.29020
3948.14164,0.29077
3946.21290,0.29159
3944.28415,0.29274
3942.35541,0.29399
3940.42666,0.29513
3938.49792,0.29614
3936.56917,0.29724
3934.64043,0.29851
3932.71168,0.29995
3930.78294,0.30125
3928.85419,0.30224
3926.92545,0.30335
3924.99670,0.30467
3923.06795,0.30600
3921.13921,0.30725
3919.21046,0.30828
3917.28172,0.30906
3915.35297,0.30985
3913.42423,0.31064
3911.49548,0.31154
3909.56674,0.31264
3907.63799,0.31355
3905.70925,0.31421
3903.78050,0.31502
3901.85176,0.31596
3899.92301,0.31703
3897.99427,0.31808
3896.06552,0.31883
3894.13678,0.31927
3892.20803,0.31953
3890.27928,0.31986
3888.35054,0.32063
3886.42179,0.32197
3884.49305,0.32342
3882.56430,0.32434
3880.63556,0.32481
3878.70681,0.32500
3876.77807,0.32526
3874.84932,0.32606
3872.92058,0.32740
3870.99183,0.32891
3869.06309,0.33014
3867.13434,0.33113
3865.20560,0.33267
3863.27685,0.33464
3861.34811,0.33617
3859.41936,0.33743
3857.49061,0.33882
3855.56187,0.34038
3853.63312,0.34208
3851.70438,0.34324
3849.77563,0.34379
3847.84689,0.34440
3845.91814,0.34512
3843.98940,0.34600
3842.06065,0.34730
3840.13191,0.34886
3838.20316,0.35007
3836.27442,0.35042
3834.34567,0.35031
3832.41693,0.35029
3830.48818,0.35017
3828.55943,0.35006
3826.63069,0.35030
3824.70194,0.35064
3822.77320,0.35085
3820.84445,0.35065
3818.91571,0.34999
3816.98696,0.34951
3815.05822,0.34924
3813.12947,0.34888
3811.20073,0.34860
3809.27198,0.34860
3807.34324,0.34894
3805.41449,0.34931
3803.48575,0.34922
3801.55700,0.34873
3799.62826,0.34851
3797.69951,0.34875
3795.77076,0.34886
3793.84202,0.34868
3791.91327,0.34861
3789.98453,0.34858
3788.05578,0.34809
3786.12704,0.34717
3784.19829,0.34671
3782.26955,0.34700
3780.34080,0.34723
3778.41206,0.34673
3776.48331,0.34582
3774.55457,0.34529
3772.62582,0.34531
3770.69708,0.34545
3768.76833,0.34520
3766.83959,0.34454
3764.91084,0.34377
3762.98209,0.34316
3761.05335,0.34287
3759.12460,0.34267
3757.19586,0.34228
3755.26711,0.34189
3753.33837,0.34162
3751.40962,0.34062
3749.48088,0.33879
3747.55213,0.33786
3745.62339,0.33755
3743.69464,0.33667
3741.76590,0.33531
3739.83715,0.33429
3737.90841,0.33354
3735.97966,0.33238
3734.05091,0.33048
3732.12217,0.32819
3730.19342,0.32617
3728.26468,0.32473
3726.33593,0.32343
3724.40719,0.32159
3722.47844,0.31920
3720.54970,0.31680
3718.62095,0.31438
3716.69221,0.31199
3714.76346,0.30964
3712.83472,0.30699
3710.90597,0.30407
3708.97723,0.30125
3707.04848,0.29840
3705.11974,0.29541
3703.19099,0.29222
3701.26224,0.28849
3699.33350,0.28451
3697.40475,0.28075
3695.47601,0.27718
3693.54726,0.27383
3691.61852,0.27052
3689.68977,0.26631
3687.76103,0.26061
3685.83228,0.25494
3683.90354,0.24997
3681.97479,0.24528
3680.04605,0.24074
3678.11730,0.23611
3676.18856,0.23024
3674.25981,0.22371
3672.33107,0.21853
3670.40232,0.21258
3668.47357,0.20509
3666.54483,0.19856
3664.61608,0.19270
3662.68734,0.18680
3660.75859,0.18117
3658.82985,0.17597
3656.90110,0.17016
3654.97236,0.16379
3653.04361,0.15872
3651.11487,0.15410
3649.18612,0.14795
3647.25738,0.14147
3645.32863,0.13642
3643.39989,0.13198
3641.47114,0.12731
3639.54239,0.12274
3637.61365,0.11873
3635.68490,0.11498
3633.75616,0.11128
3631.82741,0.10799
3629.89867,0.10449
3627.96992,0.10029
3626.04118,0.09670
3624.11243,0.09340
3622.18369,0.09024
3620.25494,0.08761
3618.32620,0.08499
3616.39745,0.08202
3614.46871,0.07879
3612.53996,0.07579
3610.61122,0.07368
3608.68247,0.07180
3606.75372,0.06930
3604.82498,0.06684
3602.89623,0.06484
3600.96749,0.06295
3599.03874,0.06120
3597.11000,0.05956
3595.18125,0.05767
3593.25251,0.05572
3591.32376,0.05425
3589.39502,0.05299
3587.46627,0.05141
3585.53753,0.04981
3583.60878,0.04853
3581.68004,0.04750
3579.75129,0.04654
3577.82254,0.04561
3575.89380,0.04471
3573.96505,0.04368
3572.03631,0.04247
3570.10756,0.04141
3568.17882,0.04060
3566.25007,0.03967
3564.32133,0.03864
3562.39258,0.03792
3560.46384,0.03737
3558.53509,0.03655
3556.60635,0.03560
3554.67760,0.03494
3552.74886,0.03443
3550.82011,0.03419
3548.89137,0.03414
3546.96262,0.03342
3545.03387,0.03204
3543.10513,0.03114
3541.17638,0.03101
3539.24764,0.03090
3537.31889,0.03046
3535.39015,0.03003
3533.46140,0.02989
3531.53266,0.02984
3529.60391,0.02952
3527.67517,0.02893
3525.74642,0.02846
3523.81768,0.02820
3521.88893,0.02768
3519.96019,0.02693
3518.03144,0.02647
3516.10270,0.02642
3514.17395,0.02640
3512.24520,0.02608
3510.31646,0.02554
3508.38771,0.02508
3506.45897,0.02472
3504.53022,0.02428
3502.60148,0.02391
3500.67273,0.02384
3498.74399,0.02392
3496.81524,0.02394
3494.88650,0.02390
3492.95775,0.02391
3491.02901,0.02403
3489.10026,0.02436
3487.17152,0.02476
3485.24277,0.02530
3483.31402,0.02598
3481.38528,0.02605
3479.45653,0.02527
3477.52779,0.02444
3475.59904,0.02411
3473.67030,0.02415
3471.74155,0.02415
3469.81281,0.02396
3467.88406,0.02378
3465.95532,0.02385
3464.02657,0.02422
3462.09783,0.02464
3460.16908,0.02475
3458.24034,0.02463
3456.31159,0.02474
3454.38285,0.02516
3452.45410,0.02546
3450.52535,0.02530
3448.59661,0.02504
3446.66786,0.02531
3444.73912,0.02612
3442.81037,0.02675
3440.88163,0.02664
3438.95288,0.02612
3437.02414,0.02596
3435.09539,0.02619
3433.16665,0.02630
3431.23790,0.02626
3429.30916,0.02642
3427.38041,0.02650
3425.45167,0.02625
3423.52292,0.02588
3421.59418,0.02552
3419.66543,0.02535
3417.73668,0.02555
3415.80794,0.02576
3413.87919,0.02577
3411.95045,0.02582
3410.02170,0.02602
3408.09296,0.02620
3406.16421,0.02618
3404.23547,0.02601
3402.30672,0.02588
3400.37798,0.02575
3398.44923,0.02561
3396.52049,0.02570
3394.59174,0.02588
3392.66300,0.02562
3390.73425,0.02533
3388.80550,0.02567
3386.87676,0.02622
3384.94801,0.02654
3383.01927,0.02672
3381.09052,0.02684
3379.16178,0.02681
3377.23303,0.02669
3375.30429,0.02660
3373.37554,0.02638
3371.44680,0.02603
3369.51805,0.02583
3367.58931,0.02589
3365.66056,0.02620
3363.73182,0.02659
3361.80307,0.02670
3359.87433,0.02637
3357.94558,0.02585
3356.01683,0.02579
3354.08809,0.02633
3352.15934,0.02677
3350.23060,0.02694
3348.30185,0.02721
3346.37311,0.02743
3344.44436,0.02745
3342.51562,0.02743
3340.58687,0.02736
3338.65813,0.02727
3336.72938,0.02748
3334.80064,0.02803
3332.87189,0.02861
3330.94315,0.02898
3329.01440,0.02909
3327.08566,0.02907
3325.15691,0.02896
3323.22816,0.02875
3321.29942,0.02860
3319.37067,0.02851
3317.44193,0.02838
3315.51318,0.02843
3313.58444,0.02887
3311.65569,0.02929
3309.72695,0.02944
3307.79820,0.02953
3305.86946,0.02967
3303.94071,0.02984
3302.01197,0.02997
3300.08322,0.02984
3298.15448,0.02950
3296.22573,0.02921
3294.29698,0.02891
3292.36824,0.02869
3290.43949,0.02908
3288.51075,0.02968
3286.58200,0.02960
3284.65326,0.02932
3282.72451,0.02965
3280.79577,0.03010
3278.86702,0.03011
3276.93828,0.02985
3275.00953,0.02962
3273.08079,0.02957
3271.15204,0.02976
3269.22330,0.03010
3267.29455,0.03034
3265.36581,0.03048
3263.43706,0.03069
3261.50831,0.03090
3259.57957,0.03098
3257.65082,0.03100
3255.72208,0.03116
3253.79333,0.03153
3251.86459,0.03186
3249.93584,0.03184
3248.00710,0.03159
3246.07835,0.03155
3244.14961,0.03176
3242.22086,0.03204
3240.29212,0.03217
3238.36337,0.03203
3236.43463,0.03205
3234.50588,0.03245
3232.57713,0.03275
3230.64839,0.03258
3228.71964,0.03218
3226.79090,0.03192
3224.86215,0.03206
3222.93341,0.03240
3221.00466,0.03271
3219.07592,0.03310
3217.14717,0.03342
3215.21843,0.03355
3213.28968,0.03371
3211.36094,0.03382
3209.43219,0.03387
3207.50345,0.03403
3205.57470,0.03411
3203.64596,0.03410
3201.71721,0.03414
3199.78846,0.03418
3197.85972,0.03432
3195.93097,0.03466
3194.00223,0.03506
3192.07348,0.03547
3190.14474,0.03588
3188.21599,0.03610
3186.28725,0.03616
3184.35850,0.03614
3182.42976,0.03611
3180.50101,0.03615
3178.57227,0.03650
3176.64352,0.03699
3174.71478,0.03719
3172.78603,0.03714
3170.85729,0.03709
3168.92854,0.03728
3166.99979,0.03782
3165.07105,0.03843
3163.14230,0.03888
3161.21356,0.03904
3159.28481,0.03890
3157.35607,0.03881
3155.42732,0.03913
3153.49858,0.03957
3151.56983,0.03993
3149.64109,0.04018
3147.71234,0.04022
3145.78360,0.04044
3143.85485,0.04110
3141.92611,0.04173
3139.99736,0.04204
3138.06861,0.04245
3136.13987,0.04306
3134.21112,0.04355
3132.28238,0.04381
3130.35363,0.04401
3128.42489,0.04456
3126.49614,0.04548
3124.56740,0.04631
3122.63865,0.04689
3120.70991,0.04730
3118.78116,0.04770
3116.85242,0.04819
3114.92367,0.04878
3112.99493,0.04925
3111.06618,0.04964
3109.13744,0.05027
3107.20869,0.05109
3105.27994,0.05179
3103.35120,0.05243
3101.42245,0.05328
3099.49371,0.05412
3097.56496,0.05449
3095.63622,0.05467
3093.70747,0.05534
3091.77873,0.05640
3089.84998,0.05721
3087.92124,0.05771
3085.99249,0.05818
3084.06375,0.05876
3082.13500,0.05953
3080.20626,0.06036
3078.27751,0.06110
3076.34877,0.06193
3074.42002,0.06300
3072.49127,0.06394
3070.56253,0.06453
3068.63378,0.06503
3066.70504,0.06567
3064.77629,0.06647
3062.84755,0.06746
3060.91880,0.06855
3058.99006,0.06946
3057.06131,0.07023
3055.13257,0.07121
3053.20382,0.07231
3051.27508,0.07320
3049.34633,0.07392
3047.41759,0.07471
3045.48884,0.07541
3043.56009,0.07598
3041.63135,0.07664
3039.70260,0.07744
3037.77386,0.07832
3035.84511,0.07926
3033.91637,0.08013
3031.98762,0.08082
3030.05888,0.08139
3028.13013,0.08194
3026.20139,0.08261
3024.27264,0.08341
3022.34390,0.08431
3020.41515,0.08523
3018.48641,0.08583
3016.55766,0.08615
3014.62892,0.08661
3012.70017,0.08709
3010.77142,0.08749
3008.84268,0.08806
3006.91393,0.08859
3004.98519,0.08866
3003.05644,0.08835
3001.12770,0.08814
2999.19895,0.08805
2997.27021,0.08774
2995.34146,0.08702
2993.41272,0.08595
2991.48397,0.08465
2989.55523,0.08308
2987.62648,0.08104
2985.69774,0.07853
2983.76899,0.07616
2981.84025,0.07451
2979.91150,0.07324
2977.98275,0.07149
2976.05401,0.06914
2974.12526,0.06651
2972.19652,0.06383
2970.26777,0.06148
2968.33903,0.05991
2966.41028,0.05910
2964.48154,0.05855
2962.55279,0.05777
2960.62405,0.05672
2958.69530,0.05555
2956.76656,0.05440
2954.83781,0.05345
2952.90907,0.05269
2950.98032,0.05182
2949.05157,0.05092
2947.12283,0.05030
2945.19408,0.04973
2943.26534,0.04880
2941.33659,0.04766
2939.40785,0.04674
2937.47910,0.04610
2935.55036,0.04556
2933.62161,0.04503
2931.69287,0.04452
2929.76412,0.04406
2927.83538,0.04364
2925.90663,0.04316
2923.97789,0.04256
2922.04914,0.04195
2920.12040,0.04136
2918.19165,0.04072
2916.26290,0.04014
2914.33416,0.03976
2912.40541,0.03956
2910.47667,0.03933
2908.54792,0.03887
2906.61918,0.03834
2904.69043,0.03798
2902.76169,0.03788
2900.83294,0.03808
2898.90420,0.03832
2896.97545,0.03843
2895.04671,0.03853
2893.11796,0.03887
2891.18922,0.03954
2889.26047,0.04026
2887.33172,0.04077
2885.40298,0.04115
2883.47423,0.04155
2881.54549,0.04200
2879.61674,0.04248
2877.68800,0.04294
2875.75925,0.04344
2873.83051,0.04400
2871.90176,0.04459
2869.97302,0.04522
2868.04427,0.04583
2866.11553,0.04638
2864.18678,0.04703
2862.25804,0.04787
2860.32929,0.04868
2858.40055,0.04939
2856.47180,0.05019
2854.54305,0.05115
2852.61431,0.05220
2850.68556,0.05342
2848.75682,0.05483
2846.82807,0.05633
2844.89933,0.05798
2842.97058,0.05966
2841.04184,0.06120
2839.11309,0.06276
2837.18435,0.06425
2835.25560,0.06559
2833.32686,0.06696
2831.39811,0.06835
2829.46937,0.06965
2827.54062,0.07085
2825.61188,0.07202
2823.68313,0.07311
2821.75438,0.07409
2819.82564,0.07508
2817.89689,0.07627
2815.96815,0.07774
2814.03940,0.07941
2812.11066,0.08100
2810.18191,0.08218
2808.25317,0.08304
2806.32442,0.08392
2804.39568,0.08504
2802.46693,0.08624
2800.53819,0.08732
2798.60944,0.08830
2796.68070,0.08933
2794.75195,0.09046
2792.82320,0.09157
2790.89446,0.09249
2788.96571,0.09326
2787.03697,0.09397
2785.10822,0.09468
2783.17948,0.09534
2781.25073,0.09588
2779.32199,0.09639
2777.39324,0.09699
2775.46450,0.09754
2773.53575,0.09810
2771.60701,0.09887
2769.67826,0.09965
2767.74952,0.10020
2765.82077,0.10068
2763.89203,0.10125
2761.96328,0.10185
2760.03453,0.10245
2758.10579,0.10292
2756.17704,0.10317
2754.24830,0.10328
2752.31955,0.10329
2750.39081,0.10321
2748.46206,0.10300
2746.53332,0.10270
2744.60457,0.10258
2742.67583,0.10265
2740.74708,0.10272
2738.81834,0.10278
2736.88959,0.10285
2734.96085,0.10295
2733.03210,0.10312
2731.10336,0.10336
2729.17461,0.10365
2727.24586,0.10403
2725.31712,0.10460
2723.38837,0.10527
2721.45963,0.10586
2719.53088,0.10646
2717.60214,0.10700
2715.67339,0.10743
2713.74465,0.10810
2711.81590,0.10909
2709.88716,0.11017
2707.95841,0.11132
2706.02967,0.11255
2704.10092,0.11366
2702.17218,0.11456
2700.24343,0.11547
2698.31468,0.11651
2696.38594,0.11772
2694.45719,0.11905
2692.52845,0.12026
2690.59970,0.12125
2688.67096,0.12211
2686.74221,0.12314
2684.81347,0.12440
2682.88472,0.12566
2680.95598,0.12689
2679.02723,0.12813
2677.09849,0.12931
2675.16974,0.13037
2673.24100,0.13126
2671.31225,0.13198
2669.38351,0.13270
2667.45476,0.13352
2665.52601,0.13428
2663.59727,0.13492
2661.66852,0.13561
2659.73978,0.13647
2657.81103,0.13740
2655.88229,0.13829
2653.95354,0.13919
2652.02480,0.14014
2650.09605,0.14110
2648.16731,0.14208
2646.23856,0.14306
2644.30982,0.14412
2642.38107,0.14529
2640.45233,0.14641
2638.52358,0.14736
2636.59484,0.14822
2634.66609,0.14902
2632.73734,0.14975
2630.80860,0.15046
2628.87985,0.15114
2626.95111,0.15173
2625.02236,0.15238
2623.09362,0.15322
2621.16487,0.15418
2619.23613,0.15510
2617.30738,0.15593
2615.37864,0.15661
2613.44989,0.15713
2611.52115,0.15759
2609.59240,0.15825
2607.66366,0.15913
2605.73491,0.15990
2603.80616,0.16036
2601.87742,0.16083
2599.94867,0.16153
2598.01993,0.16233
2596.09118,0.16303
2594.16244,0.16353
2592.23369,0.16379
2590.30495,0.16401
2588.37620,0.16435
2586.44746,0.16468
2584.51871,0.16494
2582.58997,0.16537
2580.66122,0.16599
2578.73248,0.16653
2576.80373,0.16690
2574.87499,0.16712
2572.94624,0.16719
2571.01749,0.16720
2569.08875,0.16729
2567.16000,0.16737
2565.23126,0.16730
2563.30251,0.16710
2561.37377,0.16680
2559.44502,0.16653
2557.51628,0.16647
2555.58753,0.16654
2553.65879,0.16665
2551.73004,0.16672
2549.80130,0.16657
2547.87255,0.16613
2545.94381,0.16575
2544.01506,0.16559
2542.08631,0.16541
2540.15757,0.16520
2538.22882,0.16515
2536.30008,0.16530
2534.37133,0.16565
2532.44259,0.16608
2530.51384,0.16642
2528.58510,0.16685
2526.65635,0.16748
2524.72761,0.16808
2522.79886,0.16841
2520.87012,0.16856
2518.94137,0.16879
2517.01263,0.16921
2515.08388,0.16975
2513.15514,0.17048
2511.22639,0.17159
2509.29764,0.17301
2507.36890,0.17435
2505.44015,0.17545
2503.51141,0.17645
2501.58266,0.17753
2499.65392,0.17869
2497.72517,0.17982
2495.79643,0.18093
2493.86768,0.18214
2491.93894,0.18336
2490.01019,0.18447
2488.08145,0.18549
2486.15270,0.18640
2484.22396,0.18729
2482.29521,0.18824
2480.36647,0.18917
2478.43772,0.19009
2476.50897,0.19106
2474.58023,0.19209
2472.65148,0.19311
2470.72274,0.19414
2468.79399,0.19512
2466.86525,0.19581
2464.93650,0.19630
2463.00776,0.19693
2461.07901,0.19776
2459.15027,0.19869
2457.22152,0.19968
2455.29278,0.20068
2453.36403,0.20166
2451.43529,0.20265
2449.50654,0.20363
2447.57779,0.20452
2445.64905,0.20535
2443.72030,0.20626
2441.79156,0.20745
2439.86281,0.20879
2437.93407,0.20998
2436.00532,0.21103
2434.07658,0.21214
2432.14783,0.21339
2430.21909,0.21472
2428.29034,0.21610
2426.36160,0.21754
2424.43285,0.21878
2422.50411,0.21976
2420.57536,0.22077
2418.64662,0.22198
2416.71787,0.22325
2414.78912,0.22434
2412.86038,0.22514
2410.93163,0.22574
2409.00289,0.22634
2407.07414,0.22706
2405.14540,0.22792
2403.21665,0.22880
2401.28791,0.22958
2399.35916,0.23037
2397.43042,0.23130
2395.50167,0.23220
2393.57293,0.23285
2391.64418,0.23337
2389.71544,0.23409
2387.78669,0.23498
2385.85795,0.23581
2383.92920,0.23641
2382.00045,0.23688
2380.07171,0.23758
2378.14296,0.23861
2376.21422,0.23968
2374.28547,0.24056
2372.35673,0.24120
2370.42798,0.24172
2368.49924,0.24248
2366.57049,0.24349
2364.64175,0.24431
2362.71300,0.24478
2360.78426,0.24508
2358.85551,0.24540
2356.92677,0.24610
2354.99802,0.24712
2353.06927,0.24812
2351.14053,0.24903
2349.21178,0.25000
2347.28304,0.25111
2345.35429,0.25218
2343.42555,0.25303
2341.49680,0.25377
2339.56806,0.25449
2337.63931,0.25529
2335.71057,0.25614
2333.78182,0.25685
2331.85308,0.25736
2329.92433,0.25772
2327.99559,0.25795
2326.06684,0.25825
2324.13810,0.25878
2322.20935,0.25938
2320.28060,0.25993
2318.35186,0.26033
2316.42311,0.26063
2314.49437,0.26090
2312.56562,0.26128
2310.63688,0.26184
2308.70813,0.26229
2306.77939,0.26236
2304.85064,0.26205
2302.92190,0.26145
2300.99315,0.26082
2299.06441,0.26051
2297.13566,0.26046
2295.20692,0.26021
2293.27817,0.25966
2291.34943,0.25906
2289.42068,0.25864
2287.49193,0.25836
2285.56319,0.25803
2283.63444,0.25754
2281.70570,0.25701
2279.77695,0.25653
2277.84821,0.25600
2275.91946,0.25519
2273.99072,0.25413
2272.06197,0.25294
2270.13323,0.25159
2268.20448,0.25009
2266.27574,0.24861
2264.34699,0.24720
2262.41825,0.24579
2260.48950,0.24434
2258.56075,0.24297
2256.63201,0.24189
2254.70326,0.24113
2252.77452,0.24044
2250.84577,0.23980
2248.91703,0.23919
2246.98828,0.23843
2245.05954,0.23755
2243.13079,0.23669
2241.20205,0.23584
2239.27330,0.23516
2237.34456,0.23466
2235.41581,0.23416
2233.48707,0.23367
2231.55832,0.23329
2229.62958,0.23312
2227.70083,0.23315
2225.77208,0.23338
2223.84334,0.23372
2221.91459,0.23403
2219.98585,0.23432
2218.05710,0.23457
2216.12836,0.23464
2214.19961,0.23464
2212.27087,0.23466
2210.34212,0.23465
2208.41338,0.23469
2206.48463,0.23478
2204.55589,0.23486
2202.62714,0.23480
2200.69840,0.23444
2198.76965,0.23384
2196.84090,0.23325
2194.91216,0.23265
2192.98341,0.23201
2191.05467,0.23120
2189.12592,0.23008
2187.19718,0.22884
2185.26843,0.22764
2183.33969,0.22634
2181.41094,0.22487
2179.48220,0.22333
2177.55345,0.22188
2175.62471,0.22049
2173.69596,0.21909
2171.76722,0.21775
2169.83847,0.21651
2167.90973,0.21521
2165.98098,0.21380
2164.05223,0.21239
2162.12349,0.21112
2160.19474,0.21012
2158.26600,0.20944
2156.33725,0.20890
2154.40851,0.20829
2152.47976,0.20763
2150.55102,0.20696
2148.62227,0.20630
2146.69353,0.20578
2144.76478,0.20535
2142.83604,0.20481
2140.90729,0.20415
2138.97855,0.20365
2137.04980,0.20334
2135.12106,0.20307
2133.19231,0.20300
2131.26356,0.20340
2129.33482,0.20410
2127.40607,0.20483
2125.47733,0.20549
2123.54858,0.20615
2121.61984,0.20695
2119.69109,0.20780
2117.76235,0.20859
2115.83360,0.20952
2113.90486,0.21073
2111.97611,0.21197
2110.04737,0.21300
2108.11862,0.21398
2106.18988,0.21513
2104.26113,0.21627
2102.33238,0.21728
2100.40364,0.21823
2098.47489,0.21902
2096.54615,0.21966
2094.61740,0.22040
2092.68866,0.22127
2090.75991,0.22217
2088.83117,0.22296
2086.90242,0.22356
2084.97368,0.22405
2083.04493,0.22452
2081.11619,0.22487
2079.18744,0.22513
2077.25870,0.22523
2075.32995,0.22493
2073.40121,0.22435
2071.47246,0.22389
2069.54371,0.22365
2067.61497,0.22345
2065.68622,0.22322
2063.75748,0.22314
2061.82873,0.22323
2059.89999,0.22326
2057.97124,0.22309
2056.04250,0.22303
2054.11375,0.22324
2052.18501,0.22331
2050.25626,0.22318
2048.32752,0.22327
2046.39877,0.22364
2044.47003,0.22400
2042.54128,0.22439
2040.61254,0.22499
2038.68379,0.22594
2036.75504,0.22714
2034.82630,0.22841
2032.89755,0.22991
2030.96881,0.23171
2029.04006,0.23358
2027.11132,0.23538
2025.18257,0.23723
2023.25383,0.23916
2021.32508,0.24122
2019.39634,0.24337
2017.46759,0.24543
2015.53885,0.24721
2013.61010,0.24879
2011.68136,0.25028
2009.75261,0.25167
2007.82386,0.25284
2005.89512,0.25364
2003.96637,0.25417
2002.03763,0.25473
2000.10888,0.25534
1998.18014,0.25580
1996.25139,0.25605
1994.32265,0.25623
1992.39390,0.25659
1990.46516,0.25726
1988.53641,0.25816
1986.60767,0.25914
1984.67892,0.26012
1982.75018,0.26119
1980.82143,0.26229
1978.89269,0.26324
1976.96394,0.26415
1975.03519,0.26521
1973.10645,0.26631
1971.17770,0.26729
1969.24896,0.26826
1967.32021,0.26934
1965.39147,0.27025
1963.46272,0.27084
1961.53398,0.27157
1959.60523,0.27256
1957.67649,0.27363
1955.74774,0.27482
1953.81900,0.27612
1951.89025,0.27752
1949.96151,0.27902
1948.03276,0.28052
1946.10402,0.28201
1944.17527,0.28353
1942.24652,0.28509
1940.31778,0.28653
1938.38903,0.28782
1936.46029,0.28910
1934.53154,0.29027
1932.60280,0.29118
1930.67405,0.29199
1928.74531,0.29284
1926.81656,0.29370
1924.88782,0.29457
1922.95907,0.29536
1921.03033,0.29602
1919.10158,0.29662
1917.17284,0.29709
1915.24409,0.29752
1913.31534,0.29816
1911.38660,0.29894
1909.45785,0.29960
1907.52911,0.30014
1905.60036,0.30061
1903.67162,0.30094
1901.74287,0.30117
1899.81413,0.30139
1897.88538,0.30157
1895.95664,0.30162
1894.02789,0.30162
1892.09915,0.30173
1890.17040,0.30178
1888.24166,0.30154
1886.31291,0.30121
1884.38417,0.30105
1882.45542,0.30097
1880.52667,0.30076
1878.59793,0.30046
1876.66918,0.30020
1874.74044,0.30002
1872.81169,0.29996
1870.88295,0.30003
1868.95420,0.29987
1867.02546,0.29914
1865.09671,0.29821
1863.16797,0.29734
1861.23922,0.29650
1859.31048,0.29563
1857.38173,0.29472
1855.45299,0.29374
1853.52424,0.29268
1851.59549,0.29167
1849.66675,0.29078
1847.73800,0.28997
1845.80926,0.28899
1843.88051,0.28740
1841.95177,0.28562
1840.02302,0.28427
1838.09428,0.28326
1836.16553,0.28248
1834.23679,0.28190
1832.30804,0.28142
1830.37930,0.28083
1828.45055,0.27990
1826.52181,0.27888
1824.59306,0.27790
1822.66432,0.27687
1820.73557,0.27583
1818.80682,0.27476
1816.87808,0.27363
1814.94933,0.27258
1813.02059,0.27161
1811.09184,0.27029
1809.16310,0.26859
1807.23435,0.26712
1805.30561,0.26606
1803.37686,0.26505
1801.44812,0.26372
1799.51937,0.26210
1797.59063,0.26060
1795.66188,0.25957
1793.73314,0.25870
1791.80439,0.25715
1789.87565,0.25520
1787.94690,0.25375
1786.01815,0.25275
1784.08941,0.25188
1782.16066,0.25097
1780.23192,0.24986
1778.30317,0.24864
1776.37443,0.24761
1774.44568,0.24673
1772.51694,0.24542
1770.58819,0.24354
1768.65945,0.24173
1766.73070,0.24027
1764.80196,0.23920
1762.87321,0.23823
1760.94447,0.23691
1759.01572,0.23538
1757.08697,0.23375
1755.15823,0.23209
1753.22948,0.23065
1751.30074,0.22928
1749.37199,0.22771
1747.44325,0.22586
1745.51450,0.22392
1743.58576,0.22204
1741.65701,0.22009
1739.72827,0.21778
1737.79952,0.21559
1735.87078,0.21387
1733.94203,0.21160
1732.01329,0.20869
1730.08454,0.20622
1728.15580,0.20396
1726.22705,0.20184
1724.29830,0.19981
1722.36956,0.19788
1720.44081,0.19625
1718.51207,0.19433
1716.58332,0.19131
1714.65458,0.18809
1712.72583,0.18531
1710.79709,0.18262
1708.86834,0.17999
1706.93960,0.17715
1705.01085,0.17411
1703.08211,0.17143
1701.15336,0.16823
1699.22462,0.16389
1697.29587,0.15994
1695.36713,0.15583
1693.43838,0.15189
1691.50963,0.14861
1689.58089,0.14509
1687.65214,0.14169
1685.72340,0.13815
1683.79465,0.13280
1681.86591,0.12783
1679.93716,0.12444
1678.00842,0.12133
1676.07967,0.11775
1674.15093,0.11400
1672.22218,0.11110
1670.29344,0.10832
1668.36469,0.10502
1666.43595,0.10244
1664.50720,0.10033
1662.57845,0.09775
1660.64971,0.09513
1658.72096,0.09334
1656.79222,0.09244
1654.86347,0.09195
1652.93473,0.09076
1651.00598,0.08956
1649.07724,0.08910
1647.14849,0.08864
1645.21975,0.08811
1643.29100,0.08792
1641.36226,0.08807
1639.43351,0.08855
1637.50477,0.08933
1635.57602,0.08989
1633.64728,0.09007
1631.71853,0.09058
1629.78978,0.09158
1627.86104,0.09297
1625.93229,0.09460
1624.00355,0.09641
1622.07480,0.09839
1620.14606,0.10029
1618.21731,0.10221
1616.28857,0.10439
1614.35982,0.10631
1612.43108,0.10788
1610.50233,0.10941
1608.57359,0.11093
1606.64484,0.11236
1604.71610,0.11367
1602.78735,0.11482
1600.85861,0.11575
1598.92986,0.11664
1597.00111,0.11769
1595.07237,0.11881
1593.14362,0.11981
1591.21488,0.12067
1589.28613,0.12134
1587.35739,0.12187
1585.42864,0.12250
1583.49990,0.12327
1581.57115,0.12409
1579.64241,0.12492
1577.71366,0.12600
1575.78492,0.12736
1573.85617,0.12834
1571.92743,0.12910
1569.99868,0.12986
1568.06993,0.13034
1566.14119,0.13062
1564.21244,0.13095
1562.28370,0.13134
1560.35495,0.13188
1558.42621,0.13239
1556.49746,0.13219
1554.56872,0.13177
1552.63997,0.13131
1550.71123,0.13080
1548.78248,0.13026
1546.85374,0.12976
1544.92499,0.12929
1542.99625,0.12870
1541.06750,0.12766
1539.13876,0.12609
1537.21001,0.12538
1535.28126,0.12527
1533.35252,0.12507
1531.42377,0.12483
1529.49503,0.12470
1527.56628,0.12451
1525.63754,0.12413
1523.70879,0.12361
1521.78005,0.12244
1519.85130,0.12060
1517.92256,0.11864
1515.99381,0.11647
1514.06507,0.11441
1512.13632,0.11267
1510.20758,0.11122
1508.27883,0.10962
1506.35008,0.10650
1504.42134,0.10343
1502.49259,0.10150
1500.56385,0.09962
1498.63510,0.09715
1496.70636,0.09377
1494.77761,0.09025
1492.84887,0.08719
1490.92012,0.08362
1488.99138,0.07876
1487.06263,0.07358
1485.13389,0.06897
1483.20514,0.06512
1481.27640,0.06213
1479.34765,0.06007
1477.41891,0.05843
1475.49016,0.05655
1473.56141,0.05420
1471.63267,0.05176
1469.70392,0.05002
1467.77518,0.04882
1465.84643,0.04752
1463.91769,0.04591
1461.98894,0.04465
1460.06020,0.04391
1458.13145,0.04288
1456.20271,0.04107
1454.27396,0.03970
1452.34522,0.03888
1450.41647,0.03815
1448.48773,0.03749
1446.55898,0.03688
1444.63024,0.03628
1442.70149,0.03575
1440.77274,0.03526
1438.84400,0.03476
1436.91525,0.03411
1434.98651,0.03351
1433.05776,0.03323
1431.12902,0.03301
1429.20027,0.03286
1427.27153,0.03303
1425.34278,0.03345
1423.41404,0.03386
1421.48529,0.03436
1419.55655,0.03528
1417.62780,0.03637
1415.69906,0.03704
1413.77031,0.03732
1411.84156,0.03762
1409.91282,0.03818
1407.98407,0.03872
1406.05533,0.03883
1404.12658,0.03856
1402.19784,0.03829
1400.26909,0.03800
1398.34035,0.03754
1396.41160,0.03708
1394.48286,0.03658
1392.55411,0.03584
1390.62537,0.03504
1388.69662,0.03414
1386.76788,0.03285
1384.83913,0.03146
1382.91039,0.03021
1380.98164,0.02900
1379.05289,0.02798
1377.12415,0.02738
1375.19540,0.02734
1373.26666,0.02765
1371.33791,0.02797
1369.40917,0.02824
1367.48042,0.02857
1365.55168,0.02890
1363.62293,0.02919
1361.69419,0.02960
1359.76544,0.03013
1357.83670,0.03065
1355.90795,0.03113
1353.97921,0.03156
1352.05046,0.03192
1350.12172,0.03220
1348.19297,0.03229
1346.26422,0.03223
1344.33548,0.03208
1342.40673,0.03179
1340.47799,0.03137
1338.54924,0.03089
1336.62050,0.03057
1334.69175,0.03065
1332.76301,0.03107
1330.83426,0.03150
1328.90552,0.03177
1326.97677,0.03187
1325.04803,0.03178
1323.11928,0.03140
1321.19054,0.03081
1319.26179,0.03032
1317.33304,0.03029
1315.40430,0.03071
1313.47555,0.03133
1311.54681,0.03220
1309.61806,0.03342
1307.68932,0.03475
1305.76057,0.03595
1303.83183,0.03695
1301.90308,0.03778
1299.97434,0.03861
1298.04559,0.03940
1296.11685,0.03985
1294.18810,0.03990
1292.25936,0.03984
1290.33061,0.03970
1288.40187,0.03920
1286.47312,0.03828
1284.54437,0.03713
1282.61563,0.03601
1280.68688,0.03537
1278.75814,0.03548
1276.82939,0.03620
1274.90065,0.03716
1272.97190,0.03801
1271.04316,0.03860
1269.11441,0.03882
1267.18567,0.03870
1265.25692,0.03844
1263.32818,0.03834
1261.39943,0.03848
1259.47069,0.03876
1257.54194,0.03911
1255.61320,0.03948
1253.68445,0.03971
1251.75570,0.03965
1249.82696,0.03942
1247.89821,0.03919
1245.96947,0.03898
1244.04072,0.03857
1242.11198,0.03785
1240.18323,0.03702
1238.25449,0.03625
1236.32574,0.03560
1234.39700,0.03529
1232.46825,0.03536
1230.53951,0.03555
1228.61076,0.03579
1226.68202,0.03624
1224.75327,0.03685
1222.82452,0.03737
1220.89578,0.03785
1218.96703,0.03816
1217.03829,0.03794
1215.10954,0.03701
1213.18080,0.03546
1211.25205,0.03365
1209.32331,0.03200
1207.39456,0.03065
1205.46582,0.02958
1203.53707,0.02870
1201.60833,0.02805
1199.67958,0.02777
1197.75084,0.02776
1195.82209,0.02788
1193.89335,0.02818
1191.96460,0.02859
1190.03585,0.02884
1188.10711,0.02860
1186.17836,0.02782
1184.24962,0.02696
1182.32087,0.02634
1180.39213,0.02568
1178.46338,0.02494
1176.53464,0.02456
1174.60589,0.02477
1172.67715,0.02546
1170.74840,0.02668
1168.81966,0.02839
1166.89091,0.03017
1164.96217,0.03150
1163.03342,0.03210
1161.10467,0.03203
1159.17593,0.03157
1157.24718,0.03076
1155.31844,0.02966
1153.38969,0.02850
1151.46095,0.02725
1149.53220,0.02590
1147.60346,0.02475
1145.67471,0.02395
1143.74597,0.02324
1141.81722,0.02237
1139.88848,0.02141
1137.95973,0.02054
1136.03099,0.01985
1134.10224,0.01948
1132.17350,0.01953
1130.24475,0.01987
1128.31600,0.02038
1126.38726,0.02104
1124.45851,0.02209
1122.52977,0.02356
1120.60102,0.02496
1118.67228,0.02601
1116.74353,0.02701
1114.81479,0.02815
1112.88604,0.02900
1110.95730,0.02917
1109.02855,0.02874
1107.09981,0.02804
1105.17106,0.02749
1103.24232,0.02733
1101.31357,0.02744
1099.38483,0.02753
1097.45608,0.02721
1095.52733,0.02667
1093.59859,0.02663
1091.66984,0.02737
1089.74110,0.02851
1087.81235,0.02990
1085.88361,0.03184
1083.95486,0.03434
1082.02612,0.03666
1080.09737,0.03822
1078.16863,0.03924
1076.23988,0.04011
1074.31114,0.04097
1072.38239,0.04179
1070.45365,0.04267
1068.52490,0.04384
1066.59615,0.04527
1064.66741,0.04676
1062.73866,0.04821
1060.80992,0.04919
1058.88117,0.04919
1056.95243,0.04844
1055.02368,0.04746
1053.09494,0.04637
1051.16619,0.04517
1049.23745,0.04410
1047.30870,0.04337
1045.37996,0.04277
1043.45121,0.04213
1041.52247,0.04184
1039.59372,0.04227
1037.66498,0.04342
1035.73623,0.04492
1033.80748,0.04601
1031.87874,0.04632
1029.94999,0.04620
1028.02125,0.04618
1026.09250,0.04643
1024.16376,0.04668
1022.23501,0.04668
1020.30627,0.04669
1018.37752,0.04689
1016.44878,0.04723
1014.52003,0.04748
1012.59129,0.04735
1010.66254,0.04683
1008.73380,0.04616
1006.80505,0.04561
1004.87631,0.04546
1002.94756,0.04569
1001.01881,0.04637
999.09007,0.04760
997.16132,0.04890
995.23258,0.04991
993.30383,0.05087
991.37509,0.05184
989.44634,0.05279
987.51760,0.05406
985.58885,0.05587
983.66011,0.05841
981.73136,0.06165
979.80262,0.06504
977.87387,0.06799
975.94513,0.07023
974.01638,0.07167
972.08763,0.07239
970.15889,0.07277
968.23014,0.07342
966.30140,0.07461
964.37265,0.07619
962.44391,0.07823
960.51516,0.08132
958.58642,0.08565
956.65767,0.09061
954.72893,0.09543
952.80018,0.09962
950.87144,0.10314
948.94269,0.10611
947.01395,0.10848
945.08520,0.11024
943.15646,0.11135
941.22771,0.11168
939.29896,0.11157
937.37022,0.11150
935.44147,0.11129
933.51273,0.11066
931.58398,0.10991
929.65524,0.10959
927.72649,0.10985
925.79775,0.11014
923.86900,0.11013
921.94026,0.10985
920.01151,0.10899
918.08277,0.10718
916.15402,0.10433
914.22528,0.10079
912.29653,0.09691
910.36779,0.09258
908.43904,0.08796
906.51029,0.08352
904.58155,0.07921
902.65280,0.07480
900.72406,0.07053
898.79531,0.06708
896.86657,0.06545
894.93782,0.06658
893.00908,0.07040
891.08033,0.07596
889.15159,0.08223
887.22284,0.08856
885.29410,0.09465
883.36535,0.10017
881.43661,0.10489
879.50786,0.10897
877.57911,0.11256
875.65037,0.11556
873.72162,0.11797
871.79288,0.12009
869.86413,0.12172
867.93539,0.12245
866.00664,0.12255
864.07790,0.12258
862.14915,0.12272
860.22041,0.12258
858.29166,0.12177
856.36292,0.12063
854.43417,0.11965
852.50543,0.11888
850.57668,0.11801
848.64794,0.11675
846.71919,0.11534
844.79044,0.11426
842.86170,0.11323
840.93295,0.11174
839.00421,0.10995
837.07546,0.10832
835.14672,0.10703
833.21797,0.10606
831.28923,0.10533
829.36048,0.10450
827.43174,0.10323
825.50299,0.10188
823.57425,0.10085
821.64550,0.09988
819.71676,0.09865
817.78801,0.09731
815.85926,0.09597
813.93052,0.09454
812.00177,0.09323
810.07303,0.09240
808.14428,0.09175
806.21554,0.09071
804.28679,0.08931
802.35805,0.08804
800.42930,0.08724
798.50056,0.08643
796.57181,0.08500
794.64307,0.08325
792.71432,0.08181
790.78558,0.08112
788.85683,0.08084
786.92809,0.07992
784.99934,0.07802
783.07059,0.07586
781.14185,0.07423
779.21310,0.07331
777.28436,0.07270
775.35561,0.07191
773.42687,0.07097
771.49812,0.06998
769.56938,0.06890
767.64063,0.06782
765.71189,0.06648
763.78314,0.06491
761.85440,0.06365
759.92565,0.06270
757.99691,0.06164
756.06816,0.06020
754.13942,0.05875
752.21067,0.05782
750.28192,0.05711
748.35318,0.05599
746.42443,0.05449
744.49569,0.05306
742.56694,0.05213
740.63820,0.05168
738.70945,0.05102
736.78071,0.04970
734.85196,0.04822
732.92322,0.04717
730.99447,0.04664
729.06573,0.04606
727.13698,0.04473
725.20824,0.04300
723.27949,0.04186
721.35074,0.04146
719.42200,0.04113
717.49325,0.04078
715.56451,0.04045
713.63576,0.04002
711.70702,0.03973
709.77827,0.03959
707.84953,0.03955
705.92078,0.03969
703.99204,0.03973
702.06329,0.03962
700.13455,0.03978
698.20580,0.04003
696.27706,0.03973
694.34831,0.03925
692.41957,0.03933
690.49082,0.03929
688.56207,0.03858
686.63333,0.03813
684.70458,0.03803
682.77584,0.03749
680.84709,0.03659
678.91835,0.03596
676.98960,0.03557
675.06086,0.03515
673.13211,0.03514
671.20337,0.03580
669.27462,0.03655
667.34588,0.03692
665.41713,0.03714
663.48839,0.03758
661.55964,0.03821
659.63090,0.03853
657.70215,0.03836
655.77340,0.03813
653.84466,0.03765
651.91591,0.03673
649.98717,0.03626
648.05842,0.03642
646.12968,0.03639
644.20093,0.03608
642.27219,0.03602
640.34344,0.03625
638.41470,0.03645
636.48595,0.03649
634.55721,0.03616
632.62846,0.03547
630.69972,0.03462
628.77097,0.03421
626.84222,0.03470
624.91348,0.03491
622.98473,0.03368
621.05599,0.03192
619.12724,0.03109
617.19850,0.03153
615.26975,0.03247
613.34101,0.03289
611.41226,0.03293
609.48352,0.03392
607.55477,0.03587
605.62603,0.03683
603.69728,0.03638
601.76854,0.03643
599.83979,0.03732
