7497.03301,0.81583
7495.10426,0.81463
7493.17552,0.81243
7491.24677,0.81405
7489.31803,0.81451
7487.38928,0.80967
7485.46054,0.80626
7483.53179,0.80851
7481.60305,0.81006
7479.67430,0.80727
7477.74556,0.80685
7475.81681,0.81058
7473.88807,0.81310
7471.95932,0.81367
7470.03057,0.81064
7468.10183,0.80387
7466.17308,0.79992
7464.24434,0.79978
7462.31559,0.80121
7460.38685,0.80546
7458.45810,0.80856
7456.52936,0.80480
7454.60061,0.79870
7452.67187,0.79817
7450.74312,0.80191
7448.81438,0.80349
7446.88563,0.80205
7444.95689,0.80047
7443.02814,0.79928
7441.09940,0.79639
7439.17065,0.79272
7437.24190,0.79257
7435.31316,0.79374
7433.38441,0.79267
7431.45567,0.79262
7429.52692,0.79628
7427.59818,0.80344
7425.66943,0.80973
7423.74069,0.80821
7421.81194,0.80011
7419.88320,0.79293
7417.95445,0.78877
7416.02571,0.78488
7414.09696,0.78212
7412.16822,0.78191
7410.23947,0.78135
7408.31073,0.77867
7406.38198,0.77641
7404.45323,0.77759
7402.52449,0.77860
7400.59574,0.77516
7398.66700,0.77209
7396.73825,0.77200
7394.80951,0.77219
7392.88076,0.77457
7390.95202,0.77983
7389.02327,0.78258
7387.09453,0.77952
7385.16578,0.77536
7383.23704,0.77536
7381.30829,0.77643
7379.37955,0.77605
7377.45080,0.77686
7375.52205,0.77636
7373.59331,0.76934
7371.66456,0.75941
7369.73582,0.75557
7367.80707,0.75940
7365.87833,0.76293
7363.94958,0.76017
7362.02084,0.75510
7360.09209,0.75491
7358.16335,0.75879
7356.23460,0.76161
7354.30586,0.76309
7352.37711,0.76425
7350.44837,0.76273
7348.51962,0.75830
7346.59088,0.75546
7344.66213,0.75612
7342.73338,0.75720
7340.80464,0.75724
7338.87589,0.75720
7336.94715,0.75441
7335.01840,0.74943
7333.08966,0.74870
7331.16091,0.74948
7329.23217,0.74555
7327.30342,0.74324
7325.37468,0.74547
7323.44593,0.74423
7321.51719,0.74043
7319.58844,0.73965
7317.65970,0.73905
7315.73095,0.73881
7313.80221,0.74263
7311.87346,0.74505
7309.94471,0.74309
7308.01597,0.74105
7306.08722,0.73985
7304.15848,0.73971
7302.22973,0.74008
7300.30099,0.73877
7298.37224,0.73646
7296.44350,0.73545
7294.51475,0.73624
7292.58601,0.73727
7290.65726,0.73815
7288.72852,0.73893
7286.79977,0.73923
7284.87103,0.73809
7282.94228,0.73466
7281.01353,0.73372
7279.08479,0.73739
7277.15604,0.73974
7275.22730,0.73828
7273.29855,0.73513
7271.36981,0.73361
7269.44106,0.73474
7267.51232,0.73540
7265.58357,0.73397
7263.65483,0.73187
7261.72608,0.73179
7259.79734,0.73524
7257.86859,0.74022
7255.93985,0.74304
7254.01110,0.74260
7252.08236,0.74158
7250.15361,0.74122
7248.22486,0.73984
7246.29612,0.73595
7244.36737,0.73123
7242.43863,0.73022
7240.50988,0.73347
7238.58114,0.73696
7236.65239,0.73614
7234.72365,0.72878
7232.79490,0.72222
7230.86616,0.72452
7228.93741,0.73105
7227.00867,0.73633
7225.07992,0.73749
7223.15118,0.73329
7221.22243,0.73083
7219.29369,0.73423
7217.36494,0.73673
7215.43619,0.73436
7213.50745,0.73185
7211.57870,0.73190
7209.64996,0.73204
7207.72121,0.73167
7205.79247,0.73109
7203.86372,0.73012
7201.93498,0.72989
7200.00623,0.72912
7198.07749,0.72746
7196.14874,0.72892
7194.22000,0.73344
7192.29125,0.73648
7190.36251,0.73652
7188.43376,0.73345
7186.50501,0.72775
7184.57627,0.72281
7182.64752,0.72218
7180.71878,0.72536
7178.79003,0.72754
7176.86129,0.72717
7174.93254,0.72684
7173.00380,0.72647
7171.07505,0.72365
7169.14631,0.71808
7167.21756,0.71345
7165.28882,0.71419
7163.36007,0.71841
7161.43133,0.72015
7159.50258,0.71828
7157.57384,0.71679
7155.64509,0.71777
7153.71634,0.71883
7151.78760,0.71683
7149.85885,0.71360
7147.93011,0.71295
7146.00136,0.71258
7144.07262,0.70901
7142.14387,0.70641
7140.21513,0.70862
7138.28638,0.71172
7136.35764,0.71256
7134.42889,0.71258
7132.50015,0.71066
7130.57140,0.70542
7128.64266,0.70271
7126.71391,0.70652
7124.78516,0.71002
7122.85642,0.70650
7120.92767,0.70062
7118.99893,0.70057
7117.07018,0.70314
7115.14144,0.69818
7113.21269,0.68780
7111.28395,0.68143
7109.35520,0.68149
7107.42646,0.68436
7105.49771,0.68685
7103.56897,0.68905
7101.64022,0.69057
7099.71148,0.68734
7097.78273,0.68019
7095.85399,0.67635
7093.92524,0.67698
7091.99649,0.67763
7090.06775,0.67683
7088.13900,0.67536
7086.21026,0.67358
7084.28151,0.67035
7082.35277,0.66510
7080.42402,0.65986
7078.49528,0.65787
7076.56653,0.65973
7074.63779,0.66162
7072.70904,0.66066
7070.78030,0.65744
7068.85155,0.65314
7066.92281,0.64984
7064.99406,0.64884
7063.06532,0.64783
7061.13657,0.64490
7059.20782,0.64176
7057.27908,0.63968
7055.35033,0.63804
7053.42159,0.63620
7051.49284,0.63339
7049.56410,0.62873
7047.63535,0.62277
7045.70661,0.62061
7043.77786,0.62545
7041.84912,0.63092
7039.92037,0.63185
7037.99163,0.62859
7036.06288,0.62279
7034.13414,0.61910
7032.20539,0.61745
7030.27664,0.61377
7028.34790,0.61076
7026.41915,0.61144
7024.49041,0.61222
7022.56166,0.60897
7020.63292,0.60300
7018.70417,0.59860
7016.77543,0.59796
7014.84668,0.59966
7012.91794,0.60039
7010.98919,0.59859
7009.06045,0.59606
7007.13170,0.59557
7005.20296,0.59627
7003.27421,0.59510
7001.34547,0.59161
6999.41672,0.58746
6997.48797,0.58526
6995.55923,0.58630
6993.63048,0.58887
6991.70174,0.59027
6989.77299,0.58882
6987.84425,0.58449
6985.91550,0.57983
6983.98676,0.57857
6982.05801,0.58044
6980.12927,0.58152
6978.20052,0.58049
6976.27178,0.57910
6974.34303,0.57835
6972.41429,0.57821
6970.48554,0.57817
6968.55680,0.57683
6966.62805,0.57470
6964.69930,0.57353
6962.77056,0.57328
6960.84181,0.57328
6958.91307,0.57279
6956.98432,0.57131
6955.05558,0.56976
6953.12683,0.56959
6951.19809,0.57002
6949.26934,0.57017
6947.34060,0.57138
6945.41185,0.57201
6943.48311,0.56952
6941.55436,0.56693
6939.62562,0.56732
6937.69687,0.56868
6935.76812,0.56945
6933.83938,0.57067
6931.91063,0.57112
6929.98189,0.57019
6928.05314,0.57050
6926.12440,0.57113
6924.19565,0.56869
6922.26691,0.56399
6920.33816,0.55941
6918.40942,0.55617
6916.48067,0.55561
6914.55193,0.55745
6912.62318,0.55925
6910.69444,0.55982
6908.76569,0.56019
6906.83695,0.56058
6904.90820,0.55967
6902.97945,0.55824
6901.05071,0.55788
6899.12196,0.55813
6897.19322,0.55915
6895.26447,0.56174
6893.33573,0.56421
6891.40698,0.56442
6889.47824,0.56193
6887.54949,0.55819
6885.62075,0.55585
6883.69200,0.55460
6881.76326,0.55255
6879.83451,0.55019
6877.90577,0.54919
6875.97702,0.55000
6874.04828,0.55026
6872.11953,0.54832
6870.19078,0.54587
6868.26204,0.54480
6866.33329,0.54644
6864.40455,0.54946
6862.47580,0.54962
6860.54706,0.54591
6858.61831,0.54355
6856.68957,0.54531
6854.76082,0.54686
6852.83208,0.54649
6850.90333,0.54653
6848.97459,0.54744
6847.04584,0.54867
6845.11710,0.54860
6843.18835,0.54638
6841.25960,0.54411
6839.33086,0.54326
6837.40211,0.54313
6835.47337,0.54235
6833.54462,0.54127
6831.61588,0.54147
6829.68713,0.54105
6827.75839,0.53825
6825.82964,0.53631
6823.90090,0.53712
6821.97215,0.53805
6820.04341,0.53697
6818.11466,0.53509
6816.18592,0.53431
6814.25717,0.53478
6812.32843,0.53485
6810.39968,0.53289
6808.47093,0.53022
6806.54219,0.52855
6804.61344,0.52790
6802.68470,0.52908
6800.75595,0.53148
6798.82721,0.53234
6796.89846,0.53107
6794.96972,0.52914
6793.04097,0.52749
6791.11223,0.52670
6789.18348,0.52655
6787.25474,0.52604
6785.32599,0.52562
6783.39725,0.52626
6781.46850,0.52651
6779.53975,0.52524
6777.61101,0.52402
6775.68226,0.52360
6773.75352,0.52259
6771.82477,0.52052
6769.89603,0.51843
6767.96728,0.51723
6766.03854,0.51740
6764.10979,0.51904
6762.18105,0.52022
6760.25230,0.51841
6758.32356,0.51403
6756.39481,0.51057
6754.46607,0.51106
6752.53732,0.51403
6750.60858,0.51656
6748.67983,0.51864
6746.75108,0.52035
6744.82234,0.52125
6742.89359,0.52174
6740.96485,0.52178
6739.03610,0.52048
6737.10736,0.51717
6735.17861,0.51421
6733.24987,0.51505
6731.32112,0.51797
6729.39238,0.51850
6727.46363,0.51704
6725.53489,0.51628
6723.60614,0.51651
6721.67740,0.51637
6719.74865,0.51515
6717.81991,0.51477
6715.89116,0.51648
6713.96241,0.51815
6712.03367,0.51787
6710.10492,0.51571
6708.17618,0.51421
6706.24743,0.51485
6704.31869,0.51473
6702.38994,0.51331
6700.46120,0.51417
6698.53245,0.51736
6696.60371,0.51900
6694.67496,0.51748
6692.74622,0.51535
6690.81747,0.51469
6688.88873,0.51476
6686.95998,0.51519
6685.03123,0.51642
6683.10249,0.51776
6681.17374,0.51816
6679.24500,0.51794
6677.31625,0.51783
6675.38751,0.51767
6673.45876,0.51844
6671.53002,0.52119
6669.60127,0.52247
6667.67253,0.51964
6665.74378,0.51696
6663.81504,0.51801
6661.88629,0.52041
6659.95755,0.52058
6658.02880,0.51869
6656.10006,0.51875
6654.17131,0.52167
6652.24256,0.52318
6650.31382,0.52230
6648.38507,0.52228
6646.45633,0.52355
6644.52758,0.52380
6642.59884,0.52279
6640.67009,0.52187
6638.74135,0.52209
6636.81260,0.52397
6634.88386,0.52702
6632.95511,0.52946
6631.02637,0.52919
6629.09762,0.52693
6627.16888,0.52523
6625.24013,0.52518
6623.31139,0.52720
6621.38264,0.53042
6619.45389,0.53276
6617.52515,0.53401
6615.59640,0.53468
6613.66766,0.53333
6611.73891,0.53050
6609.81017,0.52954
6607.88142,0.53063
6605.95268,0.53167
6604.02393,0.53317
6602.09519,0.53523
6600.16644,0.53512
6598.23770,0.53219
6596.30895,0.52992
6594.38021,0.53089
6592.45146,0.53375
6590.52271,0.53491
6588.59397,0.53333
6586.66522,0.53231
6584.73648,0.53402
6582.80773,0.53668
6580.87899,0.53768
6578.95024,0.53702
6577.02150,0.53751
6575.09275,0.53995
6573.16401,0.54125
6571.23526,0.54029
6569.30652,0.53967
6567.37777,0.54016
6565.44903,0.53995
6563.52028,0.53796
6561.59154,0.53558
6559.66279,0.53530
6557.73404,0.53730
6555.80530,0.53967
6553.87655,0.54109
6551.94781,0.54152
6550.01906,0.54079
6548.09032,0.53931
6546.16157,0.53915
6544.23283,0.54122
6542.30408,0.54308
6540.37534,0.54227
6538.44659,0.53966
6536.51785,0.53797
6534.58910,0.53863
6532.66036,0.53934
6530.73161,0.53759
6528.80287,0.53606
6526.87412,0.53712
6524.94537,0.53830
6523.01663,0.53783
6521.08788,0.53739
6519.15914,0.53835
6517.23039,0.53928
6515.30165,0.53938
6513.37290,0.54022
6511.44416,0.54200
6509.51541,0.54229
6507.58667,0.54038
6505.65792,0.53795
6503.72918,0.53584
6501.80043,0.53422
6499.87169,0.53369
6497.94294,0.53452
6496.01419,0.53550
6494.08545,0.53511
6492.15670,0.53465
6490.22796,0.53581
6488.29921,0.53708
6486.37047,0.53768
6484.44172,0.53923
6482.51298,0.54130
6480.58423,0.54233
6478.65549,0.54187
6476.72674,0.53941
6474.79800,0.53664
6472.86925,0.53548
6470.94051,0.53469
6469.01176,0.53415
6467.08302,0.53511
6465.15427,0.53681
6463.22552,0.53760
6461.29678,0.53719
6459.36803,0.53665
6457.43929,0.53686
6455.51054,0.53848
6453.58180,0.54080
6451.65305,0.54162
6449.72431,0.54065
6447.79556,0.53978
6445.86682,0.53946
6443.93807,0.53872
6442.00933,0.53858
6440.08058,0.54025
6438.15184,0.54186
6436.22309,0.54206
6434.29434,0.54157
6432.36560,0.54070
6430.43685,0.54007
6428.50811,0.54031
6426.57936,0.54072
6424.65062,0.54115
6422.72187,0.54250
6420.79313,0.54389
6418.86438,0.54365
6416.93564,0.54213
6415.00689,0.54102
6413.07815,0.54194
6411.14940,0.54409
6409.22066,0.54502
6407.29191,0.54449
6405.36317,0.54313
6403.43442,0.54106
6401.50567,0.53965
6399.57693,0.54002
6397.64818,0.54113
6395.71944,0.54212
6393.79069,0.54357
6391.86195,0.54433
6389.93320,0.54383
6388.00446,0.54489
6386.07571,0.54753
6384.14697,0.54850
6382.21822,0.54721
6380.28948,0.54512
6378.36073,0.54334
6376.43199,0.54281
6374.50324,0.54369
6372.57450,0.54448
6370.64575,0.54440
6368.71700,0.54463
6366.78826,0.54529
6364.85951,0.54559
6362.93077,0.54606
6361.00202,0.54676
6359.07328,0.54674
6357.14453,0.54651
6355.21579,0.54718
6353.28704,0.54780
6351.35830,0.54692
6349.42955,0.54533
6347.50081,0.54404
6345.57206,0.54295
6343.64332,0.54248
6341.71457,0.54253
6339.78582,0.54157
6337.85708,0.54045
6335.92833,0.54262
6333.99959,0.54732
6332.07084,0.54941
6330.14210,0.54772
6328.21335,0.54662
6326.28461,0.54805
6324.35586,0.54909
6322.42712,0.54859
6320.49837,0.54874
6318.56963,0.54972
6316.64088,0.54949
6314.71214,0.54797
6312.78339,0.54639
6310.85465,0.54503
6308.92590,0.54473
6306.99715,0.54666
6305.06841,0.54973
6303.13966,0.55103
6301.21092,0.55002
6299.28217,0.54935
6297.35343,0.55019
6295.42468,0.55099
6293.49594,0.55070
6291.56719,0.55006
6289.63845,0.54992
6287.70970,0.55002
6285.78096,0.55040
6283.85221,0.55152
6281.92347,0.55299
6279.99472,0.55461
6278.06598,0.55588
6276.13723,0.55577
6274.20848,0.55495
6272.27974,0.55495
6270.35099,0.55604
6268.42225,0.55721
6266.49350,0.55773
6264.56476,0.55827
6262.63601,0.55916
6260.70727,0.55978
6258.77852,0.56034
6256.84978,0.56027
6254.92103,0.55931
6252.99229,0.55948
6251.06354,0.56075
6249.13480,0.56120
6247.20605,0.56181
6245.27730,0.56415
6243.34856,0.56680
6241.41981,0.56812
6239.49107,0.56829
6237.56232,0.56849
6235.63358,0.56945
6233.70483,0.56967
6231.77609,0.56897
6229.84734,0.57051
6227.91860,0.57417
6225.98985,0.57624
6224.06111,0.57624
6222.13236,0.57621
6220.20362,0.57677
6218.27487,0.57759
6216.34613,0.57839
6214.41738,0.57921
6212.48863,0.58054
6210.55989,0.58171
6208.63114,0.58143
6206.70240,0.58085
6204.77365,0.58228
6202.84491,0.58493
6200.91616,0.58594
6198.98742,0.58517
6197.05867,0.58496
6195.12993,0.58597
6193.20118,0.58612
6191.27244,0.58487
6189.34369,0.58474
6187.41495,0.58646
6185.48620,0.58798
6183.55746,0.58864
6181.62871,0.58962
6179.69996,0.59095
6177.77122,0.59204
6175.84247,0.59346
6173.91373,0.59491
6171.98498,0.59567
6170.05624,0.59663
6168.12749,0.59779
6166.19875,0.59860
6164.27000,0.59936
6162.34126,0.60003
6160.41251,0.60160
6158.48377,0.60452
6156.55502,0.60621
6154.62628,0.60567
6152.69753,0.60489
6150.76878,0.60451
6148.84004,0.60440
6146.91129,0.60509
6144.98255,0.60580
6143.05380,0.60536
6141.12506,0.60492
6139.19631,0.60672
6137.26757,0.61013
6135.33882,0.61219
6133.41008,0.61201
6131.48133,0.61144
6129.55259,0.61259
6127.62384,0.61520
6125.69510,0.61645
6123.76635,0.61516
6121.83761,0.61350
6119.90886,0.61272
6117.98011,0.61291
6116.05137,0.61489
6114.12262,0.61766
6112.19388,0.61930
6110.26513,0.61954
6108.33639,0.61895
6106.40764,0.61853
6104.47890,0.61945
6102.55015,0.62150
6100.62141,0.62291
6098.69266,0.62288
6096.76392,0.62247
6094.83517,0.62240
6092.90643,0.62209
6090.97768,0.62189
6089.04893,0.62346
6087.12019,0.62581
6085.19144,0.62703
6083.26270,0.62819
6081.33395,0.62962
6079.40521,0.63009
6077.47646,0.63027
6075.54772,0.63134
6073.61897,0.63218
6071.69023,0.63162
6069.76148,0.63098
6067.83274,0.63166
6065.90399,0.63255
6063.97525,0.63329
6062.04650,0.63590
6060.11776,0.63926
6058.18901,0.64043
6056.26026,0.64029
6054.33152,0.64049
6052.40277,0.64084
6050.47403,0.64146
6048.54528,0.64245
6046.61654,0.64301
6044.68779,0.64322
6042.75905,0.64391
6040.83030,0.64438
6038.90156,0.64450
6036.97281,0.64522
6035.04407,0.64558
6033.11532,0.64525
6031.18658,0.64636
6029.25783,0.64892
6027.32909,0.65025
6025.40034,0.64957
6023.47159,0.64860
6021.54285,0.64891
6019.61410,0.64973
6017.68536,0.64962
6015.75661,0.64921
6013.82787,0.64943
6011.89912,0.64980
6009.97038,0.64971
6008.04163,0.64984
6006.11289,0.65092
6004.18414,0.65164
6002.25540,0.65149
6000.32665,0.65218
5998.39791,0.65418
5996.46916,0.65575
5994.54041,0.65564
5992.61167,0.65464
5990.68292,0.65423
5988.75418,0.65497
5986.82543,0.65608
5984.89669,0.65691
5982.96794,0.65790
5981.03920,0.65862
5979.11045,0.65805
5977.18171,0.65721
5975.25296,0.65731
5973.32422,0.65771
5971.39547,0.65772
5969.46673,0.65778
5967.53798,0.65855
5965.60924,0.65957
5963.68049,0.65979
5961.75174,0.65917
5959.82300,0.65806
5957.89425,0.65707
5955.96551,0.65724
5954.03676,0.65817
5952.10802,0.65844
5950.17927,0.65784
5948.25053,0.65689
5946.32178,0.65617
5944.39304,0.65639
5942.46429,0.65710
5940.53555,0.65664
5938.60680,0.65481
5936.67806,0.65366
5934.74931,0.65368
5932.82057,0.65332
5930.89182,0.65271
5928.96307,0.65244
5927.03433,0.65185
5925.10558,0.65120
5923.17684,0.65081
5921.24809,0.65011
5919.31935,0.64980
5917.39060,0.65001
5915.46186,0.64923
5913.53311,0.64798
5911.60437,0.64764
5909.67562,0.64813
5907.74688,0.64911
5905.81813,0.64977
5903.88939,0.64939
5901.96064,0.64840
5900.03189,0.64750
5898.10315,0.64672
5896.17440,0.64572
5894.24566,0.64442
5892.31691,0.64232
5890.38817,0.63945
5888.45942,0.63782
5886.53068,0.63861
5884.60193,0.63943
5882.67319,0.63784
5880.74444,0.63526
5878.81570,0.63381
5876.88695,0.63314
5874.95821,0.63224
5873.02946,0.63169
5871.10072,0.63211
5869.17197,0.63236
5867.24322,0.63199
5865.31448,0.63159
5863.38573,0.63157
5861.45699,0.63251
5859.52824,0.63323
5857.59950,0.63249
5855.67075,0.63179
5853.74201,0.63194
5851.81326,0.63204
5849.88452,0.63218
5847.95577,0.63295
5846.02703,0.63428
5844.09828,0.63534
5842.16954,0.63511
5840.24079,0.63391
5838.31205,0.63295
5836.38330,0.63271
5834.45455,0.63274
5832.52581,0.63307
5830.59706,0.63368
5828.66832,0.63357
5826.73957,0.63292
5824.81083,0.63252
5822.88208,0.63126
5820.95334,0.62855
5819.02459,0.62647
5817.09585,0.62682
5815.16710,0.62850
5813.23836,0.62973
5811.30961,0.63038
5809.38087,0.63068
5807.45212,0.63064
5805.52337,0.62992
5803.59463,0.62831
5801.66588,0.62683
5799.73714,0.62656
5797.80839,0.62710
5795.87965,0.62760
5793.95090,0.62802
5792.02216,0.62840
5790.09341,0.62823
5788.16467,0.62761
5786.23592,0.62737
5784.30718,0.62767
5782.37843,0.62743
5780.44969,0.62629
5778.52094,0.62571
5776.59220,0.62617
5774.66345,0.62661
5772.73470,0.62658
5770.80596,0.62614
5768.87721,0.62560
5766.94847,0.62519
5765.01972,0.62458
5763.09098,0.62414
5761.16223,0.62464
5759.23349,0.62558
5757.30474,0.62617
5755.37600,0.62607
5753.44725,0.62525
5751.51851,0.62495
5749.58976,0.62576
5747.66102,0.62651
5745.73227,0.62662
5743.80352,0.62633
5741.87478,0.62568
5739.94603,0.62472
5738.01729,0.62352
5736.08854,0.62232
5734.15980,0.62181
5732.23105,0.62210
5730.30231,0.62194
5728.37356,0.62109
5726.44482,0.62075
5724.51607,0.62124
5722.58733,0.62183
5720.65858,0.62176
5718.72984,0.62118
5716.80109,0.62026
5714.87235,0.61918
5712.94360,0.61941
5711.01485,0.62155
5709.08611,0.62331
5707.15736,0.62278
5705.22862,0.62143
5703.29987,0.62071
5701.37113,0.62003
5699.44238,0.61961
5697.51364,0.61960
5695.58489,0.61907
5693.65615,0.61837
5691.72740,0.61829
5689.79866,0.61817
5687.86991,0.61757
5685.94117,0.61683
5684.01242,0.61584
5682.08368,0.61454
5680.15493,0.61352
5678.22618,0.61308
5676.29744,0.61293
5674.36869,0.61283
5672.43995,0.61276
5670.51120,0.61274
5668.58246,0.61306
5666.65371,0.61334
5664.72497,0.61287
5662.79622,0.61220
5660.86748,0.61216
5658.93873,0.61258
5657.00999,0.61294
5655.08124,0.61295
5653.15250,0.61218
5651.22375,0.61116
5649.29500,0.61079
5647.36626,0.61063
5645.43751,0.61060
5643.50877,0.61121
5641.58002,0.61130
5639.65128,0.61049
5637.72253,0.61068
5635.79379,0.61172
5633.86504,0.61163
5631.93630,0.61076
5630.00755,0.61057
5628.07881,0.61134
5626.15006,0.61226
5624.22132,0.61265
5622.29257,0.61253
5620.36383,0.61176
5618.43508,0.61032
5616.50633,0.60916
5614.57759,0.60938
5612.64884,0.61074
5610.72010,0.61174
5608.79135,0.61151
5606.86261,0.61103
5604.93386,0.61165
5603.00512,0.61301
5601.07637,0.61360
5599.14763,0.61334
5597.21888,0.61314
5595.29014,0.61277
5593.36139,0.61205
5591.43265,0.61173
5589.50390,0.61142
5587.57516,0.61059
5585.64641,0.61016
5583.71766,0.61067
5581.78892,0.61127
5579.86017,0.61163
5577.93143,0.61227
5576.00268,0.61299
5574.07394,0.61362
5572.14519,0.61442
5570.21645,0.61505
5568.28770,0.61525
5566.35896,0.61529
5564.43021,0.61523
5562.50147,0.61487
5560.57272,0.61460
5558.64398,0.61510
5556.71523,0.61561
5554.78648,0.61559
5552.85774,0.61588
5550.92899,0.61645
5549.00025,0.61692
5547.07150,0.61761
5545.14276,0.61819
5543.21401,0.61806
5541.28527,0.61732
5539.35652,0.61664
5537.42778,0.61670
5535.49903,0.61709
5533.57029,0.61670
5531.64154,0.61587
5529.71280,0.61590
5527.78405,0.61617
5525.85531,0.61529
5523.92656,0.61454
5521.99781,0.61547
5520.06907,0.61664
5518.14032,0.61677
5516.21158,0.61652
5514.28283,0.61624
5512.35409,0.61603
5510.42534,0.61579
5508.49660,0.61522
5506.56785,0.61491
5504.63911,0.61524
5502.71036,0.61553
5500.78162,0.61534
5498.85287,0.61469
5496.92413,0.61388
5494.99538,0.61373
5493.06664,0.61465
5491.13789,0.61577
5489.20914,0.61673
5487.28040,0.61770
5485.35165,0.61776
5483.42291,0.61643
5481.49416,0.61487
5479.56542,0.61461
5477.63667,0.61574
5475.70793,0.61714
5473.77918,0.61762
5471.85044,0.61694
5469.92169,0.61632
5467.99295,0.61668
5466.06420,0.61726
5464.13546,0.61744
5462.20671,0.61804
5460.27796,0.61946
5458.34922,0.62055
5456.42047,0.62050
5454.49173,0.62002
5452.56298,0.62033
5450.63424,0.62138
5448.70549,0.62189
5446.77675,0.62165
5444.84800,0.62165
5442.91926,0.62186
5440.99051,0.62186
5439.06177,0.62217
5437.13302,0.62296
5435.20428,0.62406
5433.27553,0.62553
5431.34679,0.62689
5429.41804,0.62800
5427.48929,0.62883
5425.56055,0.62868
5423.63180,0.62784
5421.70306,0.62758
5419.77431,0.62826
5417.84557,0.62941
5415.91682,0.63055
5413.98808,0.63149
5412.05933,0.63274
5410.13059,0.63372
5408.20184,0.63325
5406.27310,0.63225
5404.34435,0.63206
5402.41561,0.63251
5400.48686,0.63295
5398.55811,0.63345
5396.62937,0.63413
5394.70062,0.63455
5392.77188,0.63460
5390.84313,0.63466
5388.91439,0.63508
5386.98564,0.63552
5385.05690,0.63569
5383.12815,0.63623
5381.19941,0.63700
5379.27066,0.63737
5377.34192,0.63738
5375.41317,0.63702
5373.48443,0.63634
5371.55568,0.63531
5369.62694,0.63413
5367.69819,0.63385
5365.76944,0.63494
5363.84070,0.63623
5361.91195,0.63630
5359.98321,0.63525
5358.05446,0.63435
5356.12572,0.63412
5354.19697,0.63429
5352.26823,0.63446
5350.33948,0.63416
5348.41074,0.63401
5346.48199,0.63467
5344.55325,0.63490
5342.62450,0.63411
5340.69576,0.63375
5338.76701,0.63399
5336.83827,0.63320
5334.90952,0.63096
5332.98077,0.62868
5331.05203,0.62771
5329.12328,0.62819
5327.19454,0.62868
5325.26579,0.62755
5323.33705,0.62540
5321.40830,0.62378
5319.47956,0.62284
5317.55081,0.62190
5315.62207,0.62057
5313.69332,0.61920
5311.76458,0.61810
5309.83583,0.61656
5307.90709,0.61429
5305.97834,0.61211
5304.04959,0.61006
5302.12085,0.60752
5300.19210,0.60513
5298.26336,0.60362
5296.33461,0.60233
5294.40587,0.60036
5292.47712,0.59768
5290.54838,0.59495
5288.61963,0.59265
5286.69089,0.59031
5284.76214,0.58752
5282.83340,0.58441
5280.90465,0.58161
5278.97591,0.57927
5277.04716,0.57672
5275.11842,0.57386
5273.18967,0.57098
5271.26092,0.56811
5269.33218,0.56508
5267.40343,0.56136
5265.47469,0.55694
5263.54594,0.55259
5261.61720,0.54905
5259.68845,0.54649
5257.75971,0.54436
5255.83096,0.54166
5253.90222,0.53798
5251.97347,0.53409
5250.04473,0.53057
5248.11598,0.52737
5246.18724,0.52438
5244.25849,0.52165
5242.32975,0.51902
5240.40100,0.51619
5238.47225,0.51333
5236.54351,0.51049
5234.61476,0.50760
5232.68602,0.50507
5230.75727,0.50313
5228.82853,0.50139
5226.89978,0.49934
5224.97104,0.49691
5223.04229,0.49491
5221.11355,0.49406
5219.18480,0.49338
5217.25606,0.49138
5215.32731,0.48875
5213.39857,0.48700
5211.46982,0.48599
5209.54107,0.48510
5207.61233,0.48415
5205.68358,0.48283
5203.75484,0.48153
5201.82609,0.48072
5199.89735,0.48046
5197.96860,0.48048
5196.03986,0.47993
5194.11111,0.47864
5192.18237,0.47753
5190.25362,0.47696
5188.32488,0.47650
5186.39613,0.47608
5184.46739,0.47631
5182.53864,0.47704
5180.60990,0.47733
5178.68115,0.47698
5176.75240,0.47672
5174.82366,0.47706
5172.89491,0.47724
5170.96617,0.47702
5169.03742,0.47743
5167.10868,0.47846
5165.17993,0.47903
5163.25119,0.47879
5161.32244,0.47840
5159.39370,0.47880
5157.46495,0.48001
5155.53621,0.48118
5153.60746,0.48188
5151.67872,0.48230
5149.74997,0.48278
5147.82123,0.48315
5145.89248,0.48346
5143.96373,0.48456
5142.03499,0.48642
5140.10624,0.48808
5138.17750,0.48897
5136.24875,0.48955
5134.32001,0.49057
5132.39126,0.49183
5130.46252,0.49277
5128.53377,0.49349
5126.60503,0.49394
5124.67628,0.49403
5122.74754,0.49460
5120.81879,0.49586
5118.89005,0.49678
5116.96130,0.49734
5115.03255,0.49817
5113.10381,0.49939
5111.17506,0.50100
5109.24632,0.50236
5107.31757,0.50324
5105.38883,0.50420
5103.46008,0.50506
5101.53134,0.50547
5099.60259,0.50589
5097.67385,0.50689
5095.74510,0.50837
5093.81636,0.50983
5091.88761,0.51098
5089.95887,0.51189
5088.03012,0.51259
5086.10138,0.51294
5084.17263,0.51333
5082.24388,0.51416
5080.31514,0.51526
5078.38639,0.51652
5076.45765,0.51777
5074.52890,0.51858
5072.60016,0.51917
5070.67141,0.51998
5068.74267,0.52106
5066.81392,0.52248
5064.88518,0.52397
5062.95643,0.52501
5061.02769,0.52555
5059.09894,0.52589
5057.17020,0.52634
5055.24145,0.52715
5053.31270,0.52842
5051.38396,0.52951
5049.45521,0.52974
5047.52647,0.52975
5045.59772,0.53009
5043.66898,0.53056
5041.74023,0.53125
5039.81149,0.53214
5037.88274,0.53314
5035.95400,0.53421
5034.02525,0.53508
5032.09651,0.53572
5030.16776,0.53629
5028.23902,0.53691
5026.31027,0.53761
5024.38153,0.53843
5022.45278,0.53928
5020.52403,0.53981
5018.59529,0.53997
5016.66654,0.54009
5014.73780,0.54042
5012.80905,0.54095
5010.88031,0.54165
5008.95156,0.54254
5007.02282,0.54339
5005.09407,0.54408
5003.16533,0.54466
5001.23658,0.54500
4999.30784,0.54526
4997.37909,0.54568
4995.45035,0.54583
4993.52160,0.54540
4991.59286,0.54517
4989.66411,0.54529
4987.73536,0.54507
4985.80662,0.54469
4983.87787,0.54460
4981.94913,0.54450
4980.02038,0.54389
4978.09164,0.54300
4976.16289,0.54258
4974.23415,0.54267
4972.30540,0.54250
4970.37666,0.54209
4968.44791,0.54170
4966.51917,0.54073
4964.59042,0.53932
4962.66168,0.53823
4960.73293,0.53751
4958.80418,0.53685
4956.87544,0.53576
4954.94669,0.53474
4953.01795,0.53434
4951.08920,0.53357
4949.16046,0.53191
4947.23171,0.53011
4945.30297,0.52856
4943.37422,0.52698
4941.44548,0.52548
4939.51673,0.52443
4937.58799,0.52350
4935.65924,0.52207
4933.73050,0.52033
4931.80175,0.51862
4929.87301,0.51653
4927.94426,0.51432
4926.01551,0.51276
4924.08677,0.51119
4922.15802,0.50866
4920.22928,0.50564
4918.30053,0.50306
4916.37179,0.50102
4914.44304,0.49926
4912.51430,0.49792
4910.58555,0.49653
4908.65681,0.49412
4906.72806,0.49103
4904.79932,0.48855
4902.87057,0.48680
4900.94183,0.48478
4899.01308,0.48230
4897.08434,0.47979
4895.15559,0.47734
4893.22684,0.47485
4891.29810,0.47228
4889.36935,0.46982
4887.44061,0.46777
4885.51186,0.46600
4883.58312,0.46386
4881.65437,0.46097
4879.72563,0.45779
4877.79688,0.45518
4875.86814,0.45335
4873.93939,0.45189
4872.01065,0.45042
4870.08190,0.44877
4868.15316,0.44692
4866.22441,0.44515
4864.29566,0.44350
4862.36692,0.44143
4860.43817,0.43928
4858.50943,0.43801
4856.58068,0.43729
4854.65194,0.43614
4852.72319,0.43428
4850.79445,0.43226
4848.86570,0.43056
4846.93696,0.42893
4845.00821,0.42746
4843.07947,0.42624
4841.15072,0.42470
4839.22198,0.42289
4837.29323,0.42129
4835.36449,0.41982
4833.43574,0.41825
4831.50699,0.41651
4829.57825,0.41475
4827.64950,0.41328
4825.72076,0.41213
4823.79201,0.41086
4821.86327,0.40916
4819.93452,0.40757
4818.00578,0.40664
4816.07703,0.40586
4814.14829,0.40485
4812.21954,0.40384
4810.29080,0.40270
4808.36205,0.40144
4806.43331,0.40044
4804.50456,0.39968
4802.57582,0.39869
4800.64707,0.39764
4798.71832,0.39717
4796.78958,0.39688
4794.86083,0.39599
4792.93209,0.39487
4791.00334,0.39436
4789.07460,0.39429
4787.14585,0.39380
4785.21711,0.39296
4783.28836,0.39254
4781.35962,0.39262
4779.43087,0.39260
4777.50213,0.39204
4775.57338,0.39119
4773.64464,0.39047
4771.71589,0.38989
4769.78714,0.38930
4767.85840,0.38898
4765.92965,0.38924
4764.00091,0.38953
4762.07216,0.38895
4760.14342,0.38774
4758.21467,0.38680
4756.28593,0.38645
4754.35718,0.38703
4752.42844,0.38823
4750.49969,0.38883
4748.57095,0.38877
4746.64220,0.38911
4744.71346,0.38988
4742.78471,0.39050
4740.85597,0.39090
4738.92722,0.39114
4736.99847,0.39139
4735.06973,0.39159
4733.14098,0.39167
4731.21224,0.39224
4729.28349,0.39337
4727.35475,0.39443
4725.42600,0.39531
4723.49726,0.39609
4721.56851,0.39669
4719.63977,0.39709
4717.71102,0.39764
4715.78228,0.39865
4713.85353,0.39996
4711.92479,0.40124
4709.99604,0.40203
4708.06729,0.40210
4706.13855,0.40219
4704.20980,0.40293
4702.28106,0.40398
4700.35231,0.40530
4698.42357,0.40703
4696.49482,0.40835
4694.56608,0.40879
4692.63733,0.40902
4690.70859,0.40974
4688.77984,0.41101
4686.85110,0.41227
4684.92235,0.41311
4682.99361,0.41394
4681.06486,0.41528
4679.13612,0.41661
4677.20737,0.41741
4675.27862,0.41805
4673.34988,0.41876
4671.42113,0.41960
4669.49239,0.42073
4667.56364,0.42196
4665.63490,0.42307
4663.70615,0.42396
4661.77741,0.42451
4659.84866,0.42480
4657.91992,0.42528
4655.99117,0.42620
4654.06243,0.42719
4652.13368,0.42780
4650.20494,0.42824
4648.27619,0.42922
4646.34745,0.43064
4644.41870,0.43163
4642.48995,0.43226
4640.56121,0.43303
4638.63246,0.43388
4636.70372,0.43480
4634.77497,0.43600
4632.84623,0.43732
4630.91748,0.43819
4628.98874,0.43862
4627.05999,0.43915
4625.13125,0.43979
4623.20250,0.44060
4621.27376,0.44164
4619.34501,0.44248
4617.41627,0.44323
4615.48752,0.44433
4613.55877,0.44528
4611.63003,0.44585
4609.70128,0.44662
4607.77254,0.44771
4605.84379,0.44883
4603.91505,0.44971
4601.98630,0.45017
4600.05756,0.45054
4598.12881,0.45122
4596.20007,0.45217
4594.27132,0.45315
4592.34258,0.45408
4590.41383,0.45485
4588.48509,0.45544
4586.55634,0.45627
4584.62760,0.45756
4582.69885,0.45861
4580.77010,0.45901
4578.84136,0.45942
4576.91261,0.46029
4574.98387,0.46135
4573.05512,0.46239
4571.12638,0.46347
4569.19763,0.46445
4567.26889,0.46531
4565.34014,0.46629
4563.41140,0.46731
4561.48265,0.46808
4559.55391,0.46855
4557.62516,0.46899
4555.69642,0.46958
4553.76767,0.47021
4551.83893,0.47091
4549.91018,0.47198
4547.98143,0.47327
4546.05269,0.47426
4544.12394,0.47497
4542.19520,0.47566
4540.26645,0.47628
4538.33771,0.47660
4536.40896,0.47669
4534.48022,0.47712
4532.55147,0.47789
4530.62273,0.47857
4528.69398,0.47942
4526.76524,0.48054
4524.83649,0.48134
4522.90775,0.48166
4520.97900,0.48195
4519.05025,0.48246
4517.12151,0.48301
4515.19276,0.48338
4513.26402,0.48358
4511.33527,0.48380
4509.40653,0.48414
4507.47778,0.48458
4505.54904,0.48492
4503.62029,0.48499
4501.69155,0.48497
4499.76280,0.48504
4497.83406,0.48487
4495.90531,0.48444
4493.97657,0.48452
4492.04782,0.48497
4490.11908,0.48495
4488.19033,0.48484
4486.26158,0.48523
4484.33284,0.48569
4482.40409,0.48593
4480.47535,0.48607
4478.54660,0.48587
4476.61786,0.48517
4474.68911,0.48443
4472.76037,0.48413
4470.83162,0.48402
4468.90288,0.48370
4466.97413,0.48331
4465.04539,0.48264
4463.11664,0.48145
4461.18790,0.48014
4459.25915,0.47887
4457.33041,0.47729
4455.40166,0.47552
4453.47291,0.47393
4451.54417,0.47224
4449.61542,0.47008
4447.68668,0.46756
4445.75793,0.46489
4443.82919,0.46227
4441.90044,0.45970
4439.97170,0.45699
4438.04295,0.45427
4436.11421,0.45153
4434.18546,0.44830
4432.25672,0.44459
4430.32797,0.44068
4428.39923,0.43681
4426.47048,0.43329
4424.54173,0.43018
4422.61299,0.42714
4420.68424,0.42400
4418.75550,0.42095
4416.82675,0.41807
4414.89801,0.41530
4412.96926,0.41276
4411.04052,0.41060
4409.11177,0.40848
4407.18303,0.40616
4405.25428,0.40416
4403.32554,0.40277
4401.39679,0.40149
4399.46805,0.40002
4397.53930,0.39896
4395.61056,0.39888
4393.68181,0.39939
4391.75306,0.40007
4389.82432,0.40092
4387.89557,0.40176
4385.96683,0.40247
4384.03808,0.40325
4382.10934,0.40412
4380.18059,0.40513
4378.25185,0.40648
4376.32310,0.40793
4374.39436,0.40936
4372.46561,0.41062
4370.53687,0.41149
4368.60812,0.41210
4366.67938,0.41255
4364.75063,0.41275
4362.82189,0.41263
4360.89314,0.41214
4358.96439,0.41143
4357.03565,0.41070
4355.10690,0.40992
4353.17816,0.40912
4351.24941,0.40838
4349.32067,0.40753
4347.39192,0.40652
4345.46318,0.40563
4343.53443,0.40481
4341.60569,0.40384
4339.67694,0.40275
4337.74820,0.40170
4335.81945,0.40070
4333.89071,0.39968
4331.96196,0.39850
4330.03321,0.39702
4328.10447,0.39555
4326.17572,0.39426
4324.24698,0.39298
4322.31823,0.39175
4320.38949,0.39057
4318.46074,0.38928
4316.53200,0.38783
4314.60325,0.38661
4312.67451,0.38593
4310.74576,0.38533
4308.81702,0.38423
4306.88827,0.38275
4304.95953,0.38128
4303.03078,0.38018
4301.10204,0.37935
4299.17329,0.37833
4297.24454,0.37708
4295.31580,0.37596
4293.38705,0.37493
4291.45831,0.37396
4289.52956,0.37324
4287.60082,0.37258
4285.67207,0.37150
4283.74333,0.37024
4281.81458,0.36948
4279.88584,0.36933
4277.95709,0.36915
4276.02835,0.36860
4274.09960,0.36811
4272.17086,0.36795
4270.24211,0.36807
4268.31336,0.36840
4266.38462,0.36862
4264.45587,0.36868
4262.52713,0.36877
4260.59838,0.36877
4258.66964,0.36864
4256.74089,0.36838
4254.81215,0.36794
4252.88340,0.36769
4250.95466,0.36788
4249.02591,0.36803
4247.09717,0.36762
4245.16842,0.36699
4243.23968,0.36686
4241.31093,0.36725
4239.38219,0.36783
4237.45344,0.36844
4235.52469,0.36922
4233.59595,0.37050
4231.66720,0.37205
4229.73846,0.37309
4227.80971,0.37323
4225.88097,0.37309
4223.95222,0.37330
4222.02348,0.37364
4220.09473,0.37379
4218.16599,0.37383
4216.23724,0.37377
4214.30850,0.37370
4212.37975,0.37398
4210.45101,0.37463
4208.52226,0.37529
4206.59352,0.37585
4204.66477,0.37644
4202.73602,0.37701
4200.80728,0.37773
4198.87853,0.37885
4196.94979,0.38007
4195.02104,0.38082
4193.09230,0.38103
4191.16355,0.38085
4189.23481,0.38052
4187.30606,0.38050
4185.37732,0.38078
4183.44857,0.38085
4181.51983,0.38065
4179.59108,0.38050
4177.66234,0.38057
4175.73359,0.38075
4173.80484,0.38088
4171.87610,0.38093
4169.94735,0.38123
4168.01861,0.38198
4166.08986,0.38269
4164.16112,0.38302
4162.23237,0.38327
4160.30363,0.38338
4158.37488,0.38305
4156.44614,0.38237
4154.51739,0.38161
4152.58865,0.38081
4150.65990,0.37984
4148.73116,0.37879
4146.80241,0.37791
4144.87367,0.37715
4142.94492,0.37631
4141.01617,0.37567
4139.08743,0.37540
4137.15868,0.37512
4135.22994,0.37455
4133.30119,0.37372
4131.37245,0.37268
4129.44370,0.37178
4127.51496,0.37103
4125.58621,0.37005
4123.65747,0.36869
4121.72872,0.36711
4119.79998,0.36555
4117.87123,0.36405
4115.94249,0.36244
4114.01374,0.36078
4112.08500,0.35908
4110.15625,0.35731
4108.22750,0.35554
4106.29876,0.35368
4104.37001,0.35161
4102.44127,0.34936
4100.51252,0.34702
4098.58378,0.34473
4096.65503,0.34263
4094.72629,0.34051
4092.79754,0.33815
4090.86880,0.33578
4088.94005,0.33351
4087.01131,0.33119
4085.08256,0.32888
4083.15382,0.32675
4081.22507,0.32475
4079.29632,0.32269
4077.36758,0.32044
4075.43883,0.31817
4073.51009,0.31618
4071.58134,0.31428
4069.65260,0.31215
4067.72385,0.31007
4065.79511,0.30808
4063.86636,0.30586
4061.93762,0.30330
4060.00887,0.30060
4058.08013,0.29803
4056.15138,0.29571
4054.22264,0.29362
4052.29389,0.29140
4050.36515,0.28885
4048.43640,0.28636
4046.50765,0.28435
4044.57891,0.28247
4042.65016,0.28031
4040.72142,0.27827
4038.79267,0.27664
4036.86393,0.27521
4034.93518,0.27395
4033.00644,0.27290
4031.07769,0.27206
4029.14895,0.27130
4027.22020,0.27044
4025.29146,0.26957
4023.36271,0.26912
4021.43397,0.26921
4019.50522,0.26933
4017.57648,0.26918
4015.64773,0.26929
4013.71898,0.26993
4011.79024,0.27060
4009.86149,0.27099
4007.93275,0.27128
4006.00400,0.27166
4004.07526,0.27220
4002.14651,0.27282
4000.21777,0.27352
3998.28902,0.27431
3996.36028,0.27524
3994.43153,0.27635
3992.50279,0.27750
3990.57404,0.27846
3988.64530,0.27915
3986.71655,0.27960
3984.78780,0.27992
3982.85906,0.28039
3980.93031,0.28107
3979.00157,0.28178
3977.07282,0.28258
3975.14408,0.28331
3973.21533,0.28389
3971.28659,0.28451
3969.35784,0.28494
3967.42910,0.28499
3965.50035,0.28521
3963.57161,0.28588
3961.64286,0.28664
3959.71412,0.28735
3957.78537,0.28805
3955.85663,0.28870
3953.92788,0.28932
3951.99913,0.28998
3950.07039,0.29082
3948.14164,0.29189
3946.21290,0.29288
3944.28415,0.29364
3942.35541,0.29431
3940.42666,0.29512
3938.49792,0.29626
3936.56917,0.29775
3934.64043,0.29922
3932.71168,0.30041
3930.78294,0.30154
3928.85419,0.30249
3926.92545,0.30325
3924.99670,0.30440
3923.06795,0.30592
3921.13921,0.30721
3919.21046,0.30831
3917.28172,0.30939
3915.35297,0.31026
3913.42423,0.31086
3911.49548,0.31129
3909.56674,0.31172
3907.63799,0.31255
3905.70925,0.31398
3903.78050,0.31564
3901.85176,0.31680
3899.92301,0.31731
3897.99427,0.31770
3896.06552,0.31839
3894.13678,0.31921
3892.20803,0.32000
3890.27928,0.32071
3888.35054,0.32154
3886.42179,0.32281
3884.49305,0.32425
3882.56430,0.32519
3880.63556,0.32567
3878.70681,0.32596
3876.77807,0.32615
3874.84932,0.32642
3872.92058,0.32721
3870.99183,0.32883
3869.06309,0.33078
3867.13434,0.33240
3865.20560,0.33418
3863.27685,0.33599
3861.34811,0.33704
3859.41936,0.33778
3857.49061,0.33864
3855.56187,0.33950
3853.63312,0.34083
3851.70438,0.34283
3849.77563,0.34425
3847.84689,0.34508
3845.91814,0.34574
3843.98940,0.34656
3842.06065,0.34769
3840.13191,0.34873
3838.20316,0.34951
3836.27442,0.35006
3834.34567,0.35033
3832.41693,0.35055
3830.48818,0.35082
3828.55943,0.35102
3826.63069,0.35120
3824.70194,0.35135
3822.77320,0.35138
3820.84445,0.35126
3818.91571,0.35109
3816.98696,0.35072
3815.05822,0.34998
3813.12947,0.34937
3811.20073,0.34915
3809.27198,0.34902
3807.34324,0.34891
3805.41449,0.34915
3803.48575,0.34961
3801.55700,0.34987
3799.62826,0.34981
3797.69951,0.34965
3795.77076,0.34938
3793.84202,0.34918
3791.91327,0.34934
3789.98453,0.34955
3788.05578,0.34929
3786.12704,0.34859
3784.19829,0.34808
3782.26955,0.34825
3780.34080,0.34865
3778.41206,0.34836
3776.48331,0.34752
3774.55457,0.34696
3772.62582,0.34650
3770.69708,0.34587
3768.76833,0.34547
3766.83959,0.34532
3764.91084,0.34501
3762.98209,0.34466
3761.05335,0.34438
3759.12460,0.34383
3757.19586,0.34297
3755.26711,0.34232
3753.33837,0.34207
3751.40962,0.34173
3749.48088,0.34054
3747.55213,0.33917
3745.62339,0.33818
3743.69464,0.33726
3741.76590,0.33625
3739.83715,0.33525
3737.90841,0.33409
3735.97966,0.33251
3734.05091,0.33082
3732.12217,0.32905
3730.19342,0.32741
3728.26468,0.32599
3726.33593,0.32448
3724.40719,0.32286
3722.47844,0.32084
3720.54970,0.31804
3718.62095,0.31514
3716.69221,0.31298
3714.76346,0.31147
3712.83472,0.30970
3710.90597,0.30691
3708.97723,0.30349
3707.04848,0.30011
3705.11974,0.29700
3703.19099,0.29404
3701.26224,0.29054
3699.33350,0.28656
3697.40475,0.28282
3695.47601,0.27940
3693.54726,0.27616
3691.61852,0.27278
3689.68977,0.26833
3687.76103,0.26253
3685.83228,0.25715
3683.90354,0.25260
3681.97479,0.24811
3680.04605,0.24367
3678.11730,0.23941
3676.18856,0.23390
3674.25981,0.22717
3672.33107,0.22144
3670.40232,0.21496
3668.47357,0.20742
3666.54483,0.20130
3664.61608,0.19578
3662.68734,0.19015
3660.75859,0.18476
3658.82985,0.17936
3656.90110,0.17323
3654.97236,0.16710
3653.04361,0.16242
3651.11487,0.15803
3649.18612,0.15197
3647.25738,0.14515
3645.32863,0.13959
3643.39989,0.13495
3641.47114,0.13045
3639.54239,0.12605
3637.61365,0.12184
3635.68490,0.11775
3633.75616,0.11397
3631.82741,0.11075
3629.89867,0.10698
3627.96992,0.10199
3626.04118,0.09806
3624.11243,0.09541
3622.18369,0.09290
3620.25494,0.08994
3618.32620,0.08669
3616.39745,0.08371
3614.46871,0.08070
3612.53996,0.07794
3610.61122,0.07593
3608.68247,0.07377
3606.75372,0.07104
3604.82498,0.06862
3602.89623,0.06658
3600.96749,0.06450
3599.03874,0.06254
3597.11000,0.06083
3595.18125,0.05919
3593.25251,0.05767
3591.32376,0.05652
3589.39502,0.05541
3587.46627,0.05359
3585.53753,0.05139
3583.60878,0.04970
3581.68004,0.04849
3579.75129,0.04745
3577.82254,0.04638
3575.89380,0.04508
3573.96505,0.04380
3572.03631,0.04297
3570.10756,0.04226
3568.17882,0.04101
3566.25007,0.03959
3564.32133,0.03896
3562.39258,0.03863
3560.46384,0.03808
3558.53509,0.03754
3556.60635,0.03702
3554.67760,0.03639
3552.74886,0.03573
3550.82011,0.03523
3548.89137,0.03483
3546.96262,0.03419
3545.03387,0.03321
3543.10513,0.03234
3541.17638,0.03194
3539.24764,0.03187
3537.31889,0.03153
3535.39015,0.03077
3533.46140,0.03012
3531.53266,0.02972
3529.60391,0.02911
3527.67517,0.02815
3525.74642,0.02744
3523.81768,0.02744
3521.88893,0.02765
3519.96019,0.02743
3518.03144,0.02671
3516.10270,0.02600
3514.17395,0.02585
3512.24520,0.02592
3510.31646,0.02563
3508.38771,0.02520
3506.45897,0.02501
3504.53022,0.02473
3502.60148,0.02413
3500.67273,0.02372
3498.74399,0.02385
3496.81524,0.02441
3494.88650,0.02496
3492.95775,0.02504
3491.02901,0.02472
3489.10026,0.02448
3487.17152,0.02460
3485.24277,0.02485
3483.31402,0.02494
3481.38528,0.02490
3479.45653,0.02482
3477.52779,0.02467
3475.59904,0.02449
3473.67030,0.02429
3471.74155,0.02400
3469.81281,0.02389
3467.88406,0.02415
3465.95532,0.02450
3464.02657,0.02481
3462.09783,0.02503
3460.16908,0.02483
3458.24034,0.02434
3456.31159,0.02403
3454.38285,0.02400
3452.45410,0.02408
3450.52535,0.02417
3448.59661,0.02440
3446.66786,0.02488
3444.73912,0.02552
3442.81037,0.02613
3440.88163,0.02648
3438.95288,0.02658
3437.02414,0.02665
3435.09539,0.02655
3433.16665,0.02605
3431.23790,0.02552
3429.30916,0.02538
3427.38041,0.02553
3425.45167,0.02583
3423.52292,0.02605
3421.59418,0.02608
3419.66543,0.02627
3417.73668,0.02664
3415.80794,0.02657
3413.87919,0.02592
3411.95045,0.02543
3410.02170,0.02547
3408.09296,0.02569
3406.16421,0.02583
3404.23547,0.02586
3402.30672,0.02579
3400.37798,0.02586
3398.44923,0.02617
3396.52049,0.02636
3394.59174,0.02617
3392.66300,0.02598
3390.73425,0.02621
3388.80550,0.02634
3386.87676,0.02608
3384.94801,0.02599
3383.01927,0.02617
3381.09052,0.02633
3379.16178,0.02634
3377.23303,0.02622
3375.30429,0.02608
3373.37554,0.02606
3371.44680,0.02609
3369.51805,0.02598
3367.58931,0.02591
3365.66056,0.02615
3363.73182,0.02647
3361.80307,0.02656
3359.87433,0.02658
3357.94558,0.02670
3356.01683,0.02667
3354.08809,0.02658
3352.15934,0.02661
3350.23060,0.02662
3348.30185,0.02666
3346.37311,0.02716
3344.44436,0.02808
3342.51562,0.02875
3340.58687,0.02889
3338.65813,0.02870
3336.72938,0.02845
3334.80064,0.02842
3332.87189,0.02852
3330.94315,0.02835
3329.01440,0.02800
3327.08566,0.02784
3325.15691,0.02794
3323.22816,0.02817
3321.29942,0.02824
3319.37067,0.02816
3317.44193,0.02824
3315.51318,0.02846
3313.58444,0.02865
3311.65569,0.02887
3309.72695,0.02912
3307.79820,0.02922
3305.86946,0.02906
3303.94071,0.02887
3302.01197,0.02882
3300.08322,0.02904
3298.15448,0.02956
3296.22573,0.03002
3294.29698,0.02998
3292.36824,0.02968
3290.43949,0.02955
3288.51075,0.02951
3286.58200,0.02943
3284.65326,0.02963
3282.72451,0.03012
3280.79577,0.03040
3278.86702,0.03028
3276.93828,0.03015
3275.00953,0.03019
3273.08079,0.03020
3271.15204,0.03019
3269.22330,0.03040
3267.29455,0.03073
3265.36581,0.03101
3263.43706,0.03118
3261.50831,0.03127
3259.57957,0.03142
3257.65082,0.03148
3255.72208,0.03131
3253.79333,0.03128
3251.86459,0.03141
3249.93584,0.03156
3248.00710,0.03195
3246.07835,0.03232
3244.14961,0.03238
3242.22086,0.03242
3240.29212,0.03262
3238.36337,0.03304
3236.43463,0.03336
3234.50588,0.03296
3232.57713,0.03232
3230.64839,0.03235
3228.71964,0.03282
3226.79090,0.03324
3224.86215,0.03354
3222.93341,0.03356
3221.00466,0.03337
3219.07592,0.03332
3217.14717,0.03336
3215.21843,0.03354
3213.28968,0.03404
3211.36094,0.03454
3209.43219,0.03469
3207.50345,0.03461
3205.57470,0.03447
3203.64596,0.03444
3201.71721,0.03469
3199.78846,0.03499
3197.85972,0.03510
3195.93097,0.03507
3194.00223,0.03505
3192.07348,0.03512
3190.14474,0.03525
3188.21599,0.03543
3186.28725,0.03556
3184.35850,0.03568
3182.42976,0.03612
3180.50101,0.03658
3178.57227,0.03668
3176.64352,0.03672
3174.71478,0.03688
3172.78603,0.03700
3170.85729,0.03709
3168.92854,0.03724
3166.99979,0.03747
3165.07105,0.03770
3163.14230,0.03802
3161.21356,0.03850
3159.28481,0.03905
3157.35607,0.03957
3155.42732,0.04005
3153.49858,0.04046
3151.56983,0.04083
3149.64109,0.04122
3147.71234,0.04167
3145.78360,0.04201
3143.85485,0.04206
3141.92611,0.04199
3139.99736,0.04214
3138.06861,0.04267
3136.13987,0.04334
3134.21112,0.04396
3132.28238,0.04448
3130.35363,0.04484
3128.42489,0.04515
3126.49614,0.04546
3124.56740,0.04583
3122.63865,0.04649
3120.70991,0.04728
3118.78116,0.04783
3116.85242,0.04838
3114.92367,0.04922
3112.99493,0.05014
3111.06618,0.05081
3109.13744,0.05122
3107.20869,0.05174
3105.27994,0.05253
3103.35120,0.05326
3101.42245,0.05370
3099.49371,0.05404
3097.56496,0.05465
3095.63622,0.05555
3093.70747,0.05644
3091.77873,0.05722
3089.84998,0.05794
3087.92124,0.05867
3085.99249,0.05920
3084.06375,0.05966
3082.13500,0.06047
3080.20626,0.06134
3078.27751,0.06195
3076.34877,0.06275
3074.42002,0.06381
3072.49127,0.06472
3070.56253,0.06529
3068.63378,0.06586
3066.70504,0.06680
3064.77629,0.06789
3062.84755,0.06866
3060.91880,0.06931
3058.99006,0.07015
3057.06131,0.07102
3055.13257,0.07193
3053.20382,0.07289
3051.27508,0.07376
3049.34633,0.07452
3047.41759,0.07521
3045.48884,0.07594
3043.56009,0.07684
3041.63135,0.07780
3039.70260,0.07870
3037.77386,0.07953
3035.84511,0.08020
3033.91637,0.08075
3031.98762,0.08137
3030.05888,0.08220
3028.13013,0.08317
3026.20139,0.08401
3024.27264,0.08469
3022.34390,0.08536
3020.41515,0.08603
3018.48641,0.08667
3016.55766,0.08732
3014.62892,0.08788
3012.70017,0.08823
3010.77142,0.08851
3008.84268,0.08880
3006.91393,0.08899
3004.98519,0.08901
3003.05644,0.08893
3001.12770,0.08882
2999.19895,0.08863
2997.27021,0.08835
2995.34146,0.08802
2993.41272,0.08735
2991.48397,0.08609
2989.55523,0.08426
2987.62648,0.08204
2985.69774,0.07953
2983.76899,0.07698
2981.84025,0.07492
2979.91150,0.07345
2977.98275,0.07200
2976.05401,0.06993
2974.12526,0.06711
2972.19652,0.06410
2970.26777,0.06155
2968.33903,0.05978
2966.41028,0.05888
2964.48154,0.05846
2962.55279,0.05799
2960.62405,0.05731
2958.69530,0.05639
2956.76656,0.05529
2954.83781,0.05412
2952.90907,0.05284
2950.98032,0.05165
2949.05157,0.05070
2947.12283,0.04983
2945.19408,0.04902
2943.26534,0.04849
2941.33659,0.04824
2939.40785,0.04779
2937.47910,0.04696
2935.55036,0.04622
2933.62161,0.04568
2931.69287,0.04491
2929.76412,0.04400
2927.83538,0.04338
2925.90663,0.04305
2923.97789,0.04270
2922.04914,0.04213
2920.12040,0.04155
2918.19165,0.04113
2916.26290,0.04071
2914.33416,0.04003
2912.40541,0.03940
2910.47667,0.03910
2908.54792,0.03882
2906.61918,0.03847
2904.69043,0.03840
2902.76169,0.03863
2900.83294,0.03865
2898.90420,0.03821
2896.97545,0.03789
2895.04671,0.03816
2893.11796,0.03883
2891.18922,0.03961
2889.26047,0.04032
2887.33172,0.04075
2885.40298,0.04105
2883.47423,0.04154
2881.54549,0.04204
2879.61674,0.04250
2877.68800,0.04302
2875.75925,0.04344
2873.83051,0.04368
2871.90176,0.04404
2869.97302,0.04474
2868.04427,0.04569
2866.11553,0.04675
2864.18678,0.04774
2862.25804,0.04853
2860.32929,0.04926
2858.40055,0.04997
2856.47180,0.05061
2854.54305,0.05134
2852.61431,0.05221
2850.68556,0.05335
2848.75682,0.05487
2846.82807,0.05654
2844.89933,0.05817
2842.97058,0.05985
2841.04184,0.06160
2839.11309,0.06329
2837.18435,0.06480
2835.25560,0.06615
2833.32686,0.06742
2831.39811,0.06864
2829.46937,0.06990
2827.54062,0.07110
2825.61188,0.07207
2823.68313,0.07301
2821.75438,0.07416
2819.82564,0.07547
2817.89689,0.07683
2815.96815,0.07816
2814.03940,0.07951
2812.11066,0.08103
2810.18191,0.08252
2808.25317,0.08362
2806.32442,0.08445
2804.39568,0.08537
2802.46693,0.08646
2800.53819,0.08770
2798.60944,0.08897
2796.68070,0.09005
2794.75195,0.09102
2792.82320,0.09200
2790.89446,0.09293
2788.96571,0.09378
2787.03697,0.09447
2785.10822,0.09511
2783.17948,0.09581
2781.25073,0.09651
2779.32199,0.09721
2777.39324,0.09786
2775.46450,0.09824
2773.53575,0.09851
2771.60701,0.09897
2769.67826,0.09962
2767.74952,0.10027
2765.82077,0.10097
2763.89203,0.10166
2761.96328,0.10208
2760.03453,0.10232
2758.10579,0.10255
2756.17704,0.10276
2754.24830,0.10296
2752.31955,0.10317
2750.39081,0.10333
2748.46206,0.10343
2746.53332,0.10336
2744.60457,0.10300
2742.67583,0.10257
2740.74708,0.10242
2738.81834,0.10258
2736.88959,0.10282
2734.96085,0.10290
2733.03210,0.10298
2731.10336,0.10345
2729.17461,0.10415
2727.24586,0.10472
2725.31712,0.10515
2723.38837,0.10558
2721.45963,0.10601
2719.53088,0.10645
2717.60214,0.10699
2715.67339,0.10776
2713.74465,0.10871
2711.81590,0.10972
2709.88716,0.11077
2707.95841,0.11172
2706.02967,0.11248
2704.10092,0.11329
2702.17218,0.11429
2700.24343,0.11532
2698.31468,0.11643
2696.38594,0.11766
2694.45719,0.11878
2692.52845,0.11974
2690.59970,0.12078
2688.67096,0.12204
2686.74221,0.12346
2684.81347,0.12486
2682.88472,0.12609
2680.95598,0.12720
2679.02723,0.12826
2677.09849,0.12929
2675.16974,0.13045
2673.24100,0.13168
2671.31225,0.13271
2669.38351,0.13342
2667.45476,0.13397
2665.52601,0.13468
2663.59727,0.13559
2661.66852,0.13646
2659.73978,0.13717
2657.81103,0.13780
2655.88229,0.13850
2653.95354,0.13941
2652.02480,0.14051
2650.09605,0.14161
2648.16731,0.14251
2646.23856,0.14317
2644.30982,0.14390
2642.38107,0.14492
2640.45233,0.14603
2638.52358,0.14707
2636.59484,0.14807
2634.66609,0.14893
2632.73734,0.14965
2630.80860,0.15033
2628.87985,0.15110
2626.95111,0.15202
2625.02236,0.15296
2623.09362,0.15377
2621.16487,0.15452
2619.23613,0.15522
2617.30738,0.15589
2615.37864,0.15658
2613.44989,0.15719
2611.52115,0.15764
2609.59240,0.15798
2607.66366,0.15845
2605.73491,0.15915
2603.80616,0.15986
2601.87742,0.16053
2599.94867,0.16134
2598.01993,0.16220
2596.09118,0.16286
2594.16244,0.16342
2592.23369,0.16396
2590.30495,0.16433
2588.37620,0.16458
2586.44746,0.16487
2584.51871,0.16520
2582.58997,0.16553
2580.66122,0.16597
2578.73248,0.16648
2576.80373,0.16691
2574.87499,0.16731
2572.94624,0.16768
2571.01749,0.16784
2569.08875,0.16769
2567.16000,0.16741
2565.23126,0.16725
2563.30251,0.16719
2561.37377,0.16704
2559.44502,0.16684
2557.51628,0.16677
2555.58753,0.16689
2553.65879,0.16700
2551.73004,0.16689
2549.80130,0.16661
2547.87255,0.16627
2545.94381,0.16594
2544.01506,0.16567
2542.08631,0.16546
2540.15757,0.16542
2538.22882,0.16563
2536.30008,0.16590
2534.37133,0.16609
2532.44259,0.16631
2530.51384,0.16664
2528.58510,0.16697
2526.65635,0.16732
2524.72761,0.16772
2522.79886,0.16816
2520.87012,0.16867
2518.94137,0.16930
2517.01263,0.16994
2515.08388,0.17049
2513.15514,0.17116
2511.22639,0.17210
2509.29764,0.17322
2507.36890,0.17444
2505.44015,0.17579
2503.51141,0.17713
2501.58266,0.17830
2499.65392,0.17931
2497.72517,0.18024
2495.79643,0.18122
2493.86768,0.18232
2491.93894,0.18333
2490.01019,0.18419
2488.08145,0.18513
2486.15270,0.18613
2484.22396,0.18697
2482.29521,0.18771
2480.36647,0.18865
2478.43772,0.18989
2476.50897,0.19126
2474.58023,0.19248
2472.65148,0.19355
2470.72274,0.19455
2468.79399,0.19542
2466.86525,0.19609
2464.93650,0.19668
2463.00776,0.19721
2461.07901,0.19771
2459.15027,0.19839
2457.22152,0.19936
2455.29278,0.20045
2453.36403,0.20144
2451.43529,0.20239
2449.50654,0.20341
2447.57779,0.20436
2445.64905,0.20517
2443.72030,0.20615
2441.79156,0.20735
2439.86281,0.20854
2437.93407,0.20980
2436.00532,0.21116
2434.07658,0.21233
2432.14783,0.21343
2430.21909,0.21472
2428.29034,0.21611
2426.36160,0.21748
2424.43285,0.21881
2422.50411,0.22009
2420.57536,0.22128
2418.64662,0.22236
2416.71787,0.22340
2414.78912,0.22438
2412.86038,0.22530
2410.93163,0.22610
2409.00289,0.22669
2407.07414,0.22733
2405.14540,0.22819
2403.21665,0.22915
2401.28791,0.23005
2399.35916,0.23085
2397.43042,0.23161
2395.50167,0.23234
2393.57293,0.23303
2391.64418,0.23372
2389.71544,0.23451
2387.78669,0.23537
2385.85795,0.23618
2383.92920,0.23685
2382.00045,0.23756
2380.07171,0.23842
2378.14296,0.23932
2376.21422,0.24020
2374.28547,0.24110
2372.35673,0.24186
2370.42798,0.24234
2368.49924,0.24280
2366.57049,0.24355
2364.64175,0.24457
2362.71300,0.24561
2360.78426,0.24637
2358.85551,0.24702
2356.92677,0.24777
2354.99802,0.24848
2353.06927,0.24909
2351.14053,0.24967
2349.21178,0.25043
2347.28304,0.25164
2345.35429,0.25307
2343.42555,0.25417
2341.49680,0.25495
2339.56806,0.25569
2337.63931,0.25638
2335.71057,0.25696
2333.78182,0.25747
2331.85308,0.25800
2329.92433,0.25862
2327.99559,0.25933
2326.06684,0.25982
2324.13810,0.25992
2322.20935,0.26006
2320.28060,0.26066
2318.35186,0.26133
2316.42311,0.26167
2314.49437,0.26193
2312.56562,0.26224
2310.63688,0.26249
2308.70813,0.26274
2306.77939,0.26294
2304.85064,0.26285
2302.92190,0.26243
2300.99315,0.26191
2299.06441,0.26147
2297.13566,0.26115
2295.20692,0.26092
2293.27817,0.26061
2291.34943,0.26015
2289.42068,0.25961
2287.49193,0.25909
2285.56319,0.25863
2283.63444,0.25814
2281.70570,0.25767
2279.77695,0.25723
2277.84821,0.25666
2275.91946,0.25589
2273.99072,0.25496
2272.06197,0.25384
2270.13323,0.25247
2268.20448,0.25097
2266.27574,0.24944
2264.34699,0.24797
2262.41825,0.24659
2260.48950,0.24530
2258.56075,0.24414
2256.63201,0.24310
2254.70326,0.24210
2252.77452,0.24118
2250.84577,0.24047
2248.91703,0.23995
2246.98828,0.23933
2245.05954,0.23841
2243.13079,0.23750
2241.20205,0.23692
2239.27330,0.23648
2237.34456,0.23590
2235.41581,0.23530
2233.48707,0.23488
2231.55832,0.23466
2229.62958,0.23455
2227.70083,0.23456
2225.77208,0.23463
2223.84334,0.23477
2221.91459,0.23505
2219.98585,0.23537
2218.05710,0.23561
2216.12836,0.23573
2214.19961,0.23573
2212.27087,0.23567
2210.34212,0.23576
2208.41338,0.23600
2206.48463,0.23608
2204.55589,0.23591
2202.62714,0.23573
2200.69840,0.23552
2198.76965,0.23517
2196.84090,0.23459
2194.91216,0.23379
2192.98341,0.23297
2191.05467,0.23232
2189.12592,0.23161
2187.19718,0.23060
2185.26843,0.22931
2183.33969,0.22780
2181.41094,0.22626
2179.48220,0.22482
2177.55345,0.22346
2175.62471,0.22210
2173.69596,0.22058
2171.76722,0.21890
2169.83847,0.21727
2167.90973,0.21583
2165.98098,0.21449
2164.05223,0.21323
2162.12349,0.21224
2160.19474,0.21148
2158.26600,0.21069
2156.33725,0.20979
2154.40851,0.20899
2152.47976,0.20838
2150.55102,0.20794
2148.62227,0.20759
2146.69353,0.20713
2144.76478,0.20651
2142.83604,0.20587
2140.90729,0.20534
2138.97855,0.20496
2137.04980,0.20469
2135.12106,0.20440
2133.19231,0.20417
2131.26356,0.20432
2129.33482,0.20491
2127.40607,0.20564
2125.47733,0.20629
2123.54858,0.20697
2121.61984,0.20784
2119.69109,0.20886
2117.76235,0.20993
2115.83360,0.21097
2113.90486,0.21190
2111.97611,0.21282
2110.04737,0.21388
2108.11862,0.21513
2106.18988,0.21641
2104.26113,0.21751
2102.33238,0.21852
2100.40364,0.21950
2098.47489,0.22031
2096.54615,0.22103
2094.61740,0.22179
2092.68866,0.22251
2090.75991,0.22329
2088.83117,0.22420
2086.90242,0.22503
2084.97368,0.22560
2083.04493,0.22599
2081.11619,0.22623
2079.18744,0.22620
2077.25870,0.22594
2075.32995,0.22567
2073.40121,0.22550
2071.47246,0.22534
2069.54371,0.22517
2067.61497,0.22498
2065.68622,0.22478
2063.75748,0.22468
2061.82873,0.22471
2059.89999,0.22475
2057.97124,0.22472
2056.04250,0.22459
2054.11375,0.22437
2052.18501,0.22420
2050.25626,0.22423
2048.32752,0.22446
2046.39877,0.22474
2044.47003,0.22507
2042.54128,0.22554
2040.61254,0.22620
2038.68379,0.22711
2036.75504,0.22823
2034.82630,0.22959
2032.89755,0.23120
2030.96881,0.23292
2029.04006,0.23462
2027.11132,0.23636
2025.18257,0.23815
2023.25383,0.24003
2021.32508,0.24209
2019.39634,0.24431
2017.46759,0.24654
2015.53885,0.24852
2013.61010,0.25005
2011.68136,0.25127
2009.75261,0.25254
2007.82386,0.25386
2005.89512,0.25487
2003.96637,0.25543
2002.03763,0.25589
2000.10888,0.25639
1998.18014,0.25672
1996.25139,0.25693
1994.32265,0.25729
1992.39390,0.25794
1990.46516,0.25871
1988.53641,0.25951
1986.60767,0.26040
1984.67892,0.26131
1982.75018,0.26224
1980.82143,0.26332
1978.89269,0.26447
1976.96394,0.26557
1975.03519,0.26663
1973.10645,0.26769
1971.17770,0.26865
1969.24896,0.26950
1967.32021,0.27040
1965.39147,0.27131
1963.46272,0.27210
1961.53398,0.27288
1959.60523,0.27387
1957.67649,0.27505
1955.74774,0.27627
1953.81900,0.27753
1951.89025,0.27896
1949.96151,0.28048
1948.03276,0.28206
1946.10402,0.28363
1944.17527,0.28510
1942.24652,0.28644
1940.31778,0.28772
1938.38903,0.28896
1936.46029,0.29020
1934.53154,0.29141
1932.60280,0.29249
1930.67405,0.29343
1928.74531,0.29435
1926.81656,0.29524
1924.88782,0.29605
1922.95907,0.29672
1921.03033,0.29729
1919.10158,0.29796
1917.17284,0.29863
1915.24409,0.29907
1913.31534,0.29953
1911.38660,0.30025
1909.45785,0.30105
1907.52911,0.30171
1905.60036,0.30222
1903.67162,0.30260
1901.74287,0.30287
1899.81413,0.30314
1897.88538,0.30336
1895.95664,0.30329
1894.02789,0.30306
1892.09915,0.30297
1890.17040,0.30303
1888.24166,0.30303
1886.31291,0.30281
1884.38417,0.30255
1882.45542,0.30235
1880.52667,0.30213
1878.59793,0.30181
1876.66918,0.30150
1874.74044,0.30124
1872.81169,0.30105
1870.88295,0.30094
1868.95420,0.30075
1867.02546,0.30013
1865.09671,0.29922
1863.16797,0.29849
1861.23922,0.29796
1859.31048,0.29738
1857.38173,0.29664
1855.45299,0.29575
1853.52424,0.29468
1851.59549,0.29352
1849.66675,0.29234
1847.73800,0.29121
1845.80926,0.29000
1843.88051,0.28844
1841.95177,0.28685
1840.02302,0.28572
1838.09428,0.28488
1836.16553,0.28408
1834.23679,0.28335
1832.30804,0.28286
1830.37930,0.28232
1828.45055,0.28135
1826.52181,0.28026
1824.59306,0.27925
1822.66432,0.27824
1820.73557,0.27721
1818.80682,0.27612
1816.87808,0.27498
1814.94933,0.27378
1813.02059,0.27253
1811.09184,0.27124
1809.16310,0.26992
1807.23435,0.26869
1805.30561,0.26753
1803.37686,0.26630
1801.44812,0.26494
1799.51937,0.26353
1797.59063,0.26201
1795.66188,0.26056
1793.73314,0.25942
1791.80439,0.25825
1789.87565,0.25695
1787.94690,0.25583
1786.01815,0.25467
1784.08941,0.25344
1782.16066,0.25238
1780.23192,0.25132
1778.30317,0.25006
1776.37443,0.24876
1774.44568,0.24752
1772.51694,0.24621
1770.58819,0.24471
1768.65945,0.24318
1766.73070,0.24169
1764.80196,0.24038
1762.87321,0.23917
1760.94447,0.23783
1759.01572,0.23649
1757.08697,0.23503
1755.15823,0.23349
1753.22948,0.23229
1751.30074,0.23105
1749.37199,0.22922
1747.44325,0.22712
1745.51450,0.22516
1743.58576,0.22325
1741.65701,0.22124
1739.72827,0.21916
1737.79952,0.21737
1735.87078,0.21580
1733.94203,0.21332
1732.01329,0.21034
1730.08454,0.20798
1728.15580,0.20578
1726.22705,0.20374
1724.29830,0.20176
1722.36956,0.19979
1720.44081,0.19815
1718.51207,0.19641
1716.58332,0.19370
1714.65458,0.19055
1712.72583,0.18772
1710.79709,0.18499
1708.86834,0.18225
1706.93960,0.17936
1705.01085,0.17626
1703.08211,0.17346
1701.15336,0.17020
1699.22462,0.16605
1697.29587,0.16246
1695.36713,0.15853
1693.43838,0.15445
1691.50963,0.15089
1689.58089,0.14717
1687.65214,0.14383
1685.72340,0.14065
1683.79465,0.13579
1681.86591,0.13087
1679.93716,0.12725
1678.00842,0.12411
1676.07967,0.12073
1674.15093,0.11707
1672.22218,0.11393
1670.29344,0.11077
1668.36469,0.10721
1666.43595,0.10450
1664.50720,0.10244
1662.57845,0.10023
1660.64971,0.09807
1658.72096,0.09644
1656.79222,0.09552
1654.86347,0.09491
1652.93473,0.09331
1651.00598,0.09155
1649.07724,0.09089
1647.14849,0.09060
1645.21975,0.09028
1643.29100,0.09002
1641.36226,0.08988
1639.43351,0.08990
1637.50477,0.09010
1635.57602,0.09067
1633.64728,0.09151
1631.71853,0.09236
1629.78978,0.09352
1627.86104,0.09511
1625.93229,0.09685
1624.00355,0.09873
1622.07480,0.10067
1620.14606,0.10238
1618.21731,0.10418
1616.28857,0.10637
1614.35982,0.10823
1612.43108,0.10977
1610.50233,0.11125
1608.57359,0.11254
1606.64484,0.11374
1604.71610,0.11492
1602.78735,0.11601
1600.85861,0.11707
1598.92986,0.11813
1597.00111,0.11911
1595.07237,0.11997
1593.14362,0.12064
1591.21488,0.12127
1589.28613,0.12220
1587.35739,0.12327
1585.42864,0.12407
1583.49990,0.12462
1581.57115,0.12529
1579.64241,0.12613
1577.71366,0.12707
1575.78492,0.12822
1573.85617,0.12935
1571.92743,0.13028
1569.99868,0.13105
1568.06993,0.13155
1566.14119,0.13183
1564.21244,0.13209
1562.28370,0.13250
1560.35495,0.13310
1558.42621,0.13336
1556.49746,0.13292
1554.56872,0.13255
1552.63997,0.13224
1550.71123,0.13179
1548.78248,0.13120
1546.85374,0.13056
1544.92499,0.12983
1542.99625,0.12898
1541.06750,0.12796
1539.13876,0.12660
1537.21001,0.12590
1535.28126,0.12575
1533.35252,0.12560
1531.42377,0.12537
1529.49503,0.12522
1527.56628,0.12508
1525.63754,0.12470
1523.70879,0.12395
1521.78005,0.12239
1519.85130,0.12033
1517.92256,0.11855
1515.99381,0.11671
1514.06507,0.11474
1512.13632,0.11294
1510.20758,0.11155
1508.27883,0.11004
1506.35008,0.10696
1504.42134,0.10380
1502.49259,0.10164
1500.56385,0.09953
1498.63510,0.09693
1496.70636,0.09361
1494.77761,0.09020
1492.84887,0.08721
1490.92012,0.08367
1488.99138,0.07881
1487.06263,0.07371
1485.13389,0.06934
1483.20514,0.06562
1481.27640,0.06247
1479.34765,0.06020
1477.41891,0.05854
1475.49016,0.05677
1473.56141,0.05450
1471.63267,0.05203
1469.70392,0.05021
1467.77518,0.04883
1465.84643,0.04731
1463.91769,0.04574
1461.98894,0.04472
1460.06020,0.04407
1458.13145,0.04296
1456.20271,0.04120
1454.27396,0.03993
1452.34522,0.03914
1450.41647,0.03844
1448.48773,0.03758
1446.55898,0.03660
1444.63024,0.03594
1442.70149,0.03554
1440.77274,0.03517
1438.84400,0.03483
1436.91525,0.03416
1434.98651,0.03315
1433.05776,0.03257
1431.12902,0.03253
1429.20027,0.03274
1427.27153,0.03307
1425.34278,0.03349
1423.41404,0.03402
1421.48529,0.03464
1419.55655,0.03527
1417.62780,0.03591
1415.69906,0.03671
1413.77031,0.03757
1411.84156,0.03818
1409.91282,0.03844
1407.98407,0.03853
1406.05533,0.03852
1404.12658,0.03839
1402.19784,0.03826
1400.26909,0.03802
1398.34035,0.03752
1396.41160,0.03681
1394.48286,0.03603
1392.55411,0.03540
1390.62537,0.03496
1388.69662,0.03426
1386.76788,0.03291
1384.83913,0.03126
1382.91039,0.02979
1380.98164,0.02872
1379.05289,0.02813
1377.12415,0.02782
1375.19540,0.02770
1373.26666,0.02777
1371.33791,0.02791
1369.40917,0.02800
1367.48042,0.02812
1365.55168,0.02845
1363.62293,0.02896
1361.69419,0.02952
1359.76544,0.03015
1357.83670,0.03085
1355.90795,0.03139
1353.97921,0.03182
1352.05046,0.03225
1350.12172,0.03251
1348.19297,0.03240
1346.26422,0.03200
1344.33548,0.03160
1342.40673,0.03131
1340.47799,0.03095
1338.54924,0.03055
1336.62050,0.03042
1334.69175,0.03074
1332.76301,0.03142
1330.83426,0.03201
1328.90552,0.03216
1326.97677,0.03205
1325.04803,0.03195
1323.11928,0.03180
1321.19054,0.03147
1319.26179,0.03114
1317.33304,0.03105
1315.40430,0.03125
1313.47555,0.03171
1311.54681,0.03248
1309.61806,0.03352
1307.68932,0.03475
1305.76057,0.03602
1303.83183,0.03714
1301.90308,0.03803
1299.97434,0.03874
1298.04559,0.03935
1296.11685,0.03982
1294.18810,0.03997
1292.25936,0.03977
1290.33061,0.03943
1288.40187,0.03893
1286.47312,0.03807
1284.54437,0.03698
1282.61563,0.03602
1280.68688,0.03558
1278.75814,0.03581
1276.82939,0.03650
1274.90065,0.03737
1272.97190,0.03822
1271.04316,0.03871
1269.11441,0.03869
1267.18567,0.03847
1265.25692,0.03834
1263.32818,0.03838
1261.39943,0.03869
1259.47069,0.03916
1257.54194,0.03954
1255.61320,0.03968
1253.68445,0.03964
1251.75570,0.03958
1249.82696,0.03959
1247.89821,0.03943
1245.96947,0.03892
1244.04072,0.03830
1242.11198,0.03781
1240.18323,0.03723
1238.25449,0.03644
1236.32574,0.03576
1234.39700,0.03546
1232.46825,0.03555
1230.53951,0.03580
1228.61076,0.03594
1226.68202,0.03604
1224.75327,0.03644
1222.82452,0.03725
1220.89578,0.03797
1218.96703,0.03818
1217.03829,0.03786
1215.10954,0.03714
1213.18080,0.03584
1211.25205,0.03395
1209.32331,0.03197
1207.39456,0.03034
1205.46582,0.02923
1203.53707,0.02854
1201.60833,0.02810
1199.67958,0.02786
1197.75084,0.02773
1195.82209,0.02786
1193.89335,0.02838
1191.96460,0.02886
1190.03585,0.02896
1188.10711,0.02868
1186.17836,0.02802
1184.24962,0.02726
1182.32087,0.02649
1180.39213,0.02548
1178.46338,0.02434
1176.53464,0.02370
1174.60589,0.02397
1172.67715,0.02508
1170.74840,0.02675
1168.81966,0.02867
1166.89091,0.03033
1164.96217,0.03137
1163.03342,0.03193
1161.10467,0.03199
1159.17593,0.03137
1157.24718,0.03046
1155.31844,0.02958
1153.38969,0.02858
1151.46095,0.02748
1149.53220,0.02642
1147.60346,0.02552
1145.67471,0.02475
1143.74597,0.02400
1141.81722,0.02308
1139.88848,0.02193
1137.95973,0.02086
1136.03099,0.02001
1134.10224,0.01944
1132.17350,0.01934
1130.24475,0.01962
1128.31600,0.02024
1126.38726,0.02122
1124.45851,0.02232
1122.52977,0.02354
1120.60102,0.02481
1118.67228,0.02582
1116.74353,0.02669
1114.81479,0.02767
1112.88604,0.02868
1110.95730,0.02935
1109.02855,0.02931
1107.09981,0.02866
1105.17106,0.02788
1103.24232,0.02731
1101.31357,0.02710
1099.38483,0.02726
1097.45608,0.02753
1095.52733,0.02767
1093.59859,0.02770
1091.66984,0.02774
1089.74110,0.02826
1087.81235,0.02988
1085.88361,0.03217
1083.95486,0.03423
1082.02612,0.03597
1080.09737,0.03758
1078.16863,0.03881
1076.23988,0.03953
1074.31114,0.04015
1072.38239,0.04092
1070.45365,0.04178
1068.52490,0.04288
1066.59615,0.04434
1064.66741,0.04608
1062.73866,0.04778
1060.80992,0.04894
1058.88117,0.04902
1056.95243,0.04827
1055.02368,0.04730
1053.09494,0.04615
1051.16619,0.04490
1049.23745,0.04385
1047.30870,0.04288
1045.37996,0.04191
1043.45121,0.04140
1041.52247,0.04151
1039.59372,0.04209
1037.66498,0.04312
1035.73623,0.04442
1033.80748,0.04560
1031.87874,0.04633
1029.94999,0.04649
1028.02125,0.04646
1026.09250,0.04648
1024.16376,0.04637
1022.23501,0.04612
1020.30627,0.04617
1018.37752,0.04653
1016.44878,0.04685
1014.52003,0.04719
1012.59129,0.04756
1010.66254,0.04745
1008.73380,0.04672
1006.80505,0.04593
1004.87631,0.04563
1002.94756,0.04583
1001.01881,0.04631
999.09007,0.04703
997.16132,0.04816
995.23258,0.04962
993.30383,0.05105
991.37509,0.05231
989.44634,0.05346
987.51760,0.05472
985.58885,0.05642
983.66011,0.05881
981.73136,0.06186
979.80262,0.06528
977.87387,0.06840
975.94513,0.07054
974.01638,0.07172
972.08763,0.07221
970.15889,0.07222
968.23014,0.07243
966.30140,0.07345
964.37265,0.07543
962.44391,0.07833
960.51516,0.08198
958.58642,0.08621
956.65767,0.09096
954.72893,0.09586
952.80018,0.10024
950.87144,0.10380
948.94269,0.10652
947.01395,0.10835
945.08520,0.10960
943.15646,0.11080
941.22771,0.11174
939.29896,0.11195
937.37022,0.11166
935.44147,0.11123
933.51273,0.11074
931.58398,0.11034
929.65524,0.11021
927.72649,0.11033
925.79775,0.11064
923.86900,0.11096
921.94026,0.11081
920.01151,0.10979
918.08277,0.10785
916.15402,0.10504
914.22528,0.10140
912.29653,0.09701
910.36779,0.09230
908.43904,0.08774
906.51029,0.08344
904.58155,0.07919
902.65280,0.07491
900.72406,0.07085
898.79531,0.06733
896.86657,0.06514
894.93782,0.06580
893.00908,0.07001
891.08033,0.07644
889.15159,0.08331
887.22284,0.08984
885.29410,0.09588
883.36535,0.10125
881.43661,0.10601
879.50786,0.11019
877.57911,0.11370
875.65037,0.11655
873.72162,0.11891
871.79288,0.12097
869.86413,0.12283
867.93539,0.12414
866.00664,0.12455
864.07790,0.12441
862.14915,0.12428
860.22041,0.12407
858.29166,0.12327
856.36292,0.12203
854.43417,0.12108
852.50543,0.12033
850.57668,0.11924
848.64794,0.11806
846.71919,0.11693
844.79044,0.11562
842.86170,0.11439
840.93295,0.11331
839.00421,0.11202
837.07546,0.11057
835.14672,0.10915
833.21797,0.10789
831.28923,0.10690
829.36048,0.10599
827.43174,0.10507
825.50299,0.10404
823.57425,0.10278
821.64550,0.10141
819.71676,0.10005
817.78801,0.09876
815.85926,0.09768
813.93052,0.09663
812.00177,0.09542
810.07303,0.09427
808.14428,0.09311
806.21554,0.09168
804.28679,0.09021
802.35805,0.08901
800.42930,0.08803
798.50056,0.08697
796.57181,0.08570
794.64307,0.08452
792.71432,0.08354
790.78558,0.08254
788.85683,0.08137
786.92809,0.08002
784.99934,0.07863
783.07059,0.07744
781.14185,0.07650
779.21310,0.07537
777.28436,0.07389
775.35561,0.07234
773.42687,0.07106
771.49812,0.07009
769.56938,0.06913
767.64063,0.06808
765.71189,0.06681
763.78314,0.06533
761.85440,0.06415
759.92565,0.06335
757.99691,0.06230
756.06816,0.06094
754.13942,0.05997
752.21067,0.05930
750.28192,0.05825
748.35318,0.05688
746.42443,0.05559
744.49569,0.05431
742.56694,0.05292
740.63820,0.05167
738.70945,0.05078
736.78071,0.05004
734.85196,0.04921
732.92322,0.04821
730.99447,0.04710
729.06573,0.04598
727.13698,0.04485
725.20824,0.04368
723.27949,0.04248
721.35074,0.04134
719.42200,0.04053
717.49325,0.04013
715.56451,0.03985
713.63576,0.03958
711.70702,0.03940
709.77827,0.03941
707.84953,0.03978
705.92078,0.04036
703.99204,0.04077
702.06329,0.04057
700.13455,0.03993
698.20580,0.03957
696.27706,0.03955
694.34831,0.03962
692.41957,0.03966
690.49082,0.03953
688.56207,0.03924
686.63333,0.03858
684.70458,0.03755
682.77584,0.03681
680.84709,0.03650
678.91835,0.03617
676.98960,0.03589
675.06086,0.03580
673.13211,0.03570
671.20337,0.03547
669.27462,0.03533
667.34588,0.03568
665.41713,0.03618
663.48839,0.03654
661.55964,0.03706
659.63090,0.03773
657.70215,0.03813
655.77340,0.03809
653.84466,0.03783
651.91591,0.03760
649.98717,0.03736
648.05842,0.03733
646.12968,0.03766
644.20093,0.03780
642.27219,0.03734
640.34344,0.03646
638.41470,0.03560
636.48595,0.03518
634.55721,0.03526
632.62846,0.03557
630.69972,0.03552
628.77097,0.03504
626.84222,0.03466
624.91348,0.03418
622.98473,0.03335
621.05599,0.03322
619.12724,0.03453
617.19850,0.03593
615.26975,0.03597
613.34101,0.03541
611.41226,0.03559
609.48352,0.03650
607.55477,0.03777
605.62603,0.03917
603.69728,0.04001
601.76854,0.04033
599.83979,0.03997
