7497.03301,0.81222
7495.10426,0.81367
7493.17552,0.81769
7491.24677,0.82245
7489.31803,0.82194
7487.38928,0.81588
7485.46054,0.81069
7483.53179,0.81059
7481.60305,0.81115
7479.67430,0.80774
7477.74556,0.80451
7475.81681,0.80499
7473.88807,0.80730
7471.95932,0.81088
7470.03057,0.81318
7468.10183,0.81049
7466.17308,0.80785
7464.24434,0.80918
7462.31559,0.80877
7460.38685,0.80542
7458.45810,0.80346
7456.52936,0.80268
7454.60061,0.80156
7452.67187,0.79980
7450.74312,0.79743
7448.81438,0.79474
7446.88563,0.79211
7444.95689,0.79020
7443.02814,0.78981
7441.09940,0.79220
7439.17065,0.79467
7437.24190,0.79183
7435.31316,0.78773
7433.38441,0.78863
7431.45567,0.79017
7429.52692,0.78824
7427.59818,0.78728
7425.66943,0.79077
7423.74069,0.79399
7421.81194,0.79292
7419.88320,0.79110
7417.95445,0.78976
7416.02571,0.78491
7414.09696,0.77781
7412.16822,0.77398
7410.23947,0.77552
7408.31073,0.78073
7406.38198,0.78387
7404.45323,0.77999
7402.52449,0.77402
7400.59574,0.77221
7398.66700,0.77215
7396.73825,0.77217
7394.80951,0.77357
7392.88076,0.77274
7390.95202,0.76951
7389.02327,0.76985
7387.09453,0.77216
7385.16578,0.77355
7383.23704,0.77597
7381.30829,0.77612
7379.37955,0.77287
7377.45080,0.77183
7375.52205,0.77231
7373.59331,0.76911
7371.66456,0.76264
7369.73582,0.75666
7367.80707,0.75484
7365.87833,0.75873
7363.94958,0.76328
7362.02084,0.76449
7360.09209,0.76459
7358.16335,0.76415
7356.23460,0.76375
7354.30586,0.76435
7352.37711,0.76452
7350.44837,0.76619
7348.51962,0.76812
7346.59088,0.76421
7344.66213,0.75662
7342.73338,0.75220
7340.80464,0.75195
7338.87589,0.75137
7336.94715,0.74607
7335.01840,0.73782
7333.08966,0.73286
7331.16091,0.73279
7329.23217,0.73259
7327.30342,0.72972
7325.37468,0.72781
7323.44593,0.72937
7321.51719,0.73255
7319.58844,0.73504
7317.65970,0.73728
7315.73095,0.74135
7313.80221,0.74530
7311.87346,0.74465
7309.94471,0.74205
7308.01597,0.74218
7306.08722,0.74286
7304.15848,0.74262
7302.22973,0.74369
7300.30099,0.74517
7298.37224,0.74454
7296.44350,0.74203
7294.51475,0.73851
7292.58601,0.73572
7290.65726,0.73630
7288.72852,0.73760
7286.79977,0.73524
7284.87103,0.73276
7282.94228,0.73503
7281.01353,0.73820
7279.08479,0.73543
7277.15604,0.72758
7275.22730,0.72272
7273.29855,0.72565
7271.36981,0.73210
7269.44106,0.73474
7267.51232,0.73290
7265.58357,0.73281
7263.65483,0.73631
7261.72608,0.73812
7259.79734,0.73687
7257.86859,0.73623
7255.93985,0.73608
7254.01110,0.73546
7252.08236,0.73588
7250.15361,0.73634
7248.22486,0.73513
7246.29612,0.73326
7244.36737,0.73254
7242.43863,0.73302
7240.50988,0.73301
7238.58114,0.73280
7236.65239,0.73289
7234.72365,0.73185
7232.79490,0.72851
7230.86616,0.72560
7228.93741,0.72691
7227.00867,0.72986
7225.07992,0.72957
7223.15118,0.72646
7221.22243,0.72508
7219.29369,0.72700
7217.36494,0.72852
7215.43619,0.72756
7213.50745,0.72523
7211.57870,0.72311
7209.64996,0.72290
7207.72121,0.72558
7205.79247,0.73077
7203.86372,0.73456
7201.93498,0.73415
7200.00623,0.73228
7198.07749,0.73061
7196.14874,0.72889
7194.22000,0.72812
7192.29125,0.72897
7190.36251,0.73041
7188.43376,0.73048
7186.50501,0.72811
7184.57627,0.72462
7182.64752,0.72259
7180.71878,0.72354
7178.79003,0.72766
7176.86129,0.73170
7174.93254,0.73010
7173.00380,0.72262
7171.07505,0.71540
7169.14631,0.71526
7167.21756,0.72066
7165.28882,0.72156
7163.36007,0.71691
7161.43133,0.71345
7159.50258,0.71223
7157.57384,0.71265
7155.64509,0.71486
7153.71634,0.71595
7151.78760,0.71403
7149.85885,0.71126
7147.93011,0.70913
7146.00136,0.70685
7144.07262,0.70629
7142.14387,0.70941
7140.21513,0.71334
7138.28638,0.71507
7136.35764,0.71381
7134.42889,0.70893
7132.50015,0.70237
7130.57140,0.69817
7128.64266,0.69728
7126.71391,0.69627
7124.78516,0.69344
7122.85642,0.69208
7120.92767,0.69234
7118.99893,0.69159
7117.07018,0.69042
7115.14144,0.68742
7113.21269,0.68275
7111.28395,0.68133
7109.35520,0.68306
7107.42646,0.68427
7105.49771,0.68450
7103.56897,0.68307
7101.64022,0.67985
7099.71148,0.67699
7097.78273,0.67458
7095.85399,0.67311
7093.92524,0.67435
7091.99649,0.67515
7090.06775,0.67164
7088.13900,0.66629
7086.21026,0.66322
7084.28151,0.66141
7082.35277,0.65859
7080.42402,0.65758
7078.49528,0.65958
7076.56653,0.66064
7074.63779,0.65961
7072.70904,0.65677
7070.78030,0.65159
7068.85155,0.64693
7066.92281,0.64549
7064.99406,0.64536
7063.06532,0.64206
7061.13657,0.63674
7059.20782,0.63652
7057.27908,0.63988
7055.35033,0.63993
7053.42159,0.63716
7051.49284,0.63355
7049.56410,0.63018
7047.63535,0.62916
7045.70661,0.62833
7043.77786,0.62555
7041.84912,0.62404
7039.92037,0.62384
7037.99163,0.62191
7036.06288,0.61947
7034.13414,0.61779
7032.20539,0.61688
7030.27664,0.61665
7028.34790,0.61562
7026.41915,0.61357
7024.49041,0.61083
7022.56166,0.60803
7020.63292,0.60649
7018.70417,0.60476
7016.77543,0.60110
7014.84668,0.59694
7012.91794,0.59446
7010.98919,0.59465
7009.06045,0.59543
7007.13170,0.59311
7005.20296,0.58896
7003.27421,0.58662
7001.34547,0.58558
6999.41672,0.58477
6997.48797,0.58523
6995.55923,0.58682
6993.63048,0.58719
6991.70174,0.58577
6989.77299,0.58570
6987.84425,0.58745
6985.91550,0.58710
6983.98676,0.58312
6982.05801,0.57722
6980.12927,0.57187
6978.20052,0.57148
6976.27178,0.57626
6974.34303,0.57938
6972.41429,0.57838
6970.48554,0.57771
6968.55680,0.57872
6966.62805,0.57905
6964.69930,0.57832
6962.77056,0.57720
6960.84181,0.57400
6958.91307,0.56913
6956.98432,0.56696
6955.05558,0.56784
6953.12683,0.56873
6951.19809,0.57001
6949.26934,0.57125
6947.34060,0.56877
6945.41185,0.56370
6943.48311,0.56095
6941.55436,0.56048
6939.62562,0.56137
6937.69687,0.56458
6935.76812,0.56691
6933.83938,0.56661
6931.91063,0.56621
6929.98189,0.56534
6928.05314,0.56461
6926.12440,0.56610
6924.19565,0.56730
6922.26691,0.56592
6920.33816,0.56403
6918.40942,0.56262
6916.48067,0.56057
6914.55193,0.55912
6912.62318,0.55946
6910.69444,0.56023
6908.76569,0.56047
6906.83695,0.55949
6904.90820,0.55823
6902.97945,0.55790
6901.05071,0.55661
6899.12196,0.55376
6897.19322,0.55186
6895.26447,0.55194
6893.33573,0.55274
6891.40698,0.55379
6889.47824,0.55400
6887.54949,0.55243
6885.62075,0.55202
6883.69200,0.55297
6881.76326,0.55171
6879.83451,0.54896
6877.90577,0.54710
6875.97702,0.54612
6874.04828,0.54510
6872.11953,0.54424
6870.19078,0.54561
6868.26204,0.54884
6866.33329,0.55005
6864.40455,0.54909
6862.47580,0.54916
6860.54706,0.54996
6858.61831,0.54813
6856.68957,0.54324
6854.76082,0.54054
6852.83208,0.54284
6850.90333,0.54514
6848.97459,0.54441
6847.04584,0.54313
6845.11710,0.54253
6843.18835,0.54153
6841.25960,0.54005
6839.33086,0.53946
6837.40211,0.53957
6835.47337,0.53912
6833.54462,0.53859
6831.61588,0.53958
6829.68713,0.54120
6827.75839,0.53960
6825.82964,0.53568
6823.90090,0.53489
6821.97215,0.53580
6820.04341,0.53398
6818.11466,0.53158
6816.18592,0.53192
6814.25717,0.53353
6812.32843,0.53320
6810.39968,0.53164
6808.47093,0.53119
6806.54219,0.52967
6804.61344,0.52593
6802.68470,0.52420
6800.75595,0.52644
6798.82721,0.52906
6796.89846,0.52861
6794.96972,0.52567
6793.04097,0.52352
6791.11223,0.52302
6789.18348,0.52193
6787.25474,0.52085
6785.32599,0.52209
6783.39725,0.52434
6781.46850,0.52503
6779.53975,0.52433
6777.61101,0.52399
6775.68226,0.52460
6773.75352,0.52504
6771.82477,0.52414
6769.89603,0.52353
6767.96728,0.52479
6766.03854,0.52513
6764.10979,0.52290
6762.18105,0.52002
6760.25230,0.51779
6758.32356,0.51612
6756.39481,0.51453
6754.46607,0.51349
6752.53732,0.51343
6750.60858,0.51375
6748.67983,0.51413
6746.75108,0.51401
6744.82234,0.51304
6742.89359,0.51208
6740.96485,0.51221
6739.03610,0.51382
6737.10736,0.51645
6735.17861,0.51834
6733.24987,0.51692
6731.32112,0.51366
6729.39238,0.51251
6727.46363,0.51372
6725.53489,0.51533
6723.60614,0.51543
6721.67740,0.51386
6719.74865,0.51291
6717.81991,0.51382
6715.89116,0.51599
6713.96241,0.51688
6712.03367,0.51587
6710.10492,0.51651
6708.17618,0.51769
6706.24743,0.51599
6704.31869,0.51417
6702.38994,0.51450
6700.46120,0.51522
6698.53245,0.51515
6696.60371,0.51414
6694.67496,0.51314
6692.74622,0.51415
6690.81747,0.51754
6688.88873,0.52122
6686.95998,0.52295
6685.03123,0.52135
6683.10249,0.51725
6681.17374,0.51415
6679.24500,0.51351
6677.31625,0.51374
6675.38751,0.51414
6673.45876,0.51491
6671.53002,0.51640
6669.60127,0.51851
6667.67253,0.51971
6665.74378,0.51958
6663.81504,0.51937
6661.88629,0.51959
6659.95755,0.51988
6658.02880,0.51950
6656.10006,0.51788
6654.17131,0.51656
6652.24256,0.51759
6650.31382,0.51992
6648.38507,0.52125
6646.45633,0.52151
6644.52758,0.52099
6642.59884,0.51959
6640.67009,0.51881
6638.74135,0.52018
6636.81260,0.52249
6634.88386,0.52359
6632.95511,0.52379
6631.02637,0.52483
6629.09762,0.52728
6627.16888,0.52970
6625.24013,0.52998
6623.31139,0.52934
6621.38264,0.52957
6619.45389,0.52890
6617.52515,0.52730
6615.59640,0.52733
6613.66766,0.52928
6611.73891,0.53146
6609.81017,0.53199
6607.88142,0.53061
6605.95268,0.52871
6604.02393,0.52642
6602.09519,0.52473
6600.16644,0.52650
6598.23770,0.52936
6596.30895,0.52818
6594.38021,0.52493
6592.45146,0.52434
6590.52271,0.52637
6588.59397,0.52884
6586.66522,0.53045
6584.73648,0.53059
6582.80773,0.52997
6580.87899,0.53018
6578.95024,0.53167
6577.02150,0.53317
6575.09275,0.53321
6573.16401,0.53294
6571.23526,0.53413
6569.30652,0.53561
6567.37777,0.53521
6565.44903,0.53300
6563.52028,0.53117
6561.59154,0.53037
6559.66279,0.52929
6557.73404,0.52862
6555.80530,0.53011
6553.87655,0.53233
6551.94781,0.53259
6550.01906,0.53157
6548.09032,0.53134
6546.16157,0.53222
6544.23283,0.53388
6542.30408,0.53603
6540.37534,0.53746
6538.44659,0.53790
6536.51785,0.53839
6534.58910,0.53780
6532.66036,0.53577
6530.73161,0.53438
6528.80287,0.53330
6526.87412,0.53295
6524.94537,0.53554
6523.01663,0.53888
6521.08788,0.54012
6519.15914,0.54098
6517.23039,0.54104
6515.30165,0.53860
6513.37290,0.53631
6511.44416,0.53503
6509.51541,0.53319
6507.58667,0.53144
6505.65792,0.53056
6503.72918,0.53127
6501.80043,0.53319
6499.87169,0.53395
6497.94294,0.53274
6496.01419,0.53176
6494.08545,0.53272
6492.15670,0.53408
6490.22796,0.53411
6488.29921,0.53357
6486.37047,0.53345
6484.44172,0.53358
6482.51298,0.53467
6480.58423,0.53704
6478.65549,0.53833
6476.72674,0.53722
6474.79800,0.53533
6472.86925,0.53433
6470.94051,0.53502
6469.01176,0.53731
6467.08302,0.53945
6465.15427,0.53893
6463.22552,0.53607
6461.29678,0.53452
6459.36803,0.53579
6457.43929,0.53770
6455.51054,0.53793
6453.58180,0.53595
6451.65305,0.53338
6449.72431,0.53241
6447.79556,0.53296
6445.86682,0.53422
6443.93807,0.53586
6442.00933,0.53677
6440.08058,0.53728
6438.15184,0.53848
6436.22309,0.53916
6434.29434,0.53924
6432.36560,0.54019
6430.43685,0.54089
6428.50811,0.54024
6426.57936,0.53977
6424.65062,0.53979
6422.72187,0.53947
6420.79313,0.53974
6418.86438,0.54013
6416.93564,0.53899
6415.00689,0.53797
6413.07815,0.53877
6411.14940,0.54053
6409.22066,0.54184
6407.29191,0.54164
6405.36317,0.53963
6403.43442,0.53722
6401.50567,0.53713
6399.57693,0.53932
6397.64818,0.54086
6395.71944,0.54123
6393.79069,0.54197
6391.86195,0.54332
6389.93320,0.54464
6388.00446,0.54511
6386.07571,0.54433
6384.14697,0.54400
6382.21822,0.54498
6380.28948,0.54438
6378.36073,0.54167
6376.43199,0.54000
6374.50324,0.54031
6372.57450,0.54142
6370.64575,0.54167
6368.71700,0.54075
6366.78826,0.54056
6364.85951,0.54139
6362.93077,0.54224
6361.00202,0.54328
6359.07328,0.54437
6357.14453,0.54441
6355.21579,0.54240
6353.28704,0.54006
6351.35830,0.54094
6349.42955,0.54335
6347.50081,0.54329
6345.57206,0.54304
6343.64332,0.54465
6341.71457,0.54460
6339.78582,0.54253
6337.85708,0.54125
6335.92833,0.54104
6333.99959,0.54278
6332.07084,0.54642
6330.14210,0.54830
6328.21335,0.54755
6326.28461,0.54679
6324.35586,0.54629
6322.42712,0.54524
6320.49837,0.54433
6318.56963,0.54366
6316.64088,0.54305
6314.71214,0.54275
6312.78339,0.54296
6310.85465,0.54372
6308.92590,0.54399
6306.99715,0.54331
6305.06841,0.54270
6303.13966,0.54279
6301.21092,0.54379
6299.28217,0.54513
6297.35343,0.54614
6295.42468,0.54726
6293.49594,0.54821
6291.56719,0.54829
6289.63845,0.54783
6287.70970,0.54726
6285.78096,0.54768
6283.85221,0.54915
6281.92347,0.54935
6279.99472,0.54863
6278.06598,0.54933
6276.13723,0.55115
6274.20848,0.55307
6272.27974,0.55432
6270.35099,0.55446
6268.42225,0.55438
6266.49350,0.55470
6264.56476,0.55599
6262.63601,0.55840
6260.70727,0.56015
6258.77852,0.55994
6256.84978,0.55919
6254.92103,0.55984
6252.99229,0.56209
6251.06354,0.56445
6249.13480,0.56488
6247.20605,0.56377
6245.27730,0.56357
6243.34856,0.56419
6241.41981,0.56462
6239.49107,0.56583
6237.56232,0.56771
6235.63358,0.56869
6233.70483,0.56869
6231.77609,0.56932
6229.84734,0.57097
6227.91860,0.57149
6225.98985,0.57076
6224.06111,0.57172
6222.13236,0.57385
6220.20362,0.57410
6218.27487,0.57326
6216.34613,0.57394
6214.41738,0.57627
6212.48863,0.57866
6210.55989,0.58060
6208.63114,0.58249
6206.70240,0.58310
6204.77365,0.58126
6202.84491,0.57953
6200.91616,0.58094
6198.98742,0.58423
6197.05867,0.58687
6195.12993,0.58792
6193.20118,0.58806
6191.27244,0.58962
6189.34369,0.59155
6187.41495,0.59040
6185.48620,0.58843
6183.55746,0.58888
6181.62871,0.59006
6179.69996,0.59079
6177.77122,0.59201
6175.84247,0.59344
6173.91373,0.59361
6171.98498,0.59270
6170.05624,0.59286
6168.12749,0.59437
6166.19875,0.59595
6164.27000,0.59767
6162.34126,0.59907
6160.41251,0.59922
6158.48377,0.59940
6156.55502,0.60081
6154.62628,0.60228
6152.69753,0.60268
6150.76878,0.60291
6148.84004,0.60441
6146.91129,0.60678
6144.98255,0.60783
6143.05380,0.60683
6141.12506,0.60551
6139.19631,0.60530
6137.26757,0.60632
6135.33882,0.60813
6133.41008,0.60982
6131.48133,0.61026
6129.55259,0.60937
6127.62384,0.60957
6125.69510,0.61222
6123.76635,0.61449
6121.83761,0.61464
6119.90886,0.61493
6117.98011,0.61595
6116.05137,0.61575
6114.12262,0.61551
6112.19388,0.61738
6110.26513,0.61906
6108.33639,0.61869
6106.40764,0.61911
6104.47890,0.62136
6102.55015,0.62319
6100.62141,0.62376
6098.69266,0.62354
6096.76392,0.62376
6094.83517,0.62564
6092.90643,0.62780
6090.97768,0.62815
6089.04893,0.62806
6087.12019,0.62898
6085.19144,0.62861
6083.26270,0.62667
6081.33395,0.62592
6079.40521,0.62682
6077.47646,0.62813
6075.54772,0.62906
6073.61897,0.62967
6071.69023,0.63041
6069.76148,0.63116
6067.83274,0.63249
6065.90399,0.63457
6063.97525,0.63591
6062.04650,0.63580
6060.11776,0.63574
6058.18901,0.63669
6056.26026,0.63769
6054.33152,0.63811
6052.40277,0.63820
6050.47403,0.63852
6048.54528,0.63925
6046.61654,0.63948
6044.68779,0.63894
6042.75905,0.63872
6040.83030,0.63962
6038.90156,0.64059
6036.97281,0.64031
6035.04407,0.63997
6033.11532,0.64108
6031.18658,0.64303
6029.25783,0.64465
6027.32909,0.64535
6025.40034,0.64530
6023.47159,0.64559
6021.54285,0.64682
6019.61410,0.64805
6017.68536,0.64839
6015.75661,0.64864
6013.82787,0.64950
6011.89912,0.65024
6009.97038,0.65136
6008.04163,0.65298
6006.11289,0.65290
6004.18414,0.65169
6002.25540,0.65200
6000.32665,0.65369
5998.39791,0.65562
5996.46916,0.65704
5994.54041,0.65715
5992.61167,0.65706
5990.68292,0.65796
5988.75418,0.65857
5986.82543,0.65745
5984.89669,0.65517
5982.96794,0.65395
5981.03920,0.65495
5979.11045,0.65665
5977.18171,0.65706
5975.25296,0.65611
5973.32422,0.65533
5971.39547,0.65526
5969.46673,0.65535
5967.53798,0.65595
5965.60924,0.65682
5963.68049,0.65706
5961.75174,0.65705
5959.82300,0.65714
5957.89425,0.65636
5955.96551,0.65434
5954.03676,0.65280
5952.10802,0.65313
5950.17927,0.65452
5948.25053,0.65547
5946.32178,0.65519
5944.39304,0.65367
5942.46429,0.65189
5940.53555,0.65094
5938.60680,0.65055
5936.67806,0.65078
5934.74931,0.65153
5932.82057,0.65133
5930.89182,0.65022
5928.96307,0.64971
5927.03433,0.65022
5925.10558,0.65041
5923.17684,0.64912
5921.24809,0.64785
5919.31935,0.64794
5917.39060,0.64814
5915.46186,0.64746
5913.53311,0.64656
5911.60437,0.64629
5909.67562,0.64727
5907.74688,0.64867
5905.81813,0.64891
5903.88939,0.64796
5901.96064,0.64645
5900.03189,0.64484
5898.10315,0.64343
5896.17440,0.64214
5894.24566,0.64131
5892.31691,0.64136
5890.38817,0.64151
5888.45942,0.64055
5886.53068,0.63883
5884.60193,0.63748
5882.67319,0.63665
5880.74444,0.63631
5878.81570,0.63574
5876.88695,0.63386
5874.95821,0.63198
5873.02946,0.63135
5871.10072,0.63077
5869.17197,0.62991
5867.24322,0.62986
5865.31448,0.63031
5863.38573,0.63053
5861.45699,0.63110
5859.52824,0.63205
5857.59950,0.63241
5855.67075,0.63241
5853.74201,0.63283
5851.81326,0.63351
5849.88452,0.63405
5847.95577,0.63400
5846.02703,0.63364
5844.09828,0.63354
5842.16954,0.63332
5840.24079,0.63288
5838.31205,0.63243
5836.38330,0.63202
5834.45455,0.63189
5832.52581,0.63198
5830.59706,0.63194
5828.66832,0.63170
5826.73957,0.63111
5824.81083,0.63020
5822.88208,0.62985
5820.95334,0.62998
5819.02459,0.62935
5817.09585,0.62851
5815.16710,0.62805
5813.23836,0.62737
5811.30961,0.62720
5809.38087,0.62807
5807.45212,0.62869
5805.52337,0.62781
5803.59463,0.62607
5801.66588,0.62544
5799.73714,0.62656
5797.80839,0.62753
5795.87965,0.62664
5793.95090,0.62575
5792.02216,0.62685
5790.09341,0.62808
5788.16467,0.62769
5786.23592,0.62644
5784.30718,0.62518
5782.37843,0.62386
5780.44969,0.62284
5778.52094,0.62345
5776.59220,0.62540
5774.66345,0.62626
5772.73470,0.62549
5770.80596,0.62463
5768.87721,0.62407
5766.94847,0.62394
5765.01972,0.62458
5763.09098,0.62483
5761.16223,0.62403
5759.23349,0.62342
5757.30474,0.62366
5755.37600,0.62449
5753.44725,0.62566
5751.51851,0.62580
5749.58976,0.62455
5747.66102,0.62378
5745.73227,0.62371
5743.80352,0.62323
5741.87478,0.62272
5739.94603,0.62277
5738.01729,0.62290
5736.08854,0.62258
5734.15980,0.62211
5732.23105,0.62188
5730.30231,0.62204
5728.37356,0.62275
5726.44482,0.62328
5724.51607,0.62277
5722.58733,0.62202
5720.65858,0.62206
5718.72984,0.62241
5716.80109,0.62207
5714.87235,0.62070
5712.94360,0.61934
5711.01485,0.61945
5709.08611,0.62016
5707.15736,0.61972
5705.22862,0.61866
5703.29987,0.61846
5701.37113,0.61888
5699.44238,0.61883
5697.51364,0.61847
5695.58489,0.61833
5693.65615,0.61768
5691.72740,0.61655
5689.79866,0.61594
5687.86991,0.61539
5685.94117,0.61448
5684.01242,0.61389
5682.08368,0.61354
5680.15493,0.61337
5678.22618,0.61332
5676.29744,0.61292
5674.36869,0.61267
5672.43995,0.61265
5670.51120,0.61187
5668.58246,0.61067
5666.65371,0.61030
5664.72497,0.61030
5662.79622,0.60973
5660.86748,0.60938
5658.93873,0.61002
5657.00999,0.61087
5655.08124,0.61101
5653.15250,0.61052
5651.22375,0.60984
5649.29500,0.60940
5647.36626,0.60960
5645.43751,0.61072
5643.50877,0.61249
5641.58002,0.61310
5639.65128,0.61152
5637.72253,0.60957
5635.79379,0.60931
5633.86504,0.61048
5631.93630,0.61128
5630.00755,0.61067
5628.07881,0.60963
5626.15006,0.60950
5624.22132,0.61023
5622.29257,0.61055
5620.36383,0.60991
5618.43508,0.60947
5616.50633,0.60981
5614.57759,0.60998
5612.64884,0.61003
5610.72010,0.61029
5608.79135,0.61038
5606.86261,0.61047
5604.93386,0.61074
5603.00512,0.61093
5601.07637,0.61103
5599.14763,0.61108
5597.21888,0.61072
5595.29014,0.61030
5593.36139,0.61100
5591.43265,0.61225
5589.50390,0.61221
5587.57516,0.61046
5585.64641,0.60857
5583.71766,0.60855
5581.78892,0.61023
5579.86017,0.61171
5577.93143,0.61226
5576.00268,0.61266
5574.07394,0.61309
5572.14519,0.61293
5570.21645,0.61258
5568.28770,0.61309
5566.35896,0.61390
5564.43021,0.61349
5562.50147,0.61262
5560.57272,0.61309
5558.64398,0.61444
5556.71523,0.61501
5554.78648,0.61450
5552.85774,0.61407
5550.92899,0.61426
5549.00025,0.61454
5547.07150,0.61489
5545.14276,0.61516
5543.21401,0.61466
5541.28527,0.61378
5539.35652,0.61354
5537.42778,0.61387
5535.49903,0.61418
5533.57029,0.61464
5531.64154,0.61503
5529.71280,0.61449
5527.78405,0.61376
5525.85531,0.61393
5523.92656,0.61393
5521.99781,0.61346
5520.06907,0.61402
5518.14032,0.61478
5516.21158,0.61443
5514.28283,0.61416
5512.35409,0.61436
5510.42534,0.61446
5508.49660,0.61484
5506.56785,0.61559
5504.63911,0.61593
5502.71036,0.61520
5500.78162,0.61389
5498.85287,0.61328
5496.92413,0.61364
5494.99538,0.61433
5493.06664,0.61507
5491.13789,0.61583
5489.20914,0.61610
5487.28040,0.61554
5485.35165,0.61465
5483.42291,0.61420
5481.49416,0.61423
5479.56542,0.61418
5477.63667,0.61449
5475.70793,0.61566
5473.77918,0.61619
5471.85044,0.61536
5469.92169,0.61453
5467.99295,0.61496
5466.06420,0.61614
5464.13546,0.61646
5462.20671,0.61603
5460.27796,0.61613
5458.34922,0.61674
5456.42047,0.61742
5454.49173,0.61812
5452.56298,0.61855
5450.63424,0.61890
5448.70549,0.61965
5446.77675,0.62051
5444.84800,0.62131
5442.91926,0.62230
5440.99051,0.62336
5439.06177,0.62426
5437.13302,0.62490
5435.20428,0.62498
5433.27553,0.62478
5431.34679,0.62546
5429.41804,0.62657
5427.48929,0.62640
5425.56055,0.62559
5423.63180,0.62553
5421.70306,0.62624
5419.77431,0.62730
5417.84557,0.62811
5415.91682,0.62874
5413.98808,0.62993
5412.05933,0.63140
5410.13059,0.63233
5408.20184,0.63284
5406.27310,0.63307
5404.34435,0.63273
5402.41561,0.63236
5400.48686,0.63303
5398.55811,0.63468
5396.62937,0.63601
5394.70062,0.63596
5392.77188,0.63493
5390.84313,0.63399
5388.91439,0.63353
5386.98564,0.63367
5385.05690,0.63427
5383.12815,0.63496
5381.19941,0.63555
5379.27066,0.63577
5377.34192,0.63577
5375.41317,0.63612
5373.48443,0.63644
5371.55568,0.63638
5369.62694,0.63663
5367.69819,0.63701
5365.76944,0.63674
5363.84070,0.63626
5361.91195,0.63574
5359.98321,0.63500
5358.05446,0.63457
5356.12572,0.63437
5354.19697,0.63353
5352.26823,0.63219
5350.33948,0.63155
5348.41074,0.63190
5346.48199,0.63236
5344.55325,0.63219
5342.62450,0.63147
5340.69576,0.63039
5338.76701,0.62900
5336.83827,0.62776
5334.90952,0.62709
5332.98077,0.62673
5331.05203,0.62629
5329.12328,0.62568
5327.19454,0.62483
5325.26579,0.62374
5323.33705,0.62240
5321.40830,0.62108
5319.47956,0.62019
5317.55081,0.61926
5315.62207,0.61773
5313.69332,0.61624
5311.76458,0.61510
5309.83583,0.61367
5307.90709,0.61129
5305.97834,0.60792
5304.04959,0.60472
5302.12085,0.60270
5300.19210,0.60132
5298.26336,0.59995
5296.33461,0.59861
5294.40587,0.59667
5292.47712,0.59387
5290.54838,0.59078
5288.61963,0.58785
5286.69089,0.58517
5284.76214,0.58220
5282.83340,0.57859
5280.90465,0.57510
5278.97591,0.57218
5277.04716,0.56911
5275.11842,0.56526
5273.18967,0.56132
5271.26092,0.55816
5269.33218,0.55534
5267.40343,0.55224
5265.47469,0.54899
5263.54594,0.54571
5261.61720,0.54227
5259.68845,0.53846
5257.75971,0.53448
5255.83096,0.53072
5253.90222,0.52739
5251.97347,0.52479
5250.04473,0.52267
5248.11598,0.51988
5246.18724,0.51599
5244.25849,0.51203
5242.32975,0.50877
5240.40100,0.50630
5238.47225,0.50404
5236.54351,0.50128
5234.61476,0.49849
5232.68602,0.49657
5230.75727,0.49528
5228.82853,0.49379
5226.89978,0.49171
5224.97104,0.48924
5223.04229,0.48677
5221.11355,0.48472
5219.18480,0.48300
5217.25606,0.48105
5215.32731,0.47896
5213.39857,0.47698
5211.46982,0.47519
5209.54107,0.47403
5207.61233,0.47345
5205.68358,0.47247
5203.75484,0.47115
5201.82609,0.46995
5199.89735,0.46878
5197.96860,0.46815
5196.03986,0.46827
5194.11111,0.46788
5192.18237,0.46673
5190.25362,0.46609
5188.32488,0.46609
5186.39613,0.46594
5184.46739,0.46552
5182.53864,0.46498
5180.60990,0.46453
5178.68115,0.46461
5176.75240,0.46520
5174.82366,0.46594
5172.89491,0.46649
5170.96617,0.46646
5169.03742,0.46615
5167.10868,0.46620
5165.17993,0.46669
5163.25119,0.46769
5161.32244,0.46864
5159.39370,0.46864
5157.46495,0.46848
5155.53621,0.46933
5153.60746,0.47062
5151.67872,0.47130
5149.74997,0.47136
5147.82123,0.47138
5145.89248,0.47188
5143.96373,0.47297
5142.03499,0.47421
5140.10624,0.47508
5138.17750,0.47563
5136.24875,0.47634
5134.32001,0.47754
5132.39126,0.47903
5130.46252,0.48041
5128.53377,0.48142
5126.60503,0.48195
5124.67628,0.48213
5122.74754,0.48250
5120.81879,0.48334
5118.89005,0.48458
5116.96130,0.48628
5115.03255,0.48811
5113.10381,0.48949
5111.17506,0.49036
5109.24632,0.49082
5107.31757,0.49114
5105.38883,0.49193
5103.46008,0.49334
5101.53134,0.49482
5099.60259,0.49569
5097.67385,0.49622
5095.74510,0.49720
5093.81636,0.49836
5091.88761,0.49922
5089.95887,0.49993
5088.03012,0.50071
5086.10138,0.50179
5084.17263,0.50307
5082.24388,0.50404
5080.31514,0.50444
5078.38639,0.50504
5076.45765,0.50647
5074.52890,0.50771
5072.60016,0.50803
5070.67141,0.50846
5068.74267,0.50944
5066.81392,0.51028
5064.88518,0.51081
5062.95643,0.51168
5061.02769,0.51300
5059.09894,0.51392
5057.17020,0.51429
5055.24145,0.51516
5053.31270,0.51702
5051.38396,0.51889
5049.45521,0.51996
5047.52647,0.52064
5045.59772,0.52111
5043.66898,0.52155
5041.74023,0.52259
5039.81149,0.52423
5037.88274,0.52569
5035.95400,0.52646
5034.02525,0.52672
5032.09651,0.52707
5030.16776,0.52787
5028.23902,0.52885
5026.31027,0.52948
5024.38153,0.52973
5022.45278,0.52998
5020.52403,0.53043
5018.59529,0.53108
5016.66654,0.53203
5014.73780,0.53324
5012.80905,0.53412
5010.88031,0.53424
5008.95156,0.53395
5007.02282,0.53386
5005.09407,0.53427
5003.16533,0.53488
5001.23658,0.53519
4999.30784,0.53527
4997.37909,0.53554
4995.45035,0.53604
4993.52160,0.53642
4991.59286,0.53672
4989.66411,0.53719
4987.73536,0.53758
4985.80662,0.53766
4983.87787,0.53739
4981.94913,0.53678
4980.02038,0.53633
4978.09164,0.53631
4976.16289,0.53612
4974.23415,0.53536
4972.30540,0.53437
4970.37666,0.53371
4968.44791,0.53367
4966.51917,0.53375
4964.59042,0.53343
4962.66168,0.53300
4960.73293,0.53240
4958.80418,0.53135
4956.87544,0.53031
4954.94669,0.52928
4953.01795,0.52785
4951.08920,0.52661
4949.16046,0.52590
4947.23171,0.52519
4945.30297,0.52412
4943.37422,0.52275
4941.44548,0.52135
4939.51673,0.52016
4937.58799,0.51906
4935.65924,0.51807
4933.73050,0.51713
4931.80175,0.51604
4929.87301,0.51463
4927.94426,0.51253
4926.01551,0.50983
4924.08677,0.50735
4922.15802,0.50545
4920.22928,0.50372
4918.30053,0.50192
4916.37179,0.50005
4914.44304,0.49828
4912.51430,0.49657
4910.58555,0.49434
4908.65681,0.49176
4906.72806,0.48943
4904.79932,0.48722
4902.87057,0.48492
4900.94183,0.48252
4899.01308,0.48005
4897.08434,0.47774
4895.15559,0.47555
4893.22684,0.47340
4891.29810,0.47126
4889.36935,0.46899
4887.44061,0.46665
4885.51186,0.46464
4883.58312,0.46297
4881.65437,0.46104
4879.72563,0.45864
4877.79688,0.45624
4875.86814,0.45406
4873.93939,0.45176
4872.01065,0.44936
4870.08190,0.44732
4868.15316,0.44568
4866.22441,0.44408
4864.29566,0.44233
4862.36692,0.44072
4860.43817,0.43944
4858.50943,0.43796
4856.58068,0.43603
4854.65194,0.43439
4852.72319,0.43336
4850.79445,0.43244
4848.86570,0.43141
4846.93696,0.43013
4845.00821,0.42840
4843.07947,0.42659
4841.15072,0.42514
4839.22198,0.42372
4837.29323,0.42194
4835.36449,0.42021
4833.43574,0.41892
4831.50699,0.41778
4829.57825,0.41625
4827.64950,0.41434
4825.72076,0.41253
4823.79201,0.41114
4821.86327,0.41002
4819.93452,0.40887
4818.00578,0.40759
4816.07703,0.40609
4814.14829,0.40457
4812.21954,0.40355
4810.29080,0.40305
4808.36205,0.40245
4806.43331,0.40140
4804.50456,0.40035
4802.57582,0.39962
4800.64707,0.39869
4798.71832,0.39753
4796.78958,0.39666
4794.86083,0.39612
4792.93209,0.39559
4791.00334,0.39506
4789.07460,0.39446
4787.14585,0.39372
4785.21711,0.39321
4783.28836,0.39315
4781.35962,0.39302
4779.43087,0.39221
4777.50213,0.39107
4775.57338,0.39042
4773.64464,0.39034
4771.71589,0.39031
4769.78714,0.39016
4767.85840,0.38995
4765.92965,0.38972
4764.00091,0.38953
4762.07216,0.38938
4760.14342,0.38911
4758.21467,0.38861
4756.28593,0.38828
4754.35718,0.38842
4752.42844,0.38868
4750.49969,0.38887
4748.57095,0.38914
4746.64220,0.38936
4744.71346,0.38937
4742.78471,0.38943
4740.85597,0.39000
4738.92722,0.39093
4736.99847,0.39163
4735.06973,0.39211
4733.14098,0.39268
4731.21224,0.39345
4729.28349,0.39431
4727.35475,0.39506
4725.42600,0.39581
4723.49726,0.39680
4721.56851,0.39785
4719.63977,0.39869
4717.71102,0.39917
4715.78228,0.39942
4713.85353,0.39972
4711.92479,0.40028
4709.99604,0.40115
4708.06729,0.40204
4706.13855,0.40259
4704.20980,0.40305
4702.28106,0.40393
4700.35231,0.40499
4698.42357,0.40570
4696.49482,0.40641
4694.56608,0.40754
4692.63733,0.40892
4690.70859,0.41029
4688.77984,0.41158
4686.85110,0.41273
4684.92235,0.41361
4682.99361,0.41420
4681.06486,0.41498
4679.13612,0.41627
4677.20737,0.41765
4675.27862,0.41891
4673.34988,0.42014
4671.42113,0.42088
4669.49239,0.42096
4667.56364,0.42107
4665.63490,0.42186
4663.70615,0.42322
4661.77741,0.42451
4659.84866,0.42532
4657.91992,0.42597
4655.99117,0.42688
4654.06243,0.42773
4652.13368,0.42822
4650.20494,0.42877
4648.27619,0.42975
4646.34745,0.43094
4644.41870,0.43190
4642.48995,0.43271
4640.56121,0.43380
4638.63246,0.43498
4636.70372,0.43564
4634.77497,0.43585
4632.84623,0.43649
4630.91748,0.43768
4628.98874,0.43864
4627.05999,0.43941
4625.13125,0.44029
4623.20250,0.44104
4621.27376,0.44182
4619.34501,0.44261
4617.41627,0.44315
4615.48752,0.44375
4613.55877,0.44468
4611.63003,0.44552
4609.70128,0.44614
4607.77254,0.44709
4605.84379,0.44846
4603.91505,0.44961
4601.98630,0.45032
4600.05756,0.45081
4598.12881,0.45124
4596.20007,0.45185
4594.27132,0.45263
4592.34258,0.45341
4590.41383,0.45430
4588.48509,0.45529
4586.55634,0.45621
4584.62760,0.45708
4582.69885,0.45799
4580.77010,0.45905
4578.84136,0.46028
4576.91261,0.46137
4574.98387,0.46231
4573.05512,0.46322
4571.12638,0.46384
4569.19763,0.46428
4567.26889,0.46507
4565.34014,0.46617
4563.41140,0.46732
4561.48265,0.46855
4559.55391,0.46953
4557.62516,0.46996
4555.69642,0.47036
4553.76767,0.47107
4551.83893,0.47179
4549.91018,0.47235
4547.98143,0.47287
4546.05269,0.47349
4544.12394,0.47443
4542.19520,0.47547
4540.26645,0.47616
4538.33771,0.47670
4536.40896,0.47738
4534.48022,0.47805
4532.55147,0.47849
4530.62273,0.47868
4528.69398,0.47896
4526.76524,0.47979
4524.83649,0.48090
4522.90775,0.48175
4520.97900,0.48240
4519.05025,0.48300
4517.12151,0.48330
4515.19276,0.48332
4513.26402,0.48338
4511.33527,0.48369
4509.40653,0.48413
4507.47778,0.48433
4505.54904,0.48426
4503.62029,0.48431
4501.69155,0.48456
4499.76280,0.48491
4497.83406,0.48530
4495.90531,0.48557
4493.97657,0.48577
4492.04782,0.48599
4490.11908,0.48613
4488.19033,0.48630
4486.26158,0.48656
4484.33284,0.48650
4482.40409,0.48616
4480.47535,0.48615
4478.54660,0.48639
4476.61786,0.48637
4474.68911,0.48605
4472.76037,0.48561
4470.83162,0.48503
4468.90288,0.48418
4466.97413,0.48314
4465.04539,0.48217
4463.11664,0.48131
4461.18790,0.48040
4459.25915,0.47922
4457.33041,0.47764
4455.40166,0.47587
4453.47291,0.47402
4451.54417,0.47198
4449.61542,0.46980
4447.68668,0.46756
4445.75793,0.46527
4443.82919,0.46289
4441.90044,0.46038
4439.97170,0.45757
4438.04295,0.45421
4436.11421,0.45068
4434.18546,0.44751
4432.25672,0.44445
4430.32797,0.44121
4428.39923,0.43801
4426.47048,0.43485
4424.54173,0.43141
4422.61299,0.42760
4420.68424,0.42380
4418.75550,0.42045
4416.82675,0.41760
4414.89801,0.41495
4412.96926,0.41235
4411.04052,0.40991
4409.11177,0.40767
4407.18303,0.40550
4405.25428,0.40347
4403.32554,0.40186
4401.39679,0.40098
4399.46805,0.40068
4397.53930,0.40042
4395.61056,0.39995
4393.68181,0.39964
4391.75306,0.39986
4389.82432,0.40064
4387.89557,0.40169
4385.96683,0.40267
4384.03808,0.40360
4382.10934,0.40481
4380.18059,0.40629
4378.25185,0.40769
4376.32310,0.40878
4374.39436,0.40970
4372.46561,0.41072
4370.53687,0.41164
4368.60812,0.41221
4366.67938,0.41261
4364.75063,0.41275
4362.82189,0.41245
4360.89314,0.41209
4358.96439,0.41188
4357.03565,0.41141
4355.10690,0.41051
4353.17816,0.40936
4351.24941,0.40828
4349.32067,0.40769
4347.39192,0.40752
4345.46318,0.40726
4343.53443,0.40657
4341.60569,0.40552
4339.67694,0.40425
4337.74820,0.40278
4335.81945,0.40135
4333.89071,0.40008
4331.96196,0.39865
4330.03321,0.39692
4328.10447,0.39544
4326.17572,0.39442
4324.24698,0.39316
4322.31823,0.39155
4320.38949,0.39028
4318.46074,0.38949
4316.53200,0.38873
4314.60325,0.38770
4312.67451,0.38631
4310.74576,0.38489
4308.81702,0.38389
4306.88827,0.38312
4304.95953,0.38234
4303.03078,0.38137
4301.10204,0.38003
4299.17329,0.37860
4297.24454,0.37735
4295.31580,0.37619
4293.38705,0.37519
4291.45831,0.37452
4289.52956,0.37380
4287.60082,0.37265
4285.67207,0.37147
4283.74333,0.37068
4281.81458,0.36995
4279.88584,0.36904
4277.95709,0.36843
4276.02835,0.36850
4274.09960,0.36872
4272.17086,0.36862
4270.24211,0.36842
4268.31336,0.36833
4266.38462,0.36827
4264.45587,0.36826
4262.52713,0.36809
4260.59838,0.36769
4258.66964,0.36766
4256.74089,0.36824
4254.81215,0.36881
4252.88340,0.36898
4250.95466,0.36882
4249.02591,0.36828
4247.09717,0.36762
4245.16842,0.36740
4243.23968,0.36777
4241.31093,0.36823
4239.38219,0.36843
4237.45344,0.36895
4235.52469,0.37020
4233.59595,0.37145
4231.66720,0.37209
4229.73846,0.37247
4227.80971,0.37293
4225.88097,0.37343
4223.95222,0.37373
4222.02348,0.37371
4220.09473,0.37353
4218.16599,0.37340
4216.23724,0.37335
4214.30850,0.37335
4212.37975,0.37347
4210.45101,0.37388
4208.52226,0.37460
4206.59352,0.37542
4204.66477,0.37621
4202.73602,0.37718
4200.80728,0.37840
4198.87853,0.37954
4196.94979,0.38018
4195.02104,0.38024
4193.09230,0.38013
4191.16355,0.38037
4189.23481,0.38095
4187.30606,0.38140
4185.37732,0.38140
4183.44857,0.38093
4181.51983,0.38033
4179.59108,0.38013
4177.66234,0.38043
4175.73359,0.38095
4173.80484,0.38140
4171.87610,0.38137
4169.94735,0.38104
4168.01861,0.38122
4166.08986,0.38206
4164.16112,0.38272
4162.23237,0.38271
4160.30363,0.38241
4158.37488,0.38219
4156.44614,0.38183
4154.51739,0.38101
4152.58865,0.37990
4150.65990,0.37902
4148.73116,0.37827
4146.80241,0.37723
4144.87367,0.37602
4142.94492,0.37506
4141.01617,0.37462
4139.08743,0.37454
4137.15868,0.37421
4135.22994,0.37342
4133.30119,0.37255
4131.37245,0.37178
4129.44370,0.37104
4127.51496,0.37022
4125.58621,0.36923
4123.65747,0.36797
4121.72872,0.36634
4119.79998,0.36451
4117.87123,0.36281
4115.94249,0.36109
4114.01374,0.35923
4112.08500,0.35755
4110.15625,0.35606
4108.22750,0.35452
4106.29876,0.35268
4104.37001,0.35042
4102.44127,0.34808
4100.51252,0.34585
4098.58378,0.34366
4096.65503,0.34144
4094.72629,0.33916
4092.79754,0.33705
4090.86880,0.33528
4088.94005,0.33356
4087.01131,0.33140
4085.08256,0.32882
4083.15382,0.32650
4081.22507,0.32464
4079.29632,0.32260
4077.36758,0.32019
4075.43883,0.31791
4073.51009,0.31595
4071.58134,0.31392
4069.65260,0.31176
4067.72385,0.30964
4065.79511,0.30726
4063.86636,0.30460
4061.93762,0.30210
4060.00887,0.29985
4058.08013,0.29760
4056.15138,0.29521
4054.22264,0.29270
4052.29389,0.29022
4050.36515,0.28788
4048.43640,0.28568
4046.50765,0.28364
4044.57891,0.28172
4042.65016,0.27987
4040.72142,0.27809
4038.79267,0.27646
4036.86393,0.27509
4034.93518,0.27384
4033.00644,0.27271
4031.07769,0.27175
4029.14895,0.27072
4027.22020,0.26961
4025.29146,0.26883
4023.36271,0.26871
4021.43397,0.26887
4019.50522,0.26878
4017.57648,0.26869
4015.64773,0.26890
4013.71898,0.26917
4011.79024,0.26938
4009.86149,0.26975
4007.93275,0.27048
4006.00400,0.27138
4004.07526,0.27208
4002.14651,0.27261
4000.21777,0.27333
3998.28902,0.27427
3996.36028,0.27510
3994.43153,0.27589
3992.50279,0.27669
3990.57404,0.27743
3988.64530,0.27817
3986.71655,0.27891
3984.78780,0.27959
3982.85906,0.28029
3980.93031,0.28097
3979.00157,0.28140
3977.07282,0.28174
3975.14408,0.28233
3973.21533,0.28303
3971.28659,0.28353
3969.35784,0.28405
3967.42910,0.28481
3965.50035,0.28548
3963.57161,0.28583
3961.64286,0.28615
3959.71412,0.28665
3957.78537,0.28710
3955.85663,0.28760
3953.92788,0.28827
3951.99913,0.28892
3950.07039,0.28947
3948.14164,0.28997
3946.21290,0.29079
3944.28415,0.29223
3942.35541,0.29363
3940.42666,0.29448
3938.49792,0.29534
3936.56917,0.29640
3934.64043,0.29736
3932.71168,0.29845
3930.78294,0.29977
3928.85419,0.30104
3926.92545,0.30238
3924.99670,0.30378
3923.06795,0.30500
3921.13921,0.30623
3919.21046,0.30751
3917.28172,0.30839
3915.35297,0.30890
3913.42423,0.30953
3911.49548,0.31024
3909.56674,0.31081
3907.63799,0.31150
3905.70925,0.31258
3903.78050,0.31392
3901.85176,0.31518
3899.92301,0.31606
3897.99427,0.31658
3896.06552,0.31707
3894.13678,0.31773
3892.20803,0.31873
3890.27928,0.31974
3888.35054,0.32049
3886.42179,0.32139
3884.49305,0.32225
3882.56430,0.32261
3880.63556,0.32290
3878.70681,0.32368
3876.77807,0.32486
3874.84932,0.32607
3872.92058,0.32701
3870.99183,0.32793
3869.06309,0.32910
3867.13434,0.33026
3865.20560,0.33164
3863.27685,0.33320
3861.34811,0.33449
3859.41936,0.33562
3857.49061,0.33698
3855.56187,0.33910
3853.63312,0.34191
3851.70438,0.34300
3849.77563,0.34259
3847.84689,0.34246
3845.91814,0.34304
3843.98940,0.34433
3842.06065,0.34620
3840.13191,0.34800
3838.20316,0.34900
3836.27442,0.34901
3834.34567,0.34857
3832.41693,0.34829
3830.48818,0.34849
3828.55943,0.34886
3826.63069,0.34882
3824.70194,0.34873
3822.77320,0.34945
3820.84445,0.35013
3818.91571,0.34927
3816.98696,0.34801
3815.05822,0.34722
3813.12947,0.34646
3811.20073,0.34586
3809.27198,0.34589
3807.34324,0.34627
3805.41449,0.34629
3803.48575,0.34623
3801.55700,0.34659
3799.62826,0.34722
3797.69951,0.34751
3795.77076,0.34704
3793.84202,0.34633
3791.91327,0.34597
3789.98453,0.34570
3788.05578,0.34550
3786.12704,0.34549
3784.19829,0.34544
3782.26955,0.34528
3780.34080,0.34494
3778.41206,0.34405
3776.48331,0.34312
3774.55457,0.34306
3772.62582,0.34358
3770.69708,0.34368
3768.76833,0.34304
3766.83959,0.34226
3764.91084,0.34168
3762.98209,0.34115
3761.05335,0.34074
3759.12460,0.34028
3757.19586,0.33945
3755.26711,0.33856
3753.33837,0.33813
3751.40962,0.33788
3749.48088,0.33672
3747.55213,0.33536
3745.62339,0.33425
3743.69464,0.33291
3741.76590,0.33171
3739.83715,0.33109
3737.90841,0.33092
3735.97966,0.33031
3734.05091,0.32811
3732.12217,0.32502
3730.19342,0.32249
3728.26468,0.32065
3726.33593,0.31905
3724.40719,0.31752
3722.47844,0.31562
3720.54970,0.31305
3718.62095,0.31026
3716.69221,0.30784
3714.76346,0.30594
3712.83472,0.30410
3710.90597,0.30126
3708.97723,0.29756
3707.04848,0.29431
3705.11974,0.29138
3703.19099,0.28813
3701.26224,0.28428
3699.33350,0.28033
3697.40475,0.27643
3695.47601,0.27239
3693.54726,0.26862
3691.61852,0.26503
3689.68977,0.26045
3687.76103,0.25462
3685.83228,0.24918
3683.90354,0.24461
3681.97479,0.24027
3680.04605,0.23583
3678.11730,0.23125
3676.18856,0.22543
3674.25981,0.21835
3672.33107,0.21259
3670.40232,0.20664
3668.47357,0.19932
3666.54483,0.19284
3664.61608,0.18704
3662.68734,0.18110
3660.75859,0.17530
3658.82985,0.17000
3656.90110,0.16436
3654.97236,0.15831
3653.04361,0.15351
3651.11487,0.14920
3649.18612,0.14324
3647.25738,0.13640
3645.32863,0.13100
3643.39989,0.12676
3641.47114,0.12260
3639.54239,0.11811
3637.61365,0.11360
3635.68490,0.10952
3633.75616,0.10606
3631.82741,0.10313
3629.89867,0.09980
3627.96992,0.09551
3626.04118,0.09196
3624.11243,0.08942
3622.18369,0.08728
3620.25494,0.08485
3618.32620,0.08177
3616.39745,0.07884
3614.46871,0.07607
3612.53996,0.07322
3610.61122,0.07078
3608.68247,0.06849
3606.75372,0.06600
3604.82498,0.06391
3602.89623,0.06215
3600.96749,0.06050
3599.03874,0.05928
3597.11000,0.05806
3595.18125,0.05623
3593.25251,0.05423
3591.32376,0.05283
3589.39502,0.05175
3587.46627,0.05031
3585.53753,0.04853
3583.60878,0.04691
3581.68004,0.04576
3579.75129,0.04508
3577.82254,0.04448
3575.89380,0.04368
3573.96505,0.04266
3572.03631,0.04158
3570.10756,0.04065
3568.17882,0.03987
3566.25007,0.03879
3564.32133,0.03758
3562.39258,0.03672
3560.46384,0.03615
3558.53509,0.03553
3556.60635,0.03486
3554.67760,0.03422
3552.74886,0.03343
3550.82011,0.03268
3548.89137,0.03227
3546.96262,0.03195
3545.03387,0.03157
3543.10513,0.03122
3541.17638,0.03086
3539.24764,0.03031
3537.31889,0.02971
3535.39015,0.02934
3533.46140,0.02924
3531.53266,0.02937
3529.60391,0.02944
3527.67517,0.02896
3525.74642,0.02812
3523.81768,0.02764
3521.88893,0.02742
3519.96019,0.02699
3518.03144,0.02643
3516.10270,0.02597
3514.17395,0.02564
3512.24520,0.02533
3510.31646,0.02480
3508.38771,0.02440
3506.45897,0.02450
3504.53022,0.02463
3502.60148,0.02453
3500.67273,0.02441
3498.74399,0.02424
3496.81524,0.02408
3494.88650,0.02411
3492.95775,0.02433
3491.02901,0.02460
3489.10026,0.02479
3487.17152,0.02483
3485.24277,0.02465
3483.31402,0.02434
3481.38528,0.02419
3479.45653,0.02436
3477.52779,0.02442
3475.59904,0.02439
3473.67030,0.02463
3471.74155,0.02481
3469.81281,0.02446
3467.88406,0.02379
3465.95532,0.02324
3464.02657,0.02304
3462.09783,0.02319
3460.16908,0.02360
3458.24034,0.02399
3456.31159,0.02414
3454.38285,0.02416
3452.45410,0.02431
3450.52535,0.02458
3448.59661,0.02502
3446.66786,0.02563
3444.73912,0.02615
3442.81037,0.02634
3440.88163,0.02614
3438.95288,0.02571
3437.02414,0.02532
3435.09539,0.02505
3433.16665,0.02491
3431.23790,0.02495
3429.30916,0.02534
3427.38041,0.02598
3425.45167,0.02631
3423.52292,0.02619
3421.59418,0.02601
3419.66543,0.02591
3417.73668,0.02574
3415.80794,0.02561
3413.87919,0.02551
3411.95045,0.02533
3410.02170,0.02532
3408.09296,0.02549
3406.16421,0.02559
3404.23547,0.02566
3402.30672,0.02571
3400.37798,0.02585
3398.44923,0.02625
3396.52049,0.02650
3394.59174,0.02625
3392.66300,0.02579
3390.73425,0.02551
3388.80550,0.02576
3386.87676,0.02626
3384.94801,0.02639
3383.01927,0.02629
3381.09052,0.02644
3379.16178,0.02674
3377.23303,0.02685
3375.30429,0.02671
3373.37554,0.02652
3371.44680,0.02643
3369.51805,0.02636
3367.58931,0.02623
3365.66056,0.02609
3363.73182,0.02603
3361.80307,0.02608
3359.87433,0.02634
3357.94558,0.02674
3356.01683,0.02679
3354.08809,0.02649
3352.15934,0.02621
3350.23060,0.02605
3348.30185,0.02611
3346.37311,0.02661
3344.44436,0.02729
3342.51562,0.02765
3340.58687,0.02771
3338.65813,0.02765
3336.72938,0.02757
3334.80064,0.02780
3332.87189,0.02841
3330.94315,0.02873
3329.01440,0.02840
3327.08566,0.02813
3325.15691,0.02834
3323.22816,0.02869
3321.29942,0.02876
3319.37067,0.02865
3317.44193,0.02872
3315.51318,0.02887
3313.58444,0.02887
3311.65569,0.02878
3309.72695,0.02850
3307.79820,0.02807
3305.86946,0.02797
3303.94071,0.02835
3302.01197,0.02876
3300.08322,0.02890
3298.15448,0.02886
3296.22573,0.02880
3294.29698,0.02886
3292.36824,0.02898
3290.43949,0.02910
3288.51075,0.02930
3286.58200,0.02938
3284.65326,0.02940
3282.72451,0.02963
3280.79577,0.02984
3278.86702,0.02974
3276.93828,0.02964
3275.00953,0.02999
3273.08079,0.03062
3271.15204,0.03105
3269.22330,0.03094
3267.29455,0.03045
3265.36581,0.03008
3263.43706,0.03020
3261.50831,0.03073
3259.57957,0.03143
3257.65082,0.03201
3255.72208,0.03198
3253.79333,0.03145
3251.86459,0.03102
3249.93584,0.03099
3248.00710,0.03149
3246.07835,0.03215
3244.14961,0.03221
3242.22086,0.03197
3240.29212,0.03211
3238.36337,0.03248
3236.43463,0.03276
3234.50588,0.03278
3232.57713,0.03245
3230.64839,0.03208
3228.71964,0.03207
3226.79090,0.03234
3224.86215,0.03262
3222.93341,0.03278
3221.00466,0.03297
3219.07592,0.03352
3217.14717,0.03408
3215.21843,0.03404
3213.28968,0.03366
3211.36094,0.03348
3209.43219,0.03360
3207.50345,0.03382
3205.57470,0.03387
3203.64596,0.03382
3201.71721,0.03391
3199.78846,0.03414
3197.85972,0.03429
3195.93097,0.03437
3194.00223,0.03463
3192.07348,0.03497
3190.14474,0.03528
3188.21599,0.03542
3186.28725,0.03537
3184.35850,0.03556
3182.42976,0.03587
3180.50101,0.03578
3178.57227,0.03567
3176.64352,0.03611
3174.71478,0.03681
3172.78603,0.03726
3170.85729,0.03739
3168.92854,0.03736
3166.99979,0.03734
3165.07105,0.03754
3163.14230,0.03795
3161.21356,0.03822
3159.28481,0.03826
3157.35607,0.03845
3155.42732,0.03885
3153.49858,0.03930
3151.56983,0.03975
3149.64109,0.04008
3147.71234,0.04021
3145.78360,0.04018
3143.85485,0.04017
3141.92611,0.04054
3139.99736,0.04140
3138.06861,0.04238
3136.13987,0.04307
3134.21112,0.04349
3132.28238,0.04364
3130.35363,0.04365
3128.42489,0.04404
3126.49614,0.04472
3124.56740,0.04512
3122.63865,0.04527
3120.70991,0.04557
3118.78116,0.04620
3116.85242,0.04698
3114.92367,0.04768
3112.99493,0.04825
3111.06618,0.04865
3109.13744,0.04895
3107.20869,0.04944
3105.27994,0.05031
3103.35120,0.05138
3101.42245,0.05230
3099.49371,0.05280
3097.56496,0.05302
3095.63622,0.05345
3093.70747,0.05421
3091.77873,0.05510
3089.84998,0.05603
3087.92124,0.05684
3085.99249,0.05739
3084.06375,0.05791
3082.13500,0.05863
3080.20626,0.05945
3078.27751,0.06026
3076.34877,0.06100
3074.42002,0.06162
3072.49127,0.06214
3070.56253,0.06280
3068.63378,0.06378
3066.70504,0.06489
3064.77629,0.06587
3062.84755,0.06666
3060.91880,0.06740
3058.99006,0.06828
3057.06131,0.06926
3055.13257,0.07000
3053.20382,0.07033
3051.27508,0.07059
3049.34633,0.07115
3047.41759,0.07208
3045.48884,0.07317
3043.56009,0.07407
3041.63135,0.07481
3039.70260,0.07559
3037.77386,0.07642
3035.84511,0.07724
3033.91637,0.07817
3031.98762,0.07928
3030.05888,0.08026
3028.13013,0.08080
3026.20139,0.08121
3024.27264,0.08187
3022.34390,0.08268
3020.41515,0.08343
3018.48641,0.08399
3016.55766,0.08440
3014.62892,0.08480
3012.70017,0.08522
3010.77142,0.08575
3008.84268,0.08644
3006.91393,0.08691
3004.98519,0.08688
3003.05644,0.08668
3001.12770,0.08663
2999.19895,0.08656
2997.27021,0.08616
2995.34146,0.08549
2993.41272,0.08483
2991.48397,0.08404
2989.55523,0.08269
2987.62648,0.08065
2985.69774,0.07811
2983.76899,0.07555
2981.84025,0.07351
2979.91150,0.07205
2977.98275,0.07063
2976.05401,0.06859
2974.12526,0.06587
2972.19652,0.06298
2970.26777,0.06044
2968.33903,0.05874
2966.41028,0.05801
2964.48154,0.05778
2962.55279,0.05745
2960.62405,0.05677
2958.69530,0.05582
2956.76656,0.05472
2954.83781,0.05364
2952.90907,0.05273
2950.98032,0.05182
2949.05157,0.05064
2947.12283,0.04943
2945.19408,0.04858
2943.26534,0.04813
2941.33659,0.04785
2939.40785,0.04739
2937.47910,0.04660
2935.55036,0.04577
2933.62161,0.04513
2931.69287,0.04475
2929.76412,0.04456
2927.83538,0.04434
2925.90663,0.04389
2923.97789,0.04314
2922.04914,0.04225
2920.12040,0.04145
2918.19165,0.04087
2916.26290,0.04049
2914.33416,0.04027
2912.40541,0.03996
2910.47667,0.03920
2908.54792,0.03831
2906.61918,0.03795
2904.69043,0.03797
2902.76169,0.03792
2900.83294,0.03801
2898.90420,0.03838
2896.97545,0.03860
2895.04671,0.03850
2893.11796,0.03855
2891.18922,0.03909
2889.26047,0.04002
2887.33172,0.04094
2885.40298,0.04153
2883.47423,0.04198
2881.54549,0.04248
2879.61674,0.04288
2877.68800,0.04305
2875.75925,0.04325
2873.83051,0.04371
2871.90176,0.04438
2869.97302,0.04514
2868.04427,0.04585
2866.11553,0.04660
2864.18678,0.04758
2862.25804,0.04864
2860.32929,0.04942
2858.40055,0.04991
2856.47180,0.05039
2854.54305,0.05112
2852.61431,0.05212
2850.68556,0.05337
2848.75682,0.05480
2846.82807,0.05624
2844.89933,0.05773
2842.97058,0.05946
2841.04184,0.06133
2839.11309,0.06306
2837.18435,0.06442
2835.25560,0.06553
2833.32686,0.06665
2831.39811,0.06786
2829.46937,0.06901
2827.54062,0.07002
2825.61188,0.07104
2823.68313,0.07225
2821.75438,0.07362
2819.82564,0.07495
2817.89689,0.07615
2815.96815,0.07732
2814.03940,0.07854
2812.11066,0.07984
2810.18191,0.08108
2808.25317,0.08218
2806.32442,0.08324
2804.39568,0.08453
2802.46693,0.08607
2800.53819,0.08741
2798.60944,0.08837
2796.68070,0.08927
2794.75195,0.09026
2792.82320,0.09119
2790.89446,0.09194
2788.96571,0.09256
2787.03697,0.09332
2785.10822,0.09422
2783.17948,0.09500
2781.25073,0.09563
2779.32199,0.09624
2777.39324,0.09693
2775.46450,0.09763
2773.53575,0.09814
2771.60701,0.09858
2769.67826,0.09918
2767.74952,0.09982
2765.82077,0.10031
2763.89203,0.10079
2761.96328,0.10139
2760.03453,0.10188
2758.10579,0.10225
2756.17704,0.10257
2754.24830,0.10270
2752.31955,0.10265
2750.39081,0.10258
2748.46206,0.10245
2746.53332,0.10226
2744.60457,0.10212
2742.67583,0.10199
2740.74708,0.10193
2738.81834,0.10210
2736.88959,0.10232
2734.96085,0.10248
2733.03210,0.10274
2731.10336,0.10307
2729.17461,0.10340
2727.24586,0.10383
2725.31712,0.10438
2723.38837,0.10497
2721.45963,0.10562
2719.53088,0.10624
2717.60214,0.10674
2715.67339,0.10726
2713.74465,0.10797
2711.81590,0.10885
2709.88716,0.10972
2707.95841,0.11056
2706.02967,0.11159
2704.10092,0.11277
2702.17218,0.11385
2700.24343,0.11484
2698.31468,0.11590
2696.38594,0.11705
2694.45719,0.11819
2692.52845,0.11934
2690.59970,0.12060
2688.67096,0.12190
2686.74221,0.12301
2684.81347,0.12395
2682.88472,0.12500
2680.95598,0.12619
2679.02723,0.12738
2677.09849,0.12865
2675.16974,0.12995
2673.24100,0.13100
2671.31225,0.13186
2669.38351,0.13267
2667.45476,0.13336
2665.52601,0.13395
2663.59727,0.13462
2661.66852,0.13535
2659.73978,0.13612
2657.81103,0.13698
2655.88229,0.13784
2653.95354,0.13880
2652.02480,0.13998
2650.09605,0.14118
2648.16731,0.14226
2646.23856,0.14326
2644.30982,0.14412
2642.38107,0.14487
2640.45233,0.14562
2638.52358,0.14645
2636.59484,0.14752
2634.66609,0.14868
2632.73734,0.14956
2630.80860,0.15028
2628.87985,0.15106
2626.95111,0.15182
2625.02236,0.15248
2623.09362,0.15313
2621.16487,0.15387
2619.23613,0.15468
2617.30738,0.15550
2615.37864,0.15621
2613.44989,0.15695
2611.52115,0.15773
2609.59240,0.15825
2607.66366,0.15855
2605.73491,0.15901
2603.80616,0.15980
2601.87742,0.16073
2599.94867,0.16139
2598.01993,0.16176
2596.09118,0.16224
2594.16244,0.16294
2592.23369,0.16357
2590.30495,0.16407
2588.37620,0.16449
2586.44746,0.16483
2584.51871,0.16514
2582.58997,0.16542
2580.66122,0.16560
2578.73248,0.16578
2576.80373,0.16609
2574.87499,0.16641
2572.94624,0.16668
2571.01749,0.16700
2569.08875,0.16726
2567.16000,0.16732
2565.23126,0.16722
2563.30251,0.16710
2561.37377,0.16709
2559.44502,0.16709
2557.51628,0.16694
2555.58753,0.16666
2553.65879,0.16627
2551.73004,0.16586
2549.80130,0.16565
2547.87255,0.16557
2545.94381,0.16536
2544.01506,0.16518
2542.08631,0.16523
2540.15757,0.16536
2538.22882,0.16540
2536.30008,0.16539
2534.37133,0.16547
2532.44259,0.16567
2530.51384,0.16599
2528.58510,0.16649
2526.65635,0.16701
2524.72761,0.16740
2522.79886,0.16782
2520.87012,0.16829
2518.94137,0.16861
2517.01263,0.16883
2515.08388,0.16934
2513.15514,0.17025
2511.22639,0.17128
2509.29764,0.17227
2507.36890,0.17348
2505.44015,0.17500
2503.51141,0.17655
2501.58266,0.17787
2499.65392,0.17889
2497.72517,0.17977
2495.79643,0.18068
2493.86768,0.18165
2491.93894,0.18269
2490.01019,0.18378
2488.08145,0.18487
2486.15270,0.18595
2484.22396,0.18698
2482.29521,0.18787
2480.36647,0.18865
2478.43772,0.18948
2476.50897,0.19052
2474.58023,0.19176
2472.65148,0.19306
2470.72274,0.19415
2468.79399,0.19495
2466.86525,0.19562
2464.93650,0.19618
2463.00776,0.19668
2461.07901,0.19742
2459.15027,0.19840
2457.22152,0.19931
2455.29278,0.20013
2453.36403,0.20110
2451.43529,0.20221
2449.50654,0.20316
2447.57779,0.20396
2445.64905,0.20482
2443.72030,0.20581
2441.79156,0.20699
2439.86281,0.20826
2437.93407,0.20944
2436.00532,0.21053
2434.07658,0.21174
2432.14783,0.21307
2430.21909,0.21430
2428.29034,0.21536
2426.36160,0.21639
2424.43285,0.21749
2422.50411,0.21877
2420.57536,0.22011
2418.64662,0.22120
2416.71787,0.22206
2414.78912,0.22290
2412.86038,0.22376
2410.93163,0.22472
2409.00289,0.22572
2407.07414,0.22655
2405.14540,0.22723
2403.21665,0.22791
2401.28791,0.22864
2399.35916,0.22943
2397.43042,0.23015
2395.50167,0.23085
2393.57293,0.23164
2391.64418,0.23252
2389.71544,0.23336
2387.78669,0.23403
2385.85795,0.23466
2383.92920,0.23546
2382.00045,0.23630
2380.07171,0.23699
2378.14296,0.23770
2376.21422,0.23860
2374.28547,0.23959
2372.35673,0.24052
2370.42798,0.24123
2368.49924,0.24182
2366.57049,0.24248
2364.64175,0.24327
2362.71300,0.24401
2360.78426,0.24453
2358.85551,0.24485
2356.92677,0.24520
2354.99802,0.24588
2353.06927,0.24690
2351.14053,0.24792
2349.21178,0.24874
2347.28304,0.24962
2345.35429,0.25087
2343.42555,0.25229
2341.49680,0.25328
2339.56806,0.25378
2337.63931,0.25408
2335.71057,0.25451
2333.78182,0.25521
2331.85308,0.25594
2329.92433,0.25646
2327.99559,0.25679
2326.06684,0.25724
2324.13810,0.25777
2322.20935,0.25810
2320.28060,0.25835
2318.35186,0.25871
2316.42311,0.25914
2314.49437,0.25960
2312.56562,0.25998
2310.63688,0.26024
2308.70813,0.26043
2306.77939,0.26052
2304.85064,0.26030
2302.92190,0.25975
2300.99315,0.25922
2299.06441,0.25890
2297.13566,0.25864
2295.20692,0.25835
2293.27817,0.25796
2291.34943,0.25745
2289.42068,0.25684
2287.49193,0.25624
2285.56319,0.25583
2283.63444,0.25563
2281.70570,0.25534
2279.77695,0.25476
2277.84821,0.25390
2275.91946,0.25291
2273.99072,0.25182
2272.06197,0.25064
2270.13323,0.24939
2268.20448,0.24808
2266.27574,0.24671
2264.34699,0.24527
2262.41825,0.24391
2260.48950,0.24254
2258.56075,0.24114
2256.63201,0.23998
2254.70326,0.23904
2252.77452,0.23816
2250.84577,0.23743
2248.91703,0.23681
2246.98828,0.23608
2245.05954,0.23526
2243.13079,0.23456
2241.20205,0.23401
2239.27330,0.23340
2237.34456,0.23260
2235.41581,0.23180
2233.48707,0.23137
2231.55832,0.23127
2229.62958,0.23123
2227.70083,0.23129
2225.77208,0.23146
2223.84334,0.23160
2221.91459,0.23171
2219.98585,0.23182
2218.05710,0.23199
2216.12836,0.23219
2214.19961,0.23233
2212.27087,0.23243
2210.34212,0.23256
2208.41338,0.23259
2206.48463,0.23248
2204.55589,0.23231
2202.62714,0.23200
2200.69840,0.23156
2198.76965,0.23121
2196.84090,0.23090
2194.91216,0.23038
2192.98341,0.22956
2191.05467,0.22856
2189.12592,0.22741
2187.19718,0.22613
2185.26843,0.22484
2183.33969,0.22360
2181.41094,0.22242
2179.48220,0.22128
2177.55345,0.22012
2175.62471,0.21879
2173.69596,0.21719
2171.76722,0.21554
2169.83847,0.21407
2167.90973,0.21268
2165.98098,0.21128
2164.05223,0.21004
2162.12349,0.20913
2160.19474,0.20840
2158.26600,0.20760
2156.33725,0.20672
2154.40851,0.20587
2152.47976,0.20514
2150.55102,0.20459
2148.62227,0.20415
2146.69353,0.20379
2144.76478,0.20346
2142.83604,0.20298
2140.90729,0.20239
2138.97855,0.20186
2137.04980,0.20141
2135.12106,0.20105
2133.19231,0.20099
2131.26356,0.20127
2129.33482,0.20178
2127.40607,0.20245
2125.47733,0.20324
2123.54858,0.20412
2121.61984,0.20503
2119.69109,0.20594
2117.76235,0.20690
2115.83360,0.20787
2113.90486,0.20882
2111.97611,0.20990
2110.04737,0.21106
2108.11862,0.21213
2106.18988,0.21310
2104.26113,0.21402
2102.33238,0.21496
2100.40364,0.21586
2098.47489,0.21671
2096.54615,0.21762
2094.61740,0.21852
2092.68866,0.21928
2090.75991,0.21995
2088.83117,0.22051
2086.90242,0.22094
2084.97368,0.22138
2083.04493,0.22199
2081.11619,0.22252
2079.18744,0.22267
2077.25870,0.22254
2075.32995,0.22236
2073.40121,0.22207
2071.47246,0.22172
2069.54371,0.22143
2067.61497,0.22127
2065.68622,0.22120
2063.75748,0.22113
2061.82873,0.22113
2059.89999,0.22115
2057.97124,0.22100
2056.04250,0.22079
2054.11375,0.22064
2052.18501,0.22063
2050.25626,0.22077
2048.32752,0.22100
2046.39877,0.22129
2044.47003,0.22164
2042.54128,0.22215
2040.61254,0.22285
2038.68379,0.22369
2036.75504,0.22476
2034.82630,0.22619
2032.89755,0.22783
2030.96881,0.22955
2029.04006,0.23132
2027.11132,0.23318
2025.18257,0.23520
2023.25383,0.23731
2021.32508,0.23935
2019.39634,0.24132
2017.46759,0.24329
2015.53885,0.24514
2013.61010,0.24680
2011.68136,0.24827
2009.75261,0.24945
2007.82386,0.25034
2005.89512,0.25105
2003.96637,0.25171
2002.03763,0.25231
2000.10888,0.25284
1998.18014,0.25326
1996.25139,0.25361
1994.32265,0.25407
1992.39390,0.25469
1990.46516,0.25535
1988.53641,0.25608
1986.60767,0.25695
1984.67892,0.25781
1982.75018,0.25870
1980.82143,0.25975
1978.89269,0.26082
1976.96394,0.26180
1975.03519,0.26279
1973.10645,0.26392
1971.17770,0.26510
1969.24896,0.26622
1967.32021,0.26720
1965.39147,0.26792
1963.46272,0.26850
1961.53398,0.26924
1959.60523,0.27020
1957.67649,0.27126
1955.74774,0.27229
1953.81900,0.27337
1951.89025,0.27478
1949.96151,0.27655
1948.03276,0.27827
1946.10402,0.27970
1944.17527,0.28109
1942.24652,0.28251
1940.31778,0.28377
1938.38903,0.28498
1936.46029,0.28628
1934.53154,0.28749
1932.60280,0.28836
1930.67405,0.28908
1928.74531,0.28998
1926.81656,0.29098
1924.88782,0.29175
1922.95907,0.29227
1921.03033,0.29285
1919.10158,0.29357
1917.17284,0.29427
1915.24409,0.29479
1913.31534,0.29527
1911.38660,0.29594
1909.45785,0.29674
1907.52911,0.29739
1905.60036,0.29784
1903.67162,0.29818
1901.74287,0.29846
1899.81413,0.29873
1897.88538,0.29886
1895.95664,0.29875
1894.02789,0.29867
1892.09915,0.29878
1890.17040,0.29887
1888.24166,0.29875
1886.31291,0.29854
1884.38417,0.29835
1882.45542,0.29815
1880.52667,0.29793
1878.59793,0.29757
1876.66918,0.29715
1874.74044,0.29684
1872.81169,0.29669
1870.88295,0.29672
1868.95420,0.29656
1867.02546,0.29585
1865.09671,0.29499
1863.16797,0.29425
1861.23922,0.29359
1859.31048,0.29301
1857.38173,0.29236
1855.45299,0.29143
1853.52424,0.29028
1851.59549,0.28911
1849.66675,0.28802
1847.73800,0.28707
1845.80926,0.28610
1843.88051,0.28474
1841.95177,0.28314
1840.02302,0.28181
1838.09428,0.28080
1836.16553,0.27999
1834.23679,0.27929
1832.30804,0.27876
1830.37930,0.27825
1828.45055,0.27735
1826.52181,0.27630
1824.59306,0.27527
1822.66432,0.27417
1820.73557,0.27320
1818.80682,0.27236
1816.87808,0.27144
1814.94933,0.27033
1813.02059,0.26917
1811.09184,0.26785
1809.16310,0.26618
1807.23435,0.26446
1805.30561,0.26308
1803.37686,0.26207
1801.44812,0.26110
1799.51937,0.25987
1797.59063,0.25847
1795.66188,0.25732
1793.73314,0.25642
1791.80439,0.25498
1789.87565,0.25302
1787.94690,0.25155
1786.01815,0.25054
1784.08941,0.24961
1782.16066,0.24862
1780.23192,0.24738
1778.30317,0.24600
1776.37443,0.24484
1774.44568,0.24384
1772.51694,0.24262
1770.58819,0.24095
1768.65945,0.23915
1766.73070,0.23750
1764.80196,0.23618
1762.87321,0.23495
1760.94447,0.23348
1759.01572,0.23197
1757.08697,0.23047
1755.15823,0.22902
1753.22948,0.22772
1751.30074,0.22636
1749.37199,0.22482
1747.44325,0.22303
1745.51450,0.22101
1743.58576,0.21898
1741.65701,0.21690
1739.72827,0.21458
1737.79952,0.21251
1735.87078,0.21075
1733.94203,0.20813
1732.01329,0.20517
1730.08454,0.20288
1728.15580,0.20063
1726.22705,0.19844
1724.29830,0.19635
1722.36956,0.19435
1720.44081,0.19258
1718.51207,0.19060
1716.58332,0.18740
1714.65458,0.18369
1712.72583,0.18067
1710.79709,0.17817
1708.86834,0.17577
1706.93960,0.17296
1705.01085,0.16981
1703.08211,0.16697
1701.15336,0.16371
1699.22462,0.15951
1697.29587,0.15562
1695.36713,0.15114
1693.43838,0.14662
1691.50963,0.14296
1689.58089,0.13932
1687.65214,0.13608
1685.72340,0.13291
1683.79465,0.12779
1681.86591,0.12276
1679.93716,0.11941
1678.00842,0.11648
1676.07967,0.11320
1674.15093,0.10971
1672.22218,0.10678
1670.29344,0.10376
1668.36469,0.10026
1666.43595,0.09751
1664.50720,0.09537
1662.57845,0.09325
1660.64971,0.09139
1658.72096,0.09003
1656.79222,0.08912
1654.86347,0.08836
1652.93473,0.08697
1651.00598,0.08575
1649.07724,0.08548
1647.14849,0.08520
1645.21975,0.08432
1643.29100,0.08379
1641.36226,0.08388
1639.43351,0.08431
1637.50477,0.08502
1635.57602,0.08587
1633.64728,0.08655
1631.71853,0.08721
1629.78978,0.08818
1627.86104,0.08958
1625.93229,0.09139
1624.00355,0.09357
1622.07480,0.09574
1620.14606,0.09752
1618.21731,0.09950
1616.28857,0.10185
1614.35982,0.10345
1612.43108,0.10451
1610.50233,0.10580
1608.57359,0.10757
1606.64484,0.10950
1604.71610,0.11103
1602.78735,0.11218
1600.85861,0.11320
1598.92986,0.11423
1597.00111,0.11530
1595.07237,0.11635
1593.14362,0.11728
1591.21488,0.11799
1589.28613,0.11851
1587.35739,0.11914
1585.42864,0.12003
1583.49990,0.12097
1581.57115,0.12191
1579.64241,0.12300
1577.71366,0.12438
1575.78492,0.12564
1573.85617,0.12620
1571.92743,0.12679
1569.99868,0.12766
1568.06993,0.12817
1566.14119,0.12826
1564.21244,0.12840
1562.28370,0.12882
1560.35495,0.12971
1558.42621,0.13063
1556.49746,0.13046
1554.56872,0.12990
1552.63997,0.12932
1550.71123,0.12883
1548.78248,0.12836
1546.85374,0.12797
1544.92499,0.12776
1542.99625,0.12747
1541.06750,0.12644
1539.13876,0.12458
1537.21001,0.12373
1535.28126,0.12376
1533.35252,0.12375
1531.42377,0.12338
1529.49503,0.12300
1527.56628,0.12266
1525.63754,0.12222
1523.70879,0.12172
1521.78005,0.12069
1519.85130,0.11910
1517.92256,0.11751
1515.99381,0.11558
1514.06507,0.11343
1512.13632,0.11154
1510.20758,0.11023
1508.27883,0.10904
1506.35008,0.10592
1504.42134,0.10232
1502.49259,0.10002
1500.56385,0.09801
1498.63510,0.09568
1496.70636,0.09273
1494.77761,0.08945
1492.84887,0.08643
1490.92012,0.08299
1488.99138,0.07827
1487.06263,0.07309
1485.13389,0.06859
1483.20514,0.06505
1481.27640,0.06227
1479.34765,0.06008
1477.41891,0.05827
1475.49016,0.05653
1473.56141,0.05450
1471.63267,0.05202
1469.70392,0.04994
1467.77518,0.04846
1465.84643,0.04700
1463.91769,0.04542
1461.98894,0.04424
1460.06020,0.04343
1458.13145,0.04226
1456.20271,0.04045
1454.27396,0.03925
1452.34522,0.03869
1450.41647,0.03818
1448.48773,0.03740
1446.55898,0.03649
1444.63024,0.03591
1442.70149,0.03562
1440.77274,0.03534
1438.84400,0.03495
1436.91525,0.03433
1434.98651,0.03361
1433.05776,0.03317
1431.12902,0.03300
1429.20027,0.03297
1427.27153,0.03308
1425.34278,0.03341
1423.41404,0.03391
1421.48529,0.03457
1419.55655,0.03542
1417.62780,0.03617
1415.69906,0.03672
1413.77031,0.03731
1411.84156,0.03788
1409.91282,0.03831
1407.98407,0.03868
1406.05533,0.03887
1404.12658,0.03861
1402.19784,0.03826
1400.26909,0.03809
1398.34035,0.03772
1396.41160,0.03688
1394.48286,0.03589
1392.55411,0.03509
1390.62537,0.03451
1388.69662,0.03384
1386.76788,0.03271
1384.83913,0.03131
1382.91039,0.03004
1380.98164,0.02898
1379.05289,0.02827
1377.12415,0.02797
1375.19540,0.02792
1373.26666,0.02797
1371.33791,0.02804
1369.40917,0.02803
1367.48042,0.02812
1365.55168,0.02850
1363.62293,0.02913
1361.69419,0.02984
1359.76544,0.03038
1357.83670,0.03080
1355.90795,0.03118
1353.97921,0.03161
1352.05046,0.03206
1350.12172,0.03233
1348.19297,0.03223
1346.26422,0.03185
1344.33548,0.03145
1342.40673,0.03114
1340.47799,0.03077
1338.54924,0.03037
1336.62050,0.03029
1334.69175,0.03059
1332.76301,0.03108
1330.83426,0.03165
1328.90552,0.03208
1326.97677,0.03223
1325.04803,0.03217
1323.11928,0.03185
1321.19054,0.03122
1319.26179,0.03070
1317.33304,0.03066
1315.40430,0.03100
1313.47555,0.03162
1311.54681,0.03256
1309.61806,0.03373
1307.68932,0.03486
1305.76057,0.03581
1303.83183,0.03679
1301.90308,0.03793
1299.97434,0.03900
1298.04559,0.03975
1296.11685,0.04010
1294.18810,0.04012
1292.25936,0.04009
1290.33061,0.04013
1288.40187,0.03984
1286.47312,0.03895
1284.54437,0.03770
1282.61563,0.03643
1280.68688,0.03560
1278.75814,0.03547
1276.82939,0.03594
1274.90065,0.03691
1272.97190,0.03801
1271.04316,0.03874
1269.11441,0.03894
1267.18567,0.03892
1265.25692,0.03887
1263.32818,0.03870
1261.39943,0.03847
1259.47069,0.03847
1257.54194,0.03887
1255.61320,0.03951
1253.68445,0.03999
1251.75570,0.03990
1249.82696,0.03939
1247.89821,0.03893
1245.96947,0.03864
1244.04072,0.03842
1242.11198,0.03805
1240.18323,0.03727
1238.25449,0.03631
1236.32574,0.03568
1234.39700,0.03562
1232.46825,0.03583
1230.53951,0.03578
1228.61076,0.03544
1226.68202,0.03540
1224.75327,0.03600
1222.82452,0.03693
1220.89578,0.03777
1218.96703,0.03821
1217.03829,0.03815
1215.10954,0.03759
1213.18080,0.03628
1211.25205,0.03430
1209.32331,0.03229
1207.39456,0.03066
1205.46582,0.02932
1203.53707,0.02827
1201.60833,0.02764
1199.67958,0.02750
1197.75084,0.02770
1195.82209,0.02793
1193.89335,0.02822
1191.96460,0.02874
1190.03585,0.02903
1188.10711,0.02856
1186.17836,0.02757
1184.24962,0.02658
1182.32087,0.02569
1180.39213,0.02481
1178.46338,0.02418
1176.53464,0.02415
1174.60589,0.02465
1172.67715,0.02542
1170.74840,0.02654
1168.81966,0.02815
1166.89091,0.02995
1164.96217,0.03130
1163.03342,0.03179
1161.10467,0.03153
1159.17593,0.03087
1157.24718,0.03015
1155.31844,0.02940
1153.38969,0.02845
1151.46095,0.02723
1149.53220,0.02582
1147.60346,0.02462
1145.67471,0.02404
1143.74597,0.02370
1141.81722,0.02303
1139.88848,0.02205
1137.95973,0.02110
1136.03099,0.02049
1134.10224,0.02013
1132.17350,0.01981
1130.24475,0.01988
1128.31600,0.02060
1126.38726,0.02150
1124.45851,0.02235
1122.52977,0.02342
1120.60102,0.02456
1118.67228,0.02537
1116.74353,0.02620
1114.81479,0.02742
1112.88604,0.02860
1110.95730,0.02928
1109.02855,0.02949
1107.09981,0.02922
1105.17106,0.02850
1103.24232,0.02779
1101.31357,0.02736
1099.38483,0.02711
1097.45608,0.02702
1095.52733,0.02709
1093.59859,0.02725
1091.66984,0.02755
1089.74110,0.02818
1087.81235,0.02952
1085.88361,0.03180
1083.95486,0.03443
1082.02612,0.03668
1080.09737,0.03818
1078.16863,0.03890
1076.23988,0.03949
1074.31114,0.04043
1072.38239,0.04141
1070.45365,0.04241
1068.52490,0.04372
1066.59615,0.04520
1064.66741,0.04662
1062.73866,0.04797
1060.80992,0.04901
1058.88117,0.04945
1056.95243,0.04914
1055.02368,0.04789
1053.09494,0.04618
1051.16619,0.04475
1049.23745,0.04353
1047.30870,0.04232
1045.37996,0.04132
1043.45121,0.04064
1041.52247,0.04053
1039.59372,0.04139
1037.66498,0.04298
1035.73623,0.04450
1033.80748,0.04553
1031.87874,0.04608
1029.94999,0.04626
1028.02125,0.04639
1026.09250,0.04670
1024.16376,0.04689
1022.23501,0.04668
1020.30627,0.04635
1018.37752,0.04636
1016.44878,0.04675
1014.52003,0.04720
1012.59129,0.04742
1010.66254,0.04725
1008.73380,0.04652
1006.80505,0.04543
1004.87631,0.04472
1002.94756,0.04497
1001.01881,0.04607
999.09007,0.04763
997.16132,0.04919
995.23258,0.05041
993.30383,0.05129
991.37509,0.05202
989.44634,0.05284
987.51760,0.05405
985.58885,0.05595
983.66011,0.05873
981.73136,0.06216
979.80262,0.06569
977.87387,0.06860
975.94513,0.07048
974.01638,0.07149
972.08763,0.07199
970.15889,0.07240
968.23014,0.07311
966.30140,0.07402
964.37265,0.07508
962.44391,0.07707
960.51516,0.08061
958.58642,0.08532
956.65767,0.09043
954.72893,0.09529
952.80018,0.09949
950.87144,0.10310
948.94269,0.10611
947.01395,0.10811
945.08520,0.10913
943.15646,0.10975
941.22771,0.11024
939.29896,0.11040
937.37022,0.11017
935.44147,0.10970
933.51273,0.10909
931.58398,0.10847
929.65524,0.10834
927.72649,0.10895
925.79775,0.10963
923.86900,0.10969
921.94026,0.10915
920.01151,0.10810
918.08277,0.10624
916.15402,0.10335
914.22528,0.09961
912.29653,0.09541
910.36779,0.09107
908.43904,0.08683
906.51029,0.08265
904.58155,0.07811
902.65280,0.07328
900.72406,0.06897
898.79531,0.06583
896.86657,0.06436
894.93782,0.06514
893.00908,0.06847
891.08033,0.07399
889.15159,0.08081
887.22284,0.08790
885.29410,0.09443
883.36535,0.09980
881.43661,0.10410
879.50786,0.10775
877.57911,0.11085
875.65037,0.11360
873.72162,0.11600
871.79288,0.11771
869.86413,0.11876
867.93539,0.11941
866.00664,0.11967
864.07790,0.11935
862.14915,0.11873
860.22041,0.11831
858.29166,0.11812
856.36292,0.11777
854.43417,0.11672
852.50543,0.11507
850.57668,0.11364
848.64794,0.11280
846.71919,0.11214
844.79044,0.11116
842.86170,0.10979
840.93295,0.10818
839.00421,0.10669
837.07546,0.10552
835.14672,0.10441
833.21797,0.10293
831.28923,0.10129
829.36048,0.10016
827.43174,0.09937
825.50299,0.09827
823.57425,0.09704
821.64550,0.09625
819.71676,0.09578
817.78801,0.09511
815.85926,0.09390
813.93052,0.09229
812.00177,0.09072
810.07303,0.08939
808.14428,0.08827
806.21554,0.08750
804.28679,0.08686
802.35805,0.08582
800.42930,0.08439
798.50056,0.08297
796.57181,0.08155
794.64307,0.08010
792.71432,0.07891
790.78558,0.07823
788.85683,0.07769
786.92809,0.07669
784.99934,0.07539
783.07059,0.07426
781.14185,0.07327
779.21310,0.07212
777.28436,0.07081
775.35561,0.06944
773.42687,0.06814
771.49812,0.06713
769.56938,0.06632
767.64063,0.06529
765.71189,0.06401
763.78314,0.06291
761.85440,0.06178
759.92565,0.06016
757.99691,0.05858
756.06816,0.05770
754.13942,0.05714
752.21067,0.05627
750.28192,0.05513
748.35318,0.05433
746.42443,0.05377
744.49569,0.05283
742.56694,0.05152
740.63820,0.05027
738.70945,0.04912
736.78071,0.04816
734.85196,0.04755
732.92322,0.04710
730.99447,0.04625
729.06573,0.04473
727.13698,0.04312
725.20824,0.04202
723.27949,0.04139
721.35074,0.04119
719.42200,0.04124
717.49325,0.04096
715.56451,0.04022
713.63576,0.03955
711.70702,0.03927
709.77827,0.03934
707.84953,0.03957
705.92078,0.03970
703.99204,0.03962
702.06329,0.03921
700.13455,0.03869
698.20580,0.03844
696.27706,0.03842
694.34831,0.03867
692.41957,0.03902
690.49082,0.03888
688.56207,0.03835
686.63333,0.03811
684.70458,0.03774
682.77584,0.03676
680.84709,0.03555
678.91835,0.03443
676.98960,0.03390
675.06086,0.03428
673.13211,0.03494
671.20337,0.03567
669.27462,0.03659
667.34588,0.03684
665.41713,0.03628
663.48839,0.03602
661.55964,0.03621
659.63090,0.03686
657.70215,0.03777
655.77340,0.03830
653.84466,0.03851
651.91591,0.03843
649.98717,0.03787
648.05842,0.03740
646.12968,0.03734
644.20093,0.03732
642.27219,0.03700
640.34344,0.03613
638.41470,0.03477
636.48595,0.03344
634.55721,0.03263
632.62846,0.03248
630.69972,0.03267
628.77097,0.03347
626.84222,0.03459
624.91348,0.03475
622.98473,0.03353
621.05599,0.03214
619.12724,0.03228
617.19850,0.03371
615.26975,0.03434
613.34101,0.03418
611.41226,0.03495
609.48352,0.03658
607.55477,0.03764
605.62603,0.03765
603.69728,0.03755
601.76854,0.03875
599.83979,0.04060
