7497.03301,0.81428
7495.10426,0.81261
7493.17552,0.80966
7491.24677,0.81101
7489.31803,0.81539
7487.38928,0.81529
7485.46054,0.80793
7483.53179,0.80062
7481.60305,0.79988
7479.67430,0.80274
7477.74556,0.80282
7475.81681,0.80014
7473.88807,0.80168
7471.95932,0.80966
7470.03057,0.81549
7468.10183,0.81445
7466.17308,0.81116
7464.24434,0.80595
7462.31559,0.79821
7460.38685,0.79189
7458.45810,0.78743
7456.52936,0.78472
7454.60061,0.78802
7452.67187,0.79635
7450.74312,0.79973
7448.81438,0.79563
7446.88563,0.79301
7444.95689,0.79340
7443.02814,0.79039
7441.09940,0.78363
7439.17065,0.77836
7437.24190,0.77931
7435.31316,0.78524
7433.38441,0.78839
7431.45567,0.78611
7429.52692,0.78519
7427.59818,0.78987
7425.66943,0.79576
7423.74069,0.79772
7421.81194,0.79650
7419.88320,0.79349
7417.95445,0.78698
7416.02571,0.77930
7414.09696,0.77588
7412.16822,0.77549
7410.23947,0.77468
7408.31073,0.77460
7406.38198,0.77504
7404.45323,0.77373
7402.52449,0.77022
7400.59574,0.76633
7398.66700,0.76611
7396.73825,0.77078
7394.80951,0.77615
7392.88076,0.77812
7390.95202,0.77677
7389.02327,0.77429
7387.09453,0.77160
7385.16578,0.76988
7383.23704,0.76866
7381.30829,0.76517
7379.37955,0.76124
7377.45080,0.75897
7375.52205,0.75738
7373.59331,0.75719
7371.66456,0.75635
7369.73582,0.75440
7367.80707,0.75454
7365.87833,0.75417
7363.94958,0.75168
7362.02084,0.74874
7360.09209,0.74616
7358.16335,0.74783
7356.23460,0.75379
7354.30586,0.75992
7352.37711,0.76282
7350.44837,0.75885
7348.51962,0.75063
7346.59088,0.74521
7344.66213,0.74395
7342.73338,0.74402
7340.80464,0.74322
7338.87589,0.74282
7336.94715,0.74468
7335.01840,0.74449
7333.08966,0.73894
7331.16091,0.73316
7329.23217,0.73293
7327.30342,0.73737
7325.37468,0.73982
7323.44593,0.73588
7321.51719,0.72998
7319.58844,0.72871
7317.65970,0.73234
7315.73095,0.73610
7313.80221,0.73510
7311.87346,0.73039
7309.94471,0.72765
7308.01597,0.72735
7306.08722,0.72761
7304.15848,0.72940
7302.22973,0.73269
7300.30099,0.73703
7298.37224,0.74000
7296.44350,0.74046
7294.51475,0.74009
7292.58601,0.73640
7290.65726,0.73073
7288.72852,0.72806
7286.79977,0.72691
7284.87103,0.72662
7282.94228,0.72903
7281.01353,0.73145
7279.08479,0.73137
7277.15604,0.72991
7275.22730,0.72803
7273.29855,0.72668
7271.36981,0.72690
7269.44106,0.72785
7267.51232,0.72750
7265.58357,0.72536
7263.65483,0.72431
7261.72608,0.72615
7259.79734,0.72928
7257.86859,0.73325
7255.93985,0.73679
7254.01110,0.73513
7252.08236,0.72757
7250.15361,0.72069
7248.22486,0.71930
7246.29612,0.72163
7244.36737,0.72589
7242.43863,0.73235
7240.50988,0.73600
7238.58114,0.73437
7236.65239,0.73196
7234.72365,0.72880
7232.79490,0.72453
7230.86616,0.72349
7228.93741,0.72484
7227.00867,0.72535
7225.07992,0.72505
7223.15118,0.72438
7221.22243,0.72507
7219.29369,0.72755
7217.36494,0.72758
7215.43619,0.72470
7213.50745,0.72435
7211.57870,0.72688
7209.64996,0.72772
7207.72121,0.72647
7205.79247,0.72503
7203.86372,0.72310
7201.93498,0.72085
7200.00623,0.71976
7198.07749,0.71932
7196.14874,0.72066
7194.22000,0.72637
7192.29125,0.73070
7190.36251,0.72769
7188.43376,0.72252
7186.50501,0.71990
7184.57627,0.71766
7182.64752,0.71421
7180.71878,0.71235
7178.79003,0.71498
7176.86129,0.72046
7174.93254,0.72394
7173.00380,0.72130
7171.07505,0.71388
7169.14631,0.70621
7167.21756,0.70056
7165.28882,0.69829
7163.36007,0.70004
7161.43133,0.70228
7159.50258,0.70162
7157.57384,0.70121
7155.64509,0.70440
7153.71634,0.70896
7151.78760,0.70898
7149.85885,0.70328
7147.93011,0.69916
7146.00136,0.70022
7144.07262,0.70150
7142.14387,0.69965
7140.21513,0.69724
7138.28638,0.69644
7136.35764,0.69671
7134.42889,0.69792
7132.50015,0.69757
7130.57140,0.69229
7128.64266,0.68550
7126.71391,0.68425
7124.78516,0.68765
7122.85642,0.68805
7120.92767,0.68376
7118.99893,0.67897
7117.07018,0.67716
7115.14144,0.67796
7113.21269,0.67737
7111.28395,0.67364
7109.35520,0.66970
7107.42646,0.66790
7105.49771,0.66666
7103.56897,0.66564
7101.64022,0.66486
7099.71148,0.66320
7097.78273,0.66197
7095.85399,0.66127
7093.92524,0.66027
7091.99649,0.65920
7090.06775,0.65846
7088.13900,0.65833
7086.21026,0.65621
7084.28151,0.65120
7082.35277,0.64708
7080.42402,0.64658
7078.49528,0.64844
7076.56653,0.64939
7074.63779,0.64835
7072.70904,0.64659
7070.78030,0.64486
7068.85155,0.64144
7066.92281,0.63597
7064.99406,0.63237
7063.06532,0.63254
7061.13657,0.63356
7059.20782,0.63282
7057.27908,0.63150
7055.35033,0.63119
7053.42159,0.62978
7051.49284,0.62510
7049.56410,0.61886
7047.63535,0.61516
7045.70661,0.61583
7043.77786,0.61707
7041.84912,0.61420
7039.92037,0.60928
7037.99163,0.60833
7036.06288,0.61044
7034.13414,0.60952
7032.20539,0.60612
7030.27664,0.60370
7028.34790,0.60195
7026.41915,0.60073
7024.49041,0.59957
7022.56166,0.59751
7020.63292,0.59527
7018.70417,0.59330
7016.77543,0.59212
7014.84668,0.59254
7012.91794,0.59295
7010.98919,0.59053
7009.06045,0.58672
7007.13170,0.58536
7005.20296,0.58654
7003.27421,0.58912
7001.34547,0.59197
6999.41672,0.59186
6997.48797,0.58850
6995.55923,0.58582
6993.63048,0.58603
6991.70174,0.58740
6989.77299,0.58606
6987.84425,0.58088
6985.91550,0.57661
6983.98676,0.57694
6982.05801,0.57884
6980.12927,0.57789
6978.20052,0.57406
6976.27178,0.57079
6974.34303,0.56991
6972.41429,0.56997
6970.48554,0.56913
6968.55680,0.56747
6966.62805,0.56718
6964.69930,0.56807
6962.77056,0.56720
6960.84181,0.56495
6958.91307,0.56356
6956.98432,0.56257
6955.05558,0.56131
6953.12683,0.56128
6951.19809,0.56245
6949.26934,0.56296
6947.34060,0.56361
6945.41185,0.56518
6943.48311,0.56590
6941.55436,0.56398
6939.62562,0.56029
6937.69687,0.55936
6935.76812,0.56179
6933.83938,0.56130
6931.91063,0.55635
6929.98189,0.55384
6928.05314,0.55619
6926.12440,0.55796
6924.19565,0.55621
6922.26691,0.55313
6920.33816,0.55109
6918.40942,0.55074
6916.48067,0.55232
6914.55193,0.55474
6912.62318,0.55519
6910.69444,0.55387
6908.76569,0.55355
6906.83695,0.55447
6904.90820,0.55466
6902.97945,0.55256
6901.05071,0.54905
6899.12196,0.54710
6897.19322,0.54805
6895.26447,0.54984
6893.33573,0.55035
6891.40698,0.55016
6889.47824,0.55013
6887.54949,0.54892
6885.62075,0.54568
6883.69200,0.54242
6881.76326,0.54042
6879.83451,0.53906
6877.90577,0.53922
6875.97702,0.54126
6874.04828,0.54281
6872.11953,0.54302
6870.19078,0.54259
6868.26204,0.54124
6866.33329,0.54083
6864.40455,0.54261
6862.47580,0.54322
6860.54706,0.54181
6858.61831,0.54200
6856.68957,0.54330
6854.76082,0.54130
6852.83208,0.53641
6850.90333,0.53346
6848.97459,0.53466
6847.04584,0.53706
6845.11710,0.53576
6843.18835,0.53164
6841.25960,0.53013
6839.33086,0.53118
6837.40211,0.53091
6835.47337,0.52910
6833.54462,0.52676
6831.61588,0.52547
6829.68713,0.52742
6827.75839,0.53033
6825.82964,0.53080
6823.90090,0.52901
6821.97215,0.52685
6820.04341,0.52560
6818.11466,0.52426
6816.18592,0.52263
6814.25717,0.52151
6812.32843,0.52009
6810.39968,0.51935
6808.47093,0.52068
6806.54219,0.52208
6804.61344,0.52164
6802.68470,0.52022
6800.75595,0.51920
6798.82721,0.51850
6796.89846,0.51735
6794.96972,0.51720
6793.04097,0.51978
6791.11223,0.52203
6789.18348,0.52084
6787.25474,0.51845
6785.32599,0.51739
6783.39725,0.51659
6781.46850,0.51444
6779.53975,0.51231
6777.61101,0.51286
6775.68226,0.51530
6773.75352,0.51685
6771.82477,0.51674
6769.89603,0.51475
6767.96728,0.51212
6766.03854,0.51205
6764.10979,0.51319
6762.18105,0.51186
6760.25230,0.50972
6758.32356,0.50892
6756.39481,0.50901
6754.46607,0.51101
6752.53732,0.51427
6750.60858,0.51579
6748.67983,0.51458
6746.75108,0.51136
6744.82234,0.50758
6742.89359,0.50508
6740.96485,0.50557
6739.03610,0.50874
6737.10736,0.51152
6735.17861,0.51226
6733.24987,0.51174
6731.32112,0.51064
6729.39238,0.51021
6727.46363,0.51181
6725.53489,0.51393
6723.60614,0.51395
6721.67740,0.51135
6719.74865,0.50750
6717.81991,0.50576
6715.89116,0.50760
6713.96241,0.50984
6712.03367,0.51032
6710.10492,0.51009
6708.17618,0.50956
6706.24743,0.50828
6704.31869,0.50653
6702.38994,0.50571
6700.46120,0.50711
6698.53245,0.50968
6696.60371,0.51158
6694.67496,0.51260
6692.74622,0.51294
6690.81747,0.51250
6688.88873,0.51152
6686.95998,0.51136
6685.03123,0.51263
6683.10249,0.51305
6681.17374,0.51171
6679.24500,0.51058
6677.31625,0.51044
6675.38751,0.51118
6673.45876,0.51204
6671.53002,0.51128
6669.60127,0.51008
6667.67253,0.51053
6665.74378,0.51111
6663.81504,0.51135
6661.88629,0.51224
6659.95755,0.51266
6658.02880,0.51247
6656.10006,0.51264
6654.17131,0.51316
6652.24256,0.51363
6650.31382,0.51377
6648.38507,0.51434
6646.45633,0.51583
6644.52758,0.51625
6642.59884,0.51497
6640.67009,0.51543
6638.74135,0.51842
6636.81260,0.51972
6634.88386,0.51761
6632.95511,0.51567
6631.02637,0.51749
6629.09762,0.52172
6627.16888,0.52400
6625.24013,0.52264
6623.31139,0.52101
6621.38264,0.52251
6619.45389,0.52459
6617.52515,0.52436
6615.59640,0.52462
6613.66766,0.52678
6611.73891,0.52810
6609.81017,0.52819
6607.88142,0.52878
6605.95268,0.52942
6604.02393,0.52907
6602.09519,0.52857
6600.16644,0.52891
6598.23770,0.52985
6596.30895,0.53049
6594.38021,0.53079
6592.45146,0.53122
6590.52271,0.53115
6588.59397,0.53009
6586.66522,0.52854
6584.73648,0.52699
6582.80773,0.52569
6580.87899,0.52452
6578.95024,0.52426
6577.02150,0.52540
6575.09275,0.52604
6573.16401,0.52611
6571.23526,0.52787
6569.30652,0.53074
6567.37777,0.53205
6565.44903,0.53050
6563.52028,0.52726
6561.59154,0.52554
6559.66279,0.52687
6557.73404,0.52904
6555.80530,0.53007
6553.87655,0.53062
6551.94781,0.53138
6550.01906,0.53199
6548.09032,0.53211
6546.16157,0.53070
6544.23283,0.52798
6542.30408,0.52672
6540.37534,0.52736
6538.44659,0.52789
6536.51785,0.52786
6534.58910,0.52783
6532.66036,0.52876
6530.73161,0.53001
6528.80287,0.53042
6526.87412,0.53098
6524.94537,0.53135
6523.01663,0.53109
6521.08788,0.53138
6519.15914,0.53160
6517.23039,0.53195
6515.30165,0.53216
6513.37290,0.53053
6511.44416,0.53018
6509.51541,0.53351
6507.58667,0.53548
6505.65792,0.53392
6503.72918,0.53314
6501.80043,0.53411
6499.87169,0.53396
6497.94294,0.53214
6496.01419,0.53031
6494.08545,0.52950
6492.15670,0.52890
6490.22796,0.52837
6488.29921,0.52884
6486.37047,0.52882
6484.44172,0.52753
6482.51298,0.52803
6480.58423,0.53127
6478.65549,0.53392
6476.72674,0.53371
6474.79800,0.53206
6472.86925,0.53162
6470.94051,0.53236
6469.01176,0.53143
6467.08302,0.52871
6465.15427,0.52743
6463.22552,0.52843
6461.29678,0.52921
6459.36803,0.52903
6457.43929,0.53058
6455.51054,0.53414
6453.58180,0.53647
6451.65305,0.53714
6449.72431,0.53752
6447.79556,0.53662
6445.86682,0.53451
6443.93807,0.53341
6442.00933,0.53356
6440.08058,0.53413
6438.15184,0.53475
6436.22309,0.53464
6434.29434,0.53408
6432.36560,0.53375
6430.43685,0.53392
6428.50811,0.53501
6426.57936,0.53613
6424.65062,0.53624
6422.72187,0.53571
6420.79313,0.53488
6418.86438,0.53384
6416.93564,0.53311
6415.00689,0.53331
6413.07815,0.53414
6411.14940,0.53458
6409.22066,0.53439
6407.29191,0.53454
6405.36317,0.53557
6403.43442,0.53667
6401.50567,0.53753
6399.57693,0.53786
6397.64818,0.53692
6395.71944,0.53556
6393.79069,0.53441
6391.86195,0.53283
6389.93320,0.53189
6388.00446,0.53297
6386.07571,0.53468
6384.14697,0.53475
6382.21822,0.53353
6380.28948,0.53379
6378.36073,0.53592
6376.43199,0.53709
6374.50324,0.53666
6372.57450,0.53685
6370.64575,0.53762
6368.71700,0.53746
6366.78826,0.53761
6364.85951,0.53952
6362.93077,0.54146
6361.00202,0.54046
6359.07328,0.53698
6357.14453,0.53610
6355.21579,0.53936
6353.28704,0.54202
6351.35830,0.54237
6349.42955,0.54178
6347.50081,0.54001
6345.57206,0.53795
6343.64332,0.53779
6341.71457,0.53883
6339.78582,0.53896
6337.85708,0.53851
6335.92833,0.53835
6333.99959,0.53857
6332.07084,0.53957
6330.14210,0.54065
6328.21335,0.54074
6326.28461,0.53970
6324.35586,0.53819
6322.42712,0.53746
6320.49837,0.53770
6318.56963,0.53795
6316.64088,0.53806
6314.71214,0.53869
6312.78339,0.53969
6310.85465,0.54029
6308.92590,0.54036
6306.99715,0.54077
6305.06841,0.54208
6303.13966,0.54300
6301.21092,0.54270
6299.28217,0.54304
6297.35343,0.54465
6295.42468,0.54602
6293.49594,0.54689
6291.56719,0.54739
6289.63845,0.54707
6287.70970,0.54606
6285.78096,0.54534
6283.85221,0.54566
6281.92347,0.54600
6279.99472,0.54521
6278.06598,0.54465
6276.13723,0.54586
6274.20848,0.54766
6272.27974,0.54862
6270.35099,0.54924
6268.42225,0.55002
6266.49350,0.55070
6264.56476,0.55085
6262.63601,0.55018
6260.70727,0.54994
6258.77852,0.55113
6256.84978,0.55257
6254.92103,0.55295
6252.99229,0.55247
6251.06354,0.55254
6249.13480,0.55415
6247.20605,0.55722
6245.27730,0.56031
6243.34856,0.56081
6241.41981,0.55922
6239.49107,0.55923
6237.56232,0.56161
6235.63358,0.56407
6233.70483,0.56538
6231.77609,0.56534
6229.84734,0.56408
6227.91860,0.56297
6225.98985,0.56289
6224.06111,0.56327
6222.13236,0.56431
6220.20362,0.56695
6218.27487,0.57061
6216.34613,0.57231
6214.41738,0.57066
6212.48863,0.56942
6210.55989,0.57152
6208.63114,0.57489
6206.70240,0.57707
6204.77365,0.57757
6202.84491,0.57722
6200.91616,0.57728
6198.98742,0.57742
6197.05867,0.57720
6195.12993,0.57818
6193.20118,0.58080
6191.27244,0.58293
6189.34369,0.58332
6187.41495,0.58358
6185.48620,0.58448
6183.55746,0.58429
6181.62871,0.58309
6179.69996,0.58309
6177.77122,0.58482
6175.84247,0.58660
6173.91373,0.58741
6171.98498,0.58832
6170.05624,0.58931
6168.12749,0.58947
6166.19875,0.58971
6164.27000,0.59050
6162.34126,0.59201
6160.41251,0.59516
6158.48377,0.59836
6156.55502,0.59900
6154.62628,0.59787
6152.69753,0.59711
6150.76878,0.59692
6148.84004,0.59790
6146.91129,0.60087
6144.98255,0.60405
6143.05380,0.60582
6141.12506,0.60621
6139.19631,0.60516
6137.26757,0.60409
6135.33882,0.60419
6133.41008,0.60481
6131.48133,0.60584
6129.55259,0.60727
6127.62384,0.60805
6125.69510,0.60809
6123.76635,0.60857
6121.83761,0.60879
6119.90886,0.60807
6117.98011,0.60825
6116.05137,0.60908
6114.12262,0.60930
6112.19388,0.61034
6110.26513,0.61216
6108.33639,0.61292
6106.40764,0.61352
6104.47890,0.61516
6102.55015,0.61679
6100.62141,0.61727
6098.69266,0.61624
6096.76392,0.61516
6094.83517,0.61641
6092.90643,0.61920
6090.97768,0.62044
6089.04893,0.61957
6087.12019,0.61811
6085.19144,0.61754
6083.26270,0.61872
6081.33395,0.62011
6079.40521,0.62040
6077.47646,0.62122
6075.54772,0.62349
6073.61897,0.62573
6071.69023,0.62579
6069.76148,0.62438
6067.83274,0.62490
6065.90399,0.62763
6063.97525,0.62964
6062.04650,0.62962
6060.11776,0.62922
6058.18901,0.62947
6056.26026,0.62971
6054.33152,0.63017
6052.40277,0.63100
6050.47403,0.63169
6048.54528,0.63249
6046.61654,0.63393
6044.68779,0.63563
6042.75905,0.63642
6040.83030,0.63635
6038.90156,0.63629
6036.97281,0.63642
6035.04407,0.63648
6033.11532,0.63607
6031.18658,0.63561
6029.25783,0.63569
6027.32909,0.63636
6025.40034,0.63751
6023.47159,0.63893
6021.54285,0.64063
6019.61410,0.64236
6017.68536,0.64352
6015.75661,0.64394
6013.82787,0.64363
6011.89912,0.64298
6009.97038,0.64303
6008.04163,0.64368
6006.11289,0.64412
6004.18414,0.64421
6002.25540,0.64424
6000.32665,0.64500
5998.39791,0.64691
5996.46916,0.64881
5994.54041,0.64953
5992.61167,0.64947
5990.68292,0.64951
5988.75418,0.64937
5986.82543,0.64862
5984.89669,0.64781
5982.96794,0.64749
5981.03920,0.64707
5979.11045,0.64614
5977.18171,0.64642
5975.25296,0.64878
5973.32422,0.65089
5971.39547,0.65058
5969.46673,0.64880
5967.53798,0.64816
5965.60924,0.64916
5963.68049,0.65016
5961.75174,0.65046
5959.82300,0.65040
5957.89425,0.65058
5955.96551,0.65122
5954.03676,0.65177
5952.10802,0.65134
5950.17927,0.64956
5948.25053,0.64773
5946.32178,0.64707
5944.39304,0.64676
5942.46429,0.64631
5940.53555,0.64632
5938.60680,0.64623
5936.67806,0.64554
5934.74931,0.64549
5932.82057,0.64647
5930.89182,0.64699
5928.96307,0.64609
5927.03433,0.64462
5925.10558,0.64411
5923.17684,0.64468
5921.24809,0.64460
5919.31935,0.64327
5917.39060,0.64215
5915.46186,0.64168
5913.53311,0.64145
5911.60437,0.64147
5909.67562,0.64143
5907.74688,0.64128
5905.81813,0.64156
5903.88939,0.64204
5901.96064,0.64132
5900.03189,0.63887
5898.10315,0.63651
5896.17440,0.63593
5894.24566,0.63615
5892.31691,0.63554
5890.38817,0.63481
5888.45942,0.63516
5886.53068,0.63519
5884.60193,0.63313
5882.67319,0.63053
5880.74444,0.62947
5878.81570,0.62909
5876.88695,0.62809
5874.95821,0.62703
5873.02946,0.62674
5871.10072,0.62660
5869.17197,0.62575
5867.24322,0.62511
5865.31448,0.62563
5863.38573,0.62649
5861.45699,0.62686
5859.52824,0.62675
5857.59950,0.62637
5855.67075,0.62612
5853.74201,0.62656
5851.81326,0.62759
5849.88452,0.62846
5847.95577,0.62815
5846.02703,0.62628
5844.09828,0.62445
5842.16954,0.62467
5840.24079,0.62621
5838.31205,0.62707
5836.38330,0.62693
5834.45455,0.62662
5832.52581,0.62648
5830.59706,0.62598
5828.66832,0.62504
5826.73957,0.62459
5824.81083,0.62440
5822.88208,0.62394
5820.95334,0.62384
5819.02459,0.62355
5817.09585,0.62221
5815.16710,0.62048
5813.23836,0.61943
5811.30961,0.62019
5809.38087,0.62200
5807.45212,0.62275
5805.52337,0.62265
5803.59463,0.62270
5801.66588,0.62290
5799.73714,0.62307
5797.80839,0.62302
5795.87965,0.62239
5793.95090,0.62132
5792.02216,0.62060
5790.09341,0.62059
5788.16467,0.62121
5786.23592,0.62141
5784.30718,0.61980
5782.37843,0.61787
5780.44969,0.61794
5778.52094,0.61899
5776.59220,0.61910
5774.66345,0.61831
5772.73470,0.61747
5770.80596,0.61712
5768.87721,0.61722
5766.94847,0.61729
5765.01972,0.61690
5763.09098,0.61641
5761.16223,0.61697
5759.23349,0.61828
5757.30474,0.61861
5755.37600,0.61771
5753.44725,0.61680
5751.51851,0.61680
5749.58976,0.61770
5747.66102,0.61870
5745.73227,0.61883
5743.80352,0.61842
5741.87478,0.61805
5739.94603,0.61664
5738.01729,0.61460
5736.08854,0.61432
5734.15980,0.61542
5732.23105,0.61567
5730.30231,0.61532
5728.37356,0.61570
5726.44482,0.61617
5724.51607,0.61516
5722.58733,0.61293
5720.65858,0.61234
5718.72984,0.61408
5716.80109,0.61510
5714.87235,0.61450
5712.94360,0.61413
5711.01485,0.61405
5709.08611,0.61319
5707.15736,0.61201
5705.22862,0.61164
5703.29987,0.61208
5701.37113,0.61221
5699.44238,0.61159
5697.51364,0.61133
5695.58489,0.61146
5693.65615,0.61081
5691.72740,0.60989
5689.79866,0.60939
5687.86991,0.60931
5685.94117,0.61010
5684.01242,0.61123
5682.08368,0.61128
5680.15493,0.61052
5678.22618,0.61038
5676.29744,0.61046
5674.36869,0.60922
5672.43995,0.60724
5670.51120,0.60686
5668.58246,0.60786
5666.65371,0.60767
5664.72497,0.60585
5662.79622,0.60438
5660.86748,0.60443
5658.93873,0.60504
5657.00999,0.60527
5655.08124,0.60565
5653.15250,0.60588
5651.22375,0.60481
5649.29500,0.60330
5647.36626,0.60264
5645.43751,0.60207
5643.50877,0.60131
5641.58002,0.60132
5639.65128,0.60208
5637.72253,0.60312
5635.79379,0.60403
5633.86504,0.60438
5631.93630,0.60414
5630.00755,0.60399
5628.07881,0.60445
5626.15006,0.60483
5624.22132,0.60431
5622.29257,0.60336
5620.36383,0.60299
5618.43508,0.60342
5616.50633,0.60441
5614.57759,0.60575
5612.64884,0.60646
5610.72010,0.60583
5608.79135,0.60483
5606.86261,0.60453
5604.93386,0.60462
5603.00512,0.60414
5601.07637,0.60307
5599.14763,0.60262
5597.21888,0.60314
5595.29014,0.60348
5593.36139,0.60367
5591.43265,0.60429
5589.50390,0.60477
5587.57516,0.60496
5585.64641,0.60517
5583.71766,0.60508
5581.78892,0.60446
5579.86017,0.60397
5577.93143,0.60438
5576.00268,0.60537
5574.07394,0.60624
5572.14519,0.60646
5570.21645,0.60611
5568.28770,0.60631
5566.35896,0.60716
5564.43021,0.60781
5562.50147,0.60855
5560.57272,0.60928
5558.64398,0.60903
5556.71523,0.60817
5554.78648,0.60761
5552.85774,0.60758
5550.92899,0.60803
5549.00025,0.60878
5547.07150,0.60968
5545.14276,0.61040
5543.21401,0.61014
5541.28527,0.60909
5539.35652,0.60843
5537.42778,0.60847
5535.49903,0.60900
5533.57029,0.60966
5531.64154,0.60944
5529.71280,0.60833
5527.78405,0.60757
5525.85531,0.60770
5523.92656,0.60811
5521.99781,0.60852
5520.06907,0.60892
5518.14032,0.60880
5516.21158,0.60816
5514.28283,0.60775
5512.35409,0.60799
5510.42534,0.60834
5508.49660,0.60859
5506.56785,0.60920
5504.63911,0.60950
5502.71036,0.60903
5500.78162,0.60852
5498.85287,0.60823
5496.92413,0.60785
5494.99538,0.60695
5493.06664,0.60598
5491.13789,0.60607
5489.20914,0.60725
5487.28040,0.60892
5485.35165,0.61031
5483.42291,0.61071
5481.49416,0.61034
5479.56542,0.60979
5477.63667,0.60943
5475.70793,0.60915
5473.77918,0.60861
5471.85044,0.60790
5469.92169,0.60756
5467.99295,0.60806
5466.06420,0.60909
5464.13546,0.60984
5462.20671,0.60997
5460.27796,0.60993
5458.34922,0.61020
5456.42047,0.61082
5454.49173,0.61155
5452.56298,0.61222
5450.63424,0.61273
5448.70549,0.61265
5446.77675,0.61196
5444.84800,0.61160
5442.91926,0.61180
5440.99051,0.61257
5439.06177,0.61396
5437.13302,0.61462
5435.20428,0.61422
5433.27553,0.61461
5431.34679,0.61551
5429.41804,0.61570
5427.48929,0.61653
5425.56055,0.61803
5423.63180,0.61858
5421.70306,0.61896
5419.77431,0.62028
5417.84557,0.62136
5415.91682,0.62098
5413.98808,0.61981
5412.05933,0.61910
5410.13059,0.61939
5408.20184,0.62083
5406.27310,0.62250
5404.34435,0.62347
5402.41561,0.62426
5400.48686,0.62510
5398.55811,0.62508
5396.62937,0.62429
5394.70062,0.62417
5392.77188,0.62540
5390.84313,0.62683
5388.91439,0.62682
5386.98564,0.62565
5385.05690,0.62554
5383.12815,0.62692
5381.19941,0.62751
5379.27066,0.62608
5377.34192,0.62428
5375.41317,0.62456
5373.48443,0.62677
5371.55568,0.62877
5369.62694,0.62903
5367.69819,0.62768
5365.76944,0.62596
5363.84070,0.62500
5361.91195,0.62517
5359.98321,0.62571
5358.05446,0.62520
5356.12572,0.62231
5354.19697,0.61879
5352.26823,0.61851
5350.33948,0.62016
5348.41074,0.61969
5346.48199,0.61699
5344.55325,0.61544
5342.62450,0.61655
5340.69576,0.61728
5338.76701,0.61641
5336.83827,0.61586
5334.90952,0.61576
5332.98077,0.61515
5331.05203,0.61397
5329.12328,0.61238
5327.19454,0.61120
5325.26579,0.61058
5323.33705,0.60968
5321.40830,0.60879
5319.47956,0.60803
5317.55081,0.60681
5315.62207,0.60522
5313.69332,0.60358
5311.76458,0.60164
5309.83583,0.59880
5307.90709,0.59562
5305.97834,0.59323
5304.04959,0.59112
5302.12085,0.58859
5300.19210,0.58667
5298.26336,0.58563
5296.33461,0.58394
5294.40587,0.58097
5292.47712,0.57723
5290.54838,0.57329
5288.61963,0.56979
5286.69089,0.56679
5284.76214,0.56408
5282.83340,0.56122
5280.90465,0.55821
5278.97591,0.55582
5277.04716,0.55372
5275.11842,0.55053
5273.18967,0.54607
5271.26092,0.54154
5269.33218,0.53784
5267.40343,0.53465
5265.47469,0.53082
5263.54594,0.52625
5261.61720,0.52255
5259.68845,0.52005
5257.75971,0.51694
5255.83096,0.51273
5253.90222,0.50924
5251.97347,0.50655
5250.04473,0.50291
5248.11598,0.49857
5246.18724,0.49497
5244.25849,0.49266
5242.32975,0.49077
5240.40100,0.48798
5238.47225,0.48458
5236.54351,0.48200
5234.61476,0.48021
5232.68602,0.47760
5230.75727,0.47425
5228.82853,0.47146
5226.89978,0.46930
5224.97104,0.46765
5223.04229,0.46649
5221.11355,0.46479
5219.18480,0.46223
5217.25606,0.46029
5215.32731,0.45974
5213.39857,0.45937
5211.46982,0.45777
5209.54107,0.45485
5207.61233,0.45207
5205.68358,0.45058
5203.75484,0.45002
5201.82609,0.44945
5199.89735,0.44823
5197.96860,0.44675
5196.03986,0.44621
5194.11111,0.44675
5192.18237,0.44718
5190.25362,0.44688
5188.32488,0.44602
5186.39613,0.44497
5184.46739,0.44420
5182.53864,0.44383
5180.60990,0.44384
5178.68115,0.44415
5176.75240,0.44476
5174.82366,0.44548
5172.89491,0.44566
5170.96617,0.44500
5169.03742,0.44415
5167.10868,0.44385
5165.17993,0.44427
5163.25119,0.44531
5161.32244,0.44669
5159.39370,0.44778
5157.46495,0.44850
5155.53621,0.44928
5153.60746,0.45006
5151.67872,0.45056
5149.74997,0.45092
5147.82123,0.45125
5145.89248,0.45161
5143.96373,0.45210
5142.03499,0.45287
5140.10624,0.45412
5138.17750,0.45542
5136.24875,0.45621
5134.32001,0.45695
5132.39126,0.45842
5130.46252,0.46007
5128.53377,0.46087
5126.60503,0.46119
5124.67628,0.46226
5122.74754,0.46393
5120.81879,0.46504
5118.89005,0.46579
5116.96130,0.46674
5115.03255,0.46750
5113.10381,0.46808
5111.17506,0.46863
5109.24632,0.46915
5107.31757,0.47015
5105.38883,0.47174
5103.46008,0.47327
5101.53134,0.47434
5099.60259,0.47507
5097.67385,0.47580
5095.74510,0.47678
5093.81636,0.47770
5091.88761,0.47838
5089.95887,0.47943
5088.03012,0.48093
5086.10138,0.48215
5084.17263,0.48304
5082.24388,0.48402
5080.31514,0.48496
5078.38639,0.48584
5076.45765,0.48701
5074.52890,0.48837
5072.60016,0.48971
5070.67141,0.49103
5068.74267,0.49188
5066.81392,0.49191
5064.88518,0.49189
5062.95643,0.49285
5061.02769,0.49456
5059.09894,0.49599
5057.17020,0.49686
5055.24145,0.49751
5053.31270,0.49802
5051.38396,0.49852
5049.45521,0.49940
5047.52647,0.50063
5045.59772,0.50203
5043.66898,0.50330
5041.74023,0.50401
5039.81149,0.50436
5037.88274,0.50521
5035.95400,0.50666
5034.02525,0.50789
5032.09651,0.50876
5030.16776,0.50975
5028.23902,0.51060
5026.31027,0.51091
5024.38153,0.51122
5022.45278,0.51211
5020.52403,0.51287
5018.59529,0.51291
5016.66654,0.51306
5014.73780,0.51382
5012.80905,0.51465
5010.88031,0.51531
5008.95156,0.51599
5007.02282,0.51664
5005.09407,0.51735
5003.16533,0.51798
5001.23658,0.51838
4999.30784,0.51916
4997.37909,0.52054
4995.45035,0.52158
4993.52160,0.52174
4991.59286,0.52164
4989.66411,0.52173
4987.73536,0.52186
4985.80662,0.52155
4983.87787,0.52056
4981.94913,0.51964
4980.02038,0.51966
4978.09164,0.52026
4976.16289,0.52069
4974.23415,0.52067
4972.30540,0.52015
4970.37666,0.51938
4968.44791,0.51916
4966.51917,0.51956
4964.59042,0.51936
4962.66168,0.51843
4960.73293,0.51770
4958.80418,0.51729
4956.87544,0.51710
4954.94669,0.51690
4953.01795,0.51588
4951.08920,0.51414
4949.16046,0.51267
4947.23171,0.51192
4945.30297,0.51135
4943.37422,0.51028
4941.44548,0.50902
4939.51673,0.50815
4937.58799,0.50753
4935.65924,0.50682
4933.73050,0.50562
4931.80175,0.50402
4929.87301,0.50286
4927.94426,0.50191
4926.01551,0.50042
4924.08677,0.49862
4922.15802,0.49703
4920.22928,0.49571
4918.30053,0.49432
4916.37179,0.49239
4914.44304,0.48976
4912.51430,0.48699
4910.58555,0.48471
4908.65681,0.48281
4906.72806,0.48086
4904.79932,0.47865
4902.87057,0.47635
4900.94183,0.47424
4899.01308,0.47240
4897.08434,0.47075
4895.15559,0.46899
4893.22684,0.46666
4891.29810,0.46397
4889.36935,0.46181
4887.44061,0.46028
4885.51186,0.45845
4883.58312,0.45605
4881.65437,0.45370
4879.72563,0.45169
4877.79688,0.44979
4875.86814,0.44794
4873.93939,0.44635
4872.01065,0.44511
4870.08190,0.44387
4868.15316,0.44233
4866.22441,0.44052
4864.29566,0.43851
4862.36692,0.43656
4860.43817,0.43520
4858.50943,0.43424
4856.58068,0.43288
4854.65194,0.43122
4852.72319,0.42975
4850.79445,0.42792
4848.86570,0.42563
4846.93696,0.42429
4845.00821,0.42391
4843.07947,0.42308
4841.15072,0.42179
4839.22198,0.42052
4837.29323,0.41897
4835.36449,0.41716
4833.43574,0.41536
4831.50699,0.41368
4829.57825,0.41213
4827.64950,0.41053
4825.72076,0.40885
4823.79201,0.40727
4821.86327,0.40578
4819.93452,0.40430
4818.00578,0.40311
4816.07703,0.40250
4814.14829,0.40237
4812.21954,0.40224
4810.29080,0.40146
4808.36205,0.39986
4806.43331,0.39819
4804.50456,0.39715
4802.57582,0.39617
4800.64707,0.39479
4798.71832,0.39366
4796.78958,0.39317
4794.86083,0.39294
4792.93209,0.39263
4791.00334,0.39236
4789.07460,0.39205
4787.14585,0.39127
4785.21711,0.39032
4783.28836,0.38987
4781.35962,0.38961
4779.43087,0.38923
4777.50213,0.38882
4775.57338,0.38835
4773.64464,0.38794
4771.71589,0.38775
4769.78714,0.38743
4767.85840,0.38661
4765.92965,0.38567
4764.00091,0.38524
4762.07216,0.38534
4760.14342,0.38558
4758.21467,0.38562
4756.28593,0.38536
4754.35718,0.38497
4752.42844,0.38480
4750.49969,0.38519
4748.57095,0.38603
4746.64220,0.38650
4744.71346,0.38620
4742.78471,0.38586
4740.85597,0.38616
4738.92722,0.38725
4736.99847,0.38863
4735.06973,0.38939
4733.14098,0.38960
4731.21224,0.38998
4729.28349,0.39047
4727.35475,0.39095
4725.42600,0.39168
4723.49726,0.39256
4721.56851,0.39334
4719.63977,0.39390
4717.71102,0.39438
4715.78228,0.39504
4713.85353,0.39594
4711.92479,0.39698
4709.99604,0.39812
4708.06729,0.39930
4706.13855,0.40027
4704.20980,0.40068
4702.28106,0.40077
4700.35231,0.40139
4698.42357,0.40279
4696.49482,0.40435
4694.56608,0.40537
4692.63733,0.40594
4690.70859,0.40671
4688.77984,0.40780
4686.85110,0.40888
4684.92235,0.40978
4682.99361,0.41071
4681.06486,0.41194
4679.13612,0.41331
4677.20737,0.41447
4675.27862,0.41553
4673.34988,0.41651
4671.42113,0.41709
4669.49239,0.41749
4667.56364,0.41818
4665.63490,0.41905
4663.70615,0.41993
4661.77741,0.42061
4659.84866,0.42099
4657.91992,0.42158
4655.99117,0.42253
4654.06243,0.42358
4652.13368,0.42480
4650.20494,0.42599
4648.27619,0.42688
4646.34745,0.42743
4644.41870,0.42755
4642.48995,0.42778
4640.56121,0.42873
4638.63246,0.43007
4636.70372,0.43132
4634.77497,0.43244
4632.84623,0.43328
4630.91748,0.43364
4628.98874,0.43396
4627.05999,0.43472
4625.13125,0.43577
4623.20250,0.43695
4621.27376,0.43806
4619.34501,0.43876
4617.41627,0.43931
4615.48752,0.44010
4613.55877,0.44082
4611.63003,0.44132
4609.70128,0.44195
4607.77254,0.44285
4605.84379,0.44405
4603.91505,0.44546
4601.98630,0.44659
4600.05756,0.44731
4598.12881,0.44800
4596.20007,0.44899
4594.27132,0.44998
4592.34258,0.45052
4590.41383,0.45113
4588.48509,0.45227
4586.55634,0.45321
4584.62760,0.45367
4582.69885,0.45423
4580.77010,0.45495
4578.84136,0.45568
4576.91261,0.45670
4574.98387,0.45799
4573.05512,0.45912
4571.12638,0.46000
4569.19763,0.46090
4567.26889,0.46191
4565.34014,0.46279
4563.41140,0.46328
4561.48265,0.46359
4559.55391,0.46410
4557.62516,0.46495
4555.69642,0.46605
4553.76767,0.46713
4551.83893,0.46775
4549.91018,0.46797
4547.98143,0.46832
4546.05269,0.46904
4544.12394,0.46990
4542.19520,0.47051
4540.26645,0.47113
4538.33771,0.47201
4536.40896,0.47256
4534.48022,0.47258
4532.55147,0.47267
4530.62273,0.47333
4528.69398,0.47453
4526.76524,0.47573
4524.83649,0.47650
4522.90775,0.47694
4520.97900,0.47726
4519.05025,0.47742
4517.12151,0.47760
4515.19276,0.47823
4513.26402,0.47903
4511.33527,0.47925
4509.40653,0.47901
4507.47778,0.47917
4505.54904,0.48003
4503.62029,0.48086
4501.69155,0.48099
4499.76280,0.48066
4497.83406,0.48045
4495.90531,0.48067
4493.97657,0.48122
4492.04782,0.48155
4490.11908,0.48169
4488.19033,0.48199
4486.26158,0.48202
4484.33284,0.48163
4482.40409,0.48144
4480.47535,0.48156
4478.54660,0.48175
4476.61786,0.48200
4474.68911,0.48193
4472.76037,0.48133
4470.83162,0.48058
4468.90288,0.47981
4466.97413,0.47895
4465.04539,0.47803
4463.11664,0.47684
4461.18790,0.47537
4459.25915,0.47407
4457.33041,0.47296
4455.40166,0.47141
4453.47291,0.46936
4451.54417,0.46728
4449.61542,0.46533
4447.68668,0.46332
4445.75793,0.46115
4443.82919,0.45879
4441.90044,0.45618
4439.97170,0.45344
4438.04295,0.45061
4436.11421,0.44733
4434.18546,0.44374
4432.25672,0.44032
4430.32797,0.43704
4428.39923,0.43381
4426.47048,0.43071
4424.54173,0.42749
4422.61299,0.42411
4420.68424,0.42084
4418.75550,0.41782
4416.82675,0.41500
4414.89801,0.41212
4412.96926,0.40911
4411.04052,0.40649
4409.11177,0.40454
4407.18303,0.40292
4405.25428,0.40118
4403.32554,0.39941
4401.39679,0.39799
4399.46805,0.39700
4397.53930,0.39640
4395.61056,0.39616
4393.68181,0.39630
4391.75306,0.39691
4389.82432,0.39782
4387.89557,0.39890
4385.96683,0.40020
4384.03808,0.40156
4382.10934,0.40261
4380.18059,0.40339
4378.25185,0.40449
4376.32310,0.40618
4374.39436,0.40790
4372.46561,0.40920
4370.53687,0.41008
4368.60812,0.41055
4366.67938,0.41068
4364.75063,0.41047
4362.82189,0.40999
4360.89314,0.40945
4358.96439,0.40893
4357.03565,0.40828
4355.10690,0.40739
4353.17816,0.40647
4351.24941,0.40579
4349.32067,0.40509
4347.39192,0.40429
4345.46318,0.40372
4343.53443,0.40321
4341.60569,0.40231
4339.67694,0.40107
4337.74820,0.39994
4335.81945,0.39913
4333.89071,0.39820
4331.96196,0.39676
4330.03321,0.39484
4328.10447,0.39288
4326.17572,0.39132
4324.24698,0.39005
4322.31823,0.38890
4320.38949,0.38778
4318.46074,0.38657
4316.53200,0.38542
4314.60325,0.38444
4312.67451,0.38343
4310.74576,0.38233
4308.81702,0.38118
4306.88827,0.38007
4304.95953,0.37903
4303.03078,0.37797
4301.10204,0.37679
4299.17329,0.37563
4297.24454,0.37474
4295.31580,0.37387
4293.38705,0.37268
4291.45831,0.37161
4289.52956,0.37090
4287.60082,0.37008
4285.67207,0.36887
4283.74333,0.36759
4281.81458,0.36658
4279.88584,0.36602
4277.95709,0.36578
4276.02835,0.36543
4274.09960,0.36494
4272.17086,0.36460
4270.24211,0.36436
4268.31336,0.36415
4266.38462,0.36424
4264.45587,0.36458
4262.52713,0.36490
4260.59838,0.36505
4258.66964,0.36509
4256.74089,0.36511
4254.81215,0.36518
4252.88340,0.36522
4250.95466,0.36510
4249.02591,0.36480
4247.09717,0.36453
4245.16842,0.36453
4243.23968,0.36452
4241.31093,0.36426
4239.38219,0.36427
4237.45344,0.36496
4235.52469,0.36600
4233.59595,0.36689
4231.66720,0.36756
4229.73846,0.36805
4227.80971,0.36842
4225.88097,0.36885
4223.95222,0.36938
4222.02348,0.36974
4220.09473,0.36984
4218.16599,0.36981
4216.23724,0.36961
4214.30850,0.36945
4212.37975,0.36968
4210.45101,0.37023
4208.52226,0.37088
4206.59352,0.37163
4204.66477,0.37254
4202.73602,0.37348
4200.80728,0.37431
4198.87853,0.37499
4196.94979,0.37547
4195.02104,0.37585
4193.09230,0.37618
4191.16355,0.37644
4189.23481,0.37655
4187.30606,0.37635
4185.37732,0.37594
4183.44857,0.37565
4181.51983,0.37562
4179.59108,0.37579
4177.66234,0.37601
4175.73359,0.37606
4173.80484,0.37612
4171.87610,0.37646
4169.94735,0.37688
4168.01861,0.37720
4166.08986,0.37755
4164.16112,0.37783
4162.23237,0.37788
4160.30363,0.37774
4158.37488,0.37753
4156.44614,0.37712
4154.51739,0.37632
4152.58865,0.37528
4150.65990,0.37434
4148.73116,0.37353
4146.80241,0.37246
4144.87367,0.37114
4142.94492,0.37021
4141.01617,0.36989
4139.08743,0.36947
4137.15868,0.36874
4135.22994,0.36822
4133.30119,0.36777
4131.37245,0.36700
4129.44370,0.36630
4127.51496,0.36577
4125.58621,0.36469
4123.65747,0.36302
4121.72872,0.36135
4119.79998,0.35977
4117.87123,0.35822
4115.94249,0.35678
4114.01374,0.35525
4112.08500,0.35351
4110.15625,0.35162
4108.22750,0.34966
4106.29876,0.34780
4104.37001,0.34606
4102.44127,0.34424
4100.51252,0.34222
4098.58378,0.34004
4096.65503,0.33777
4094.72629,0.33545
4092.79754,0.33325
4090.86880,0.33099
4088.94005,0.32850
4087.01131,0.32627
4085.08256,0.32445
4083.15382,0.32247
4081.22507,0.32021
4079.29632,0.31806
4077.36758,0.31609
4075.43883,0.31409
4073.51009,0.31216
4071.58134,0.31033
4069.65260,0.30833
4067.72385,0.30601
4065.79511,0.30351
4063.86636,0.30103
4061.93762,0.29858
4060.00887,0.29615
4058.08013,0.29391
4056.15138,0.29185
4054.22264,0.28979
4052.29389,0.28760
4050.36515,0.28518
4048.43640,0.28262
4046.50765,0.28025
4044.57891,0.27832
4042.65016,0.27669
4040.72142,0.27507
4038.79267,0.27355
4036.86393,0.27233
4034.93518,0.27121
4033.00644,0.27006
4031.07769,0.26900
4029.14895,0.26815
4027.22020,0.26751
4025.29146,0.26702
4023.36271,0.26664
4021.43397,0.26619
4019.50522,0.26573
4017.57648,0.26557
4015.64773,0.26564
4013.71898,0.26580
4011.79024,0.26607
4009.86149,0.26628
4007.93275,0.26663
4006.00400,0.26742
4004.07526,0.26842
4002.14651,0.26901
4000.21777,0.26921
3998.28902,0.26965
3996.36028,0.27079
3994.43153,0.27232
3992.50279,0.27348
3990.57404,0.27412
3988.64530,0.27470
3986.71655,0.27530
3984.78780,0.27562
3982.85906,0.27591
3980.93031,0.27661
3979.00157,0.27739
3977.07282,0.27793
3975.14408,0.27846
3973.21533,0.27907
3971.28659,0.27947
3969.35784,0.27959
3967.42910,0.27976
3965.50035,0.28020
3963.57161,0.28080
3961.64286,0.28138
3959.71412,0.28201
3957.78537,0.28253
3955.85663,0.28286
3953.92788,0.28338
3951.99913,0.28421
3950.07039,0.28504
3948.14164,0.28570
3946.21290,0.28615
3944.28415,0.28641
3942.35541,0.28716
3940.42666,0.28879
3938.49792,0.29055
3936.56917,0.29177
3934.64043,0.29241
3932.71168,0.29287
3930.78294,0.29386
3928.85419,0.29525
3926.92545,0.29635
3924.99670,0.29722
3923.06795,0.29820
3921.13921,0.29915
3919.21046,0.30008
3917.28172,0.30129
3915.35297,0.30267
3913.42423,0.30379
3911.49548,0.30472
3909.56674,0.30560
3907.63799,0.30582
3905.70925,0.30519
3903.78050,0.30458
3901.85176,0.30491
3899.92301,0.30643
3897.99427,0.30870
3896.06552,0.31031
3894.13678,0.31034
3892.20803,0.30988
3890.27928,0.31079
3888.35054,0.31223
3886.42179,0.31289
3884.49305,0.31304
3882.56430,0.31309
3880.63556,0.31368
3878.70681,0.31532
3876.77807,0.31645
3874.84932,0.31634
3872.92058,0.31600
3870.99183,0.31651
3869.06309,0.31833
3867.13434,0.32013
3865.20560,0.32106
3863.27685,0.32246
3861.34811,0.32487
3859.41936,0.32673
3857.49061,0.32698
3855.56187,0.32586
3853.63312,0.32547
3851.70438,0.32829
3849.77563,0.33148
3847.84689,0.33335
3845.91814,0.33418
3843.98940,0.33407
3842.06065,0.33308
3840.13191,0.33200
3838.20316,0.33233
3836.27442,0.33413
3834.34567,0.33572
3832.41693,0.33688
3830.48818,0.33790
3828.55943,0.33809
3826.63069,0.33745
3824.70194,0.33673
3822.77320,0.33543
3820.84445,0.33397
3818.91571,0.33397
3816.98696,0.33444
3815.05822,0.33548
3813.12947,0.33693
3811.20073,0.33725
3809.27198,0.33629
3807.34324,0.33502
3805.41449,0.33414
3803.48575,0.33302
3801.55700,0.33234
3799.62826,0.33345
3797.69951,0.33484
3795.77076,0.33583
3793.84202,0.33649
3791.91327,0.33655
3789.98453,0.33641
3788.05578,0.33625
3786.12704,0.33568
3784.19829,0.33501
3782.26955,0.33450
3780.34080,0.33388
3778.41206,0.33371
3776.48331,0.33397
3774.55457,0.33365
3772.62582,0.33222
3770.69708,0.33027
3768.76833,0.32904
3766.83959,0.32860
3764.91084,0.32851
3762.98209,0.32817
3761.05335,0.32675
3759.12460,0.32496
3757.19586,0.32423
3755.26711,0.32350
3753.33837,0.32125
3751.40962,0.31817
3749.48088,0.31705
3747.55213,0.31693
3745.62339,0.31571
3743.69464,0.31484
3741.76590,0.31498
3739.83715,0.31426
3737.90841,0.31202
3735.97966,0.30899
3734.05091,0.30732
3732.12217,0.30754
3730.19342,0.30781
3728.26468,0.30674
3726.33593,0.30438
3724.40719,0.30175
3722.47844,0.29955
3720.54970,0.29792
3718.62095,0.29638
3716.69221,0.29424
3714.76346,0.29098
3712.83472,0.28647
3710.90597,0.28253
3708.97723,0.28081
3707.04848,0.27940
3705.11974,0.27681
3703.19099,0.27308
3701.26224,0.26908
3699.33350,0.26565
3697.40475,0.26225
3695.47601,0.25826
3693.54726,0.25367
3691.61852,0.24806
3689.68977,0.24179
3687.76103,0.23673
3685.83228,0.23307
3683.90354,0.22953
3681.97479,0.22517
3680.04605,0.21973
3678.11730,0.21332
3676.18856,0.20552
3674.25981,0.19831
3672.33107,0.19332
3670.40232,0.18755
3668.47357,0.18122
3666.54483,0.17641
3664.61608,0.17164
3662.68734,0.16614
3660.75859,0.16068
3658.82985,0.15530
3656.90110,0.14905
3654.97236,0.14283
3653.04361,0.13782
3651.11487,0.13218
3649.18612,0.12522
3647.25738,0.11991
3645.32863,0.11664
3643.39989,0.11378
3641.47114,0.11048
3639.54239,0.10659
3637.61365,0.10262
3635.68490,0.09894
3633.75616,0.09554
3631.82741,0.09259
3629.89867,0.08943
3627.96992,0.08540
3626.04118,0.08216
3624.11243,0.07988
3622.18369,0.07773
3620.25494,0.07511
3618.32620,0.07205
3616.39745,0.06949
3614.46871,0.06736
3612.53996,0.06521
3610.61122,0.06309
3608.68247,0.06101
3606.75372,0.05904
3604.82498,0.05754
3602.89623,0.05620
3600.96749,0.05452
3599.03874,0.05272
3597.11000,0.05119
3595.18125,0.05006
3593.25251,0.04935
3591.32376,0.04859
3589.39502,0.04714
3587.46627,0.04524
3585.53753,0.04404
3583.60878,0.04352
3581.68004,0.04292
3579.75129,0.04204
3577.82254,0.04112
3575.89380,0.04017
3573.96505,0.03914
3572.03631,0.03843
3570.10756,0.03805
3568.17882,0.03740
3566.25007,0.03633
3564.32133,0.03556
3562.39258,0.03522
3560.46384,0.03505
3558.53509,0.03474
3556.60635,0.03417
3554.67760,0.03351
3552.74886,0.03278
3550.82011,0.03214
3548.89137,0.03179
3546.96262,0.03149
3545.03387,0.03094
3543.10513,0.03026
3541.17638,0.02966
3539.24764,0.02928
3537.31889,0.02901
3535.39015,0.02860
3533.46140,0.02826
3531.53266,0.02812
3529.60391,0.02784
3527.67517,0.02747
3525.74642,0.02717
3523.81768,0.02678
3521.88893,0.02629
3519.96019,0.02597
3518.03144,0.02589
3516.10270,0.02577
3514.17395,0.02545
3512.24520,0.02500
3510.31646,0.02469
3508.38771,0.02464
3506.45897,0.02470
3504.53022,0.02460
3502.60148,0.02418
3500.67273,0.02380
3498.74399,0.02358
3496.81524,0.02330
3494.88650,0.02321
3492.95775,0.02362
3491.02901,0.02397
3489.10026,0.02388
3487.17152,0.02396
3485.24277,0.02449
3483.31402,0.02472
3481.38528,0.02428
3479.45653,0.02378
3477.52779,0.02384
3475.59904,0.02431
3473.67030,0.02459
3471.74155,0.02455
3469.81281,0.02458
3467.88406,0.02457
3465.95532,0.02424
3464.02657,0.02386
3462.09783,0.02394
3460.16908,0.02432
3458.24034,0.02450
3456.31159,0.02449
3454.38285,0.02447
3452.45410,0.02455
3450.52535,0.02481
3448.59661,0.02510
3446.66786,0.02529
3444.73912,0.02552
3442.81037,0.02573
3440.88163,0.02572
3438.95288,0.02552
3437.02414,0.02540
3435.09539,0.02545
3433.16665,0.02558
3431.23790,0.02574
3429.30916,0.02577
3427.38041,0.02572
3425.45167,0.02591
3423.52292,0.02601
3421.59418,0.02570
3419.66543,0.02536
3417.73668,0.02532
3415.80794,0.02539
3413.87919,0.02549
3411.95045,0.02579
3410.02170,0.02602
3408.09296,0.02588
3406.16421,0.02553
3404.23547,0.02523
3402.30672,0.02522
3400.37798,0.02561
3398.44923,0.02610
3396.52049,0.02633
3394.59174,0.02638
3392.66300,0.02636
3390.73425,0.02602
3388.80550,0.02553
3386.87676,0.02539
3384.94801,0.02572
3383.01927,0.02612
3381.09052,0.02632
3379.16178,0.02644
3377.23303,0.02653
3375.30429,0.02653
3373.37554,0.02639
3371.44680,0.02604
3369.51805,0.02573
3367.58931,0.02585
3365.66056,0.02621
3363.73182,0.02635
3361.80307,0.02633
3359.87433,0.02639
3357.94558,0.02655
3356.01683,0.02674
3354.08809,0.02680
3352.15934,0.02677
3350.23060,0.02696
3348.30185,0.02732
3346.37311,0.02761
3344.44436,0.02778
3342.51562,0.02774
3340.58687,0.02746
3338.65813,0.02733
3336.72938,0.02760
3334.80064,0.02808
3332.87189,0.02833
3330.94315,0.02828
3329.01440,0.02816
3327.08566,0.02796
3325.15691,0.02775
3323.22816,0.02788
3321.29942,0.02836
3319.37067,0.02883
3317.44193,0.02916
3315.51318,0.02924
3313.58444,0.02895
3311.65569,0.02869
3309.72695,0.02872
3307.79820,0.02874
3305.86946,0.02876
3303.94071,0.02887
3302.01197,0.02885
3300.08322,0.02864
3298.15448,0.02850
3296.22573,0.02859
3294.29698,0.02871
3292.36824,0.02875
3290.43949,0.02876
3288.51075,0.02888
3286.58200,0.02924
3284.65326,0.02964
3282.72451,0.02984
3280.79577,0.02990
3278.86702,0.03000
3276.93828,0.03011
3275.00953,0.03021
3273.08079,0.03046
3271.15204,0.03085
3269.22330,0.03102
3267.29455,0.03092
3265.36581,0.03091
3263.43706,0.03103
3261.50831,0.03104
3259.57957,0.03085
3257.65082,0.03058
3255.72208,0.03045
3253.79333,0.03042
3251.86459,0.03054
3249.93584,0.03086
3248.00710,0.03134
3246.07835,0.03193
3244.14961,0.03217
3242.22086,0.03181
3240.29212,0.03145
3238.36337,0.03143
3236.43463,0.03161
3234.50588,0.03203
3232.57713,0.03246
3230.64839,0.03254
3228.71964,0.03240
3226.79090,0.03243
3224.86215,0.03273
3222.93341,0.03288
3221.00466,0.03265
3219.07592,0.03249
3217.14717,0.03271
3215.21843,0.03287
3213.28968,0.03285
3211.36094,0.03295
3209.43219,0.03306
3207.50345,0.03308
3205.57470,0.03315
3203.64596,0.03326
3201.71721,0.03342
3199.78846,0.03365
3197.85972,0.03375
3195.93097,0.03375
3194.00223,0.03396
3192.07348,0.03428
3190.14474,0.03450
3188.21599,0.03452
3186.28725,0.03449
3184.35850,0.03480
3182.42976,0.03536
3180.50101,0.03562
3178.57227,0.03565
3176.64352,0.03576
3174.71478,0.03590
3172.78603,0.03606
3170.85729,0.03628
3168.92854,0.03645
3166.99979,0.03654
3165.07105,0.03657
3163.14230,0.03680
3161.21356,0.03735
3159.28481,0.03795
3157.35607,0.03822
3155.42732,0.03809
3153.49858,0.03779
3151.56983,0.03774
3149.64109,0.03814
3147.71234,0.03871
3145.78360,0.03915
3143.85485,0.03946
3141.92611,0.03959
3139.99736,0.03967
3138.06861,0.04001
3136.13987,0.04057
3134.21112,0.04123
3132.28238,0.04197
3130.35363,0.04265
3128.42489,0.04320
3126.49614,0.04363
3124.56740,0.04395
3122.63865,0.04424
3120.70991,0.04470
3118.78116,0.04537
3116.85242,0.04589
3114.92367,0.04613
3112.99493,0.04639
3111.06618,0.04676
3109.13744,0.04713
3107.20869,0.04750
3105.27994,0.04791
3103.35120,0.04846
3101.42245,0.04915
3099.49371,0.04987
3097.56496,0.05055
3095.63622,0.05119
3093.70747,0.05173
3091.77873,0.05221
3089.84998,0.05279
3087.92124,0.05358
3085.99249,0.05443
3084.06375,0.05516
3082.13500,0.05571
3080.20626,0.05617
3078.27751,0.05672
3076.34877,0.05737
3074.42002,0.05811
3072.49127,0.05885
3070.56253,0.05954
3068.63378,0.06029
3066.70504,0.06105
3064.77629,0.06176
3062.84755,0.06258
3060.91880,0.06347
3058.99006,0.06418
3057.06131,0.06472
3055.13257,0.06529
3053.20382,0.06604
3051.27508,0.06687
3049.34633,0.06756
3047.41759,0.06837
3045.48884,0.06934
3043.56009,0.07011
3041.63135,0.07069
3039.70260,0.07132
3037.77386,0.07197
3035.84511,0.07270
3033.91637,0.07353
3031.98762,0.07423
3030.05888,0.07481
3028.13013,0.07565
3026.20139,0.07667
3024.27264,0.07751
3022.34390,0.07817
3020.41515,0.07878
3018.48641,0.07943
3016.55766,0.08022
3014.62892,0.08077
3012.70017,0.08082
3010.77142,0.08094
3008.84268,0.08150
3006.91393,0.08215
3004.98519,0.08242
3003.05644,0.08239
3001.12770,0.08237
2999.19895,0.08231
2997.27021,0.08203
2995.34146,0.08165
2993.41272,0.08118
2991.48397,0.08025
2989.55523,0.07879
2987.62648,0.07698
2985.69774,0.07480
2983.76899,0.07246
2981.84025,0.07049
2979.91150,0.06902
2977.98275,0.06765
2976.05401,0.06597
2974.12526,0.06390
2972.19652,0.06160
2970.26777,0.05941
2968.33903,0.05783
2966.41028,0.05711
2964.48154,0.05679
2962.55279,0.05625
2960.62405,0.05548
2958.69530,0.05460
2956.76656,0.05364
2954.83781,0.05275
2952.90907,0.05191
2950.98032,0.05087
2949.05157,0.04975
2947.12283,0.04895
2945.19408,0.04835
2943.26534,0.04769
2941.33659,0.04708
2939.40785,0.04656
2937.47910,0.04602
2935.55036,0.04538
2933.62161,0.04462
2931.69287,0.04391
2929.76412,0.04356
2927.83538,0.04351
2925.90663,0.04336
2923.97789,0.04294
2922.04914,0.04235
2920.12040,0.04161
2918.19165,0.04087
2916.26290,0.04038
2914.33416,0.04006
2912.40541,0.03960
2910.47667,0.03887
2908.54792,0.03816
2906.61918,0.03775
2904.69043,0.03771
2902.76169,0.03798
2900.83294,0.03822
2898.90420,0.03841
2896.97545,0.03865
2895.04671,0.03878
2893.11796,0.03891
2891.18922,0.03933
2889.26047,0.03987
2887.33172,0.04038
2885.40298,0.04094
2883.47423,0.04147
2881.54549,0.04179
2879.61674,0.04201
2877.68800,0.04236
2875.75925,0.04287
2873.83051,0.04347
2871.90176,0.04413
2869.97302,0.04485
2868.04427,0.04556
2866.11553,0.04623
2864.18678,0.04695
2862.25804,0.04777
2860.32929,0.04864
2858.40055,0.04950
2856.47180,0.05039
2854.54305,0.05125
2852.61431,0.05205
2850.68556,0.05299
2848.75682,0.05422
2846.82807,0.05559
2844.89933,0.05697
2842.97058,0.05836
2841.04184,0.05981
2839.11309,0.06139
2837.18435,0.06309
2835.25560,0.06477
2833.32686,0.06614
2831.39811,0.06713
2829.46937,0.06813
2827.54062,0.06932
2825.61188,0.07044
2823.68313,0.07135
2821.75438,0.07239
2819.82564,0.07380
2817.89689,0.07526
2815.96815,0.07652
2814.03940,0.07772
2812.11066,0.07891
2810.18191,0.07992
2808.25317,0.08085
2806.32442,0.08186
2804.39568,0.08288
2802.46693,0.08407
2800.53819,0.08551
2798.60944,0.08681
2796.68070,0.08767
2794.75195,0.08840
2792.82320,0.08926
2790.89446,0.09016
2788.96571,0.09103
2787.03697,0.09196
2785.10822,0.09277
2783.17948,0.09334
2781.25073,0.09382
2779.32199,0.09435
2777.39324,0.09499
2775.46450,0.09567
2773.53575,0.09626
2771.60701,0.09672
2769.67826,0.09699
2767.74952,0.09738
2765.82077,0.09817
2763.89203,0.09897
2761.96328,0.09945
2760.03453,0.09980
2758.10579,0.10021
2756.17704,0.10045
2754.24830,0.10040
2752.31955,0.10034
2750.39081,0.10042
2748.46206,0.10052
2746.53332,0.10049
2744.60457,0.10032
2742.67583,0.10012
2740.74708,0.09994
2738.81834,0.09985
2736.88959,0.09999
2734.96085,0.10034
2733.03210,0.10066
2731.10336,0.10098
2729.17461,0.10147
2727.24586,0.10203
2725.31712,0.10246
2723.38837,0.10293
2721.45963,0.10357
2719.53088,0.10414
2717.60214,0.10463
2715.67339,0.10529
2713.74465,0.10607
2711.81590,0.10685
2709.88716,0.10774
2707.95841,0.10874
2706.02967,0.10971
2704.10092,0.11068
2702.17218,0.11176
2700.24343,0.11286
2698.31468,0.11390
2696.38594,0.11493
2694.45719,0.11593
2692.52845,0.11697
2690.59970,0.11820
2688.67096,0.11966
2686.74221,0.12115
2684.81347,0.12239
2682.88472,0.12349
2680.95598,0.12463
2679.02723,0.12571
2677.09849,0.12666
2675.16974,0.12762
2673.24100,0.12865
2671.31225,0.12958
2669.38351,0.13035
2667.45476,0.13110
2665.52601,0.13194
2663.59727,0.13286
2661.66852,0.13373
2659.73978,0.13444
2657.81103,0.13510
2655.88229,0.13592
2653.95354,0.13691
2652.02480,0.13793
2650.09605,0.13892
2648.16731,0.13992
2646.23856,0.14093
2644.30982,0.14193
2642.38107,0.14293
2640.45233,0.14395
2638.52358,0.14493
2636.59484,0.14583
2634.66609,0.14658
2632.73734,0.14721
2630.80860,0.14784
2628.87985,0.14857
2626.95111,0.14947
2625.02236,0.15040
2623.09362,0.15117
2621.16487,0.15188
2619.23613,0.15261
2617.30738,0.15326
2615.37864,0.15388
2613.44989,0.15455
2611.52115,0.15516
2609.59240,0.15587
2607.66366,0.15670
2605.73491,0.15732
2603.80616,0.15784
2601.87742,0.15859
2599.94867,0.15940
2598.01993,0.15999
2596.09118,0.16038
2594.16244,0.16076
2592.23369,0.16119
2590.30495,0.16166
2588.37620,0.16218
2586.44746,0.16264
2584.51871,0.16291
2582.58997,0.16316
2580.66122,0.16352
2578.73248,0.16380
2576.80373,0.16391
2574.87499,0.16409
2572.94624,0.16441
2571.01749,0.16460
2569.08875,0.16454
2567.16000,0.16450
2565.23126,0.16454
2563.30251,0.16451
2561.37377,0.16446
2559.44502,0.16445
2557.51628,0.16448
2555.58753,0.16452
2553.65879,0.16446
2551.73004,0.16430
2549.80130,0.16405
2547.87255,0.16368
2545.94381,0.16324
2544.01506,0.16293
2542.08631,0.16280
2540.15757,0.16272
2538.22882,0.16276
2536.30008,0.16309
2534.37133,0.16351
2532.44259,0.16376
2530.51384,0.16395
2528.58510,0.16424
2526.65635,0.16466
2524.72761,0.16513
2522.79886,0.16563
2520.87012,0.16605
2518.94137,0.16627
2517.01263,0.16645
2515.08388,0.16696
2513.15514,0.16791
2511.22639,0.16906
2509.29764,0.17013
2507.36890,0.17114
2505.44015,0.17230
2503.51141,0.17360
2501.58266,0.17493
2499.65392,0.17622
2497.72517,0.17747
2495.79643,0.17865
2493.86768,0.17969
2491.93894,0.18058
2490.01019,0.18140
2488.08145,0.18222
2486.15270,0.18305
2484.22396,0.18395
2482.29521,0.18503
2480.36647,0.18624
2478.43772,0.18749
2476.50897,0.18857
2474.58023,0.18937
2472.65148,0.19015
2470.72274,0.19110
2468.79399,0.19197
2466.86525,0.19269
2464.93650,0.19348
2463.00776,0.19438
2461.07901,0.19518
2459.15027,0.19582
2457.22152,0.19645
2455.29278,0.19724
2453.36403,0.19817
2451.43529,0.19908
2449.50654,0.19995
2447.57779,0.20086
2445.64905,0.20186
2443.72030,0.20293
2441.79156,0.20416
2439.86281,0.20554
2437.93407,0.20684
2436.00532,0.20791
2434.07658,0.20890
2432.14783,0.20995
2430.21909,0.21104
2428.29034,0.21223
2426.36160,0.21353
2424.43285,0.21472
2422.50411,0.21579
2420.57536,0.21690
2418.64662,0.21803
2416.71787,0.21905
2414.78912,0.21990
2412.86038,0.22063
2410.93163,0.22140
2409.00289,0.22220
2407.07414,0.22298
2405.14540,0.22366
2403.21665,0.22414
2401.28791,0.22469
2399.35916,0.22552
2397.43042,0.22640
2395.50167,0.22706
2393.57293,0.22764
2391.64418,0.22834
2389.71544,0.22918
2387.78669,0.23008
2385.85795,0.23088
2383.92920,0.23157
2382.00045,0.23235
2380.07171,0.23325
2378.14296,0.23429
2376.21422,0.23558
2374.28547,0.23685
2372.35673,0.23774
2370.42798,0.23839
2368.49924,0.23914
2366.57049,0.23983
2364.64175,0.24034
2362.71300,0.24095
2360.78426,0.24178
2358.85551,0.24257
2356.92677,0.24301
2354.99802,0.24345
2353.06927,0.24419
2351.14053,0.24485
2349.21178,0.24538
2347.28304,0.24616
2345.35429,0.24732
2343.42555,0.24867
2341.49680,0.24989
2339.56806,0.25086
2337.63931,0.25159
2335.71057,0.25201
2333.78182,0.25226
2331.85308,0.25248
2329.92433,0.25264
2327.99559,0.25280
2326.06684,0.25299
2324.13810,0.25320
2322.20935,0.25343
2320.28060,0.25365
2318.35186,0.25387
2316.42311,0.25411
2314.49437,0.25430
2312.56562,0.25428
2310.63688,0.25415
2308.70813,0.25416
2306.77939,0.25423
2304.85064,0.25413
2302.92190,0.25376
2300.99315,0.25315
2299.06441,0.25246
2297.13566,0.25199
2295.20692,0.25161
2293.27817,0.25113
2291.34943,0.25064
2289.42068,0.25019
2287.49193,0.24969
2285.56319,0.24917
2283.63444,0.24864
2281.70570,0.24806
2279.77695,0.24740
2277.84821,0.24662
2275.91946,0.24564
2273.99072,0.24468
2272.06197,0.24382
2270.13323,0.24274
2268.20448,0.24129
2266.27574,0.23970
2264.34699,0.23821
2262.41825,0.23694
2260.48950,0.23589
2258.56075,0.23483
2256.63201,0.23370
2254.70326,0.23263
2252.77452,0.23168
2250.84577,0.23082
2248.91703,0.23001
2246.98828,0.22923
2245.05954,0.22839
2243.13079,0.22748
2241.20205,0.22664
2239.27330,0.22595
2237.34456,0.22542
2235.41581,0.22512
2233.48707,0.22502
2231.55832,0.22495
2229.62958,0.22480
2227.70083,0.22461
2225.77208,0.22448
2223.84334,0.22444
2221.91459,0.22446
2219.98585,0.22459
2218.05710,0.22477
2216.12836,0.22490
2214.19961,0.22498
2212.27087,0.22500
2210.34212,0.22495
2208.41338,0.22486
2206.48463,0.22468
2204.55589,0.22442
2202.62714,0.22420
2200.69840,0.22403
2198.76965,0.22375
2196.84090,0.22322
2194.91216,0.22251
2192.98341,0.22176
2191.05467,0.22100
2189.12592,0.22013
2187.19718,0.21899
2185.26843,0.21765
2183.33969,0.21631
2181.41094,0.21504
2179.48220,0.21375
2177.55345,0.21238
2175.62471,0.21100
2173.69596,0.20968
2171.76722,0.20830
2169.83847,0.20687
2167.90973,0.20553
2165.98098,0.20425
2164.05223,0.20302
2162.12349,0.20198
2160.19474,0.20115
2158.26600,0.20041
2156.33725,0.19968
2154.40851,0.19896
2152.47976,0.19838
2150.55102,0.19794
2148.62227,0.19746
2146.69353,0.19692
2144.76478,0.19630
2142.83604,0.19576
2140.90729,0.19553
2138.97855,0.19536
2137.04980,0.19501
2135.12106,0.19476
2133.19231,0.19482
2131.26356,0.19514
2129.33482,0.19547
2127.40607,0.19572
2125.47733,0.19619
2123.54858,0.19701
2121.61984,0.19802
2119.69109,0.19906
2117.76235,0.20006
2115.83360,0.20089
2113.90486,0.20162
2111.97611,0.20248
2110.04737,0.20361
2108.11862,0.20490
2106.18988,0.20611
2104.26113,0.20703
2102.33238,0.20770
2100.40364,0.20831
2098.47489,0.20906
2096.54615,0.20997
2094.61740,0.21086
2092.68866,0.21164
2090.75991,0.21236
2088.83117,0.21306
2086.90242,0.21368
2084.97368,0.21418
2083.04493,0.21464
2081.11619,0.21507
2079.18744,0.21528
2077.25870,0.21520
2075.32995,0.21495
2073.40121,0.21468
2071.47246,0.21444
2069.54371,0.21420
2067.61497,0.21394
2065.68622,0.21375
2063.75748,0.21373
2061.82873,0.21383
2059.89999,0.21391
2057.97124,0.21397
2056.04250,0.21401
2054.11375,0.21411
2052.18501,0.21429
2050.25626,0.21440
2048.32752,0.21443
2046.39877,0.21453
2044.47003,0.21473
2042.54128,0.21504
2040.61254,0.21561
2038.68379,0.21655
2036.75504,0.21778
2034.82630,0.21920
2032.89755,0.22077
2030.96881,0.22251
2029.04006,0.22436
2027.11132,0.22623
2025.18257,0.22809
2023.25383,0.22995
2021.32508,0.23179
2019.39634,0.23341
2017.46759,0.23494
2015.53885,0.23668
2013.61010,0.23856
2011.68136,0.24020
2009.75261,0.24153
2007.82386,0.24265
2005.89512,0.24354
2003.96637,0.24418
2002.03763,0.24460
2000.10888,0.24490
1998.18014,0.24526
1996.25139,0.24568
1994.32265,0.24591
1992.39390,0.24613
1990.46516,0.24676
1988.53641,0.24766
1986.60767,0.24860
1984.67892,0.24961
1982.75018,0.25070
1980.82143,0.25185
1978.89269,0.25298
1976.96394,0.25401
1975.03519,0.25497
1973.10645,0.25589
1971.17770,0.25668
1969.24896,0.25733
1967.32021,0.25816
1965.39147,0.25936
1963.46272,0.26057
1961.53398,0.26154
1959.60523,0.26240
1957.67649,0.26332
1955.74774,0.26436
1953.81900,0.26556
1951.89025,0.26688
1949.96151,0.26832
1948.03276,0.26981
1946.10402,0.27106
1944.17527,0.27204
1942.24652,0.27333
1940.31778,0.27506
1938.38903,0.27656
1936.46029,0.27765
1934.53154,0.27869
1932.60280,0.27974
1930.67405,0.28061
1928.74531,0.28127
1926.81656,0.28184
1924.88782,0.28226
1922.95907,0.28271
1921.03033,0.28331
1919.10158,0.28381
1917.17284,0.28437
1915.24409,0.28517
1913.31534,0.28591
1911.38660,0.28645
1909.45785,0.28689
1907.52911,0.28749
1905.60036,0.28821
1903.67162,0.28879
1901.74287,0.28923
1899.81413,0.28954
1897.88538,0.28948
1895.95664,0.28903
1894.02789,0.28876
1892.09915,0.28867
1890.17040,0.28834
1888.24166,0.28816
1886.31291,0.28839
1884.38417,0.28864
1882.45542,0.28869
1880.52667,0.28856
1878.59793,0.28831
1876.66918,0.28798
1874.74044,0.28756
1872.81169,0.28686
1870.88295,0.28568
1868.95420,0.28456
1867.02546,0.28457
1865.09671,0.28518
1863.16797,0.28520
1861.23922,0.28446
1859.31048,0.28356
1857.38173,0.28281
1855.45299,0.28204
1853.52424,0.28115
1851.59549,0.28010
1849.66675,0.27863
1847.73800,0.27674
1845.80926,0.27462
1843.88051,0.27292
1841.95177,0.27241
1840.02302,0.27220
1838.09428,0.27144
1836.16553,0.27055
1834.23679,0.26981
1832.30804,0.26860
1830.37930,0.26690
1828.45055,0.26589
1826.52181,0.26551
1824.59306,0.26495
1822.66432,0.26440
1820.73557,0.26388
1818.80682,0.26314
1816.87808,0.26224
1814.94933,0.26111
1813.02059,0.25954
1811.09184,0.25774
1809.16310,0.25631
1807.23435,0.25523
1805.30561,0.25395
1803.37686,0.25220
1801.44812,0.25018
1799.51937,0.24862
1797.59063,0.24764
1795.66188,0.24655
1793.73314,0.24490
1791.80439,0.24325
1789.87565,0.24250
1787.94690,0.24199
1786.01815,0.24098
1784.08941,0.23959
1782.16066,0.23802
1780.23192,0.23658
1778.30317,0.23557
1776.37443,0.23450
1774.44568,0.23265
1772.51694,0.23029
1770.58819,0.22870
1768.65945,0.22789
1766.73070,0.22710
1764.80196,0.22596
1762.87321,0.22425
1760.94447,0.22250
1759.01572,0.22116
1757.08697,0.21978
1755.15823,0.21836
1753.22948,0.21660
1751.30074,0.21399
1749.37199,0.21129
1747.44325,0.20940
1745.51450,0.20781
1743.58576,0.20604
1741.65701,0.20399
1739.72827,0.20173
1737.79952,0.19968
1735.87078,0.19744
1733.94203,0.19431
1732.01329,0.19176
1730.08454,0.19025
1728.15580,0.18880
1726.22705,0.18700
1724.29830,0.18461
1722.36956,0.18202
1720.44081,0.17926
1718.51207,0.17538
1716.58332,0.17112
1714.65458,0.16878
1712.72583,0.16722
1710.79709,0.16497
1708.86834,0.16195
1706.93960,0.15818
1705.01085,0.15429
1703.08211,0.15131
1701.15336,0.14784
1699.22462,0.14295
1697.29587,0.13880
1695.36713,0.13538
1693.43838,0.13248
1691.50963,0.12957
1689.58089,0.12595
1687.65214,0.12239
1685.72340,0.11835
1683.79465,0.11277
1681.86591,0.10875
1679.93716,0.10647
1678.00842,0.10418
1676.07967,0.10102
1674.15093,0.09731
1672.22218,0.09430
1670.29344,0.09164
1668.36469,0.08916
1666.43595,0.08742
1664.50720,0.08565
1662.57845,0.08351
1660.64971,0.08186
1658.72096,0.08070
1656.79222,0.07950
1654.86347,0.07790
1652.93473,0.07620
1651.00598,0.07582
1649.07724,0.07576
1647.14849,0.07532
1645.21975,0.07519
1643.29100,0.07552
1641.36226,0.07579
1639.43351,0.07594
1637.50477,0.07603
1635.57602,0.07663
1633.64728,0.07805
1631.71853,0.07935
1629.78978,0.08042
1627.86104,0.08161
1625.93229,0.08298
1624.00355,0.08460
1622.07480,0.08675
1620.14606,0.08892
1618.21731,0.09078
1616.28857,0.09285
1614.35982,0.09510
1612.43108,0.09703
1610.50233,0.09865
1608.57359,0.10026
1606.64484,0.10199
1604.71610,0.10364
1602.78735,0.10516
1600.85861,0.10655
1598.92986,0.10768
1597.00111,0.10851
1595.07237,0.10932
1593.14362,0.11028
1591.21488,0.11129
1589.28613,0.11228
1587.35739,0.11321
1585.42864,0.11406
1583.49990,0.11488
1581.57115,0.11562
1579.64241,0.11607
1577.71366,0.11628
1575.78492,0.11712
1573.85617,0.11867
1571.92743,0.11973
1569.99868,0.12016
1568.06993,0.12063
1566.14119,0.12111
1564.21244,0.12128
1562.28370,0.12104
1560.35495,0.12019
1558.42621,0.11948
1556.49746,0.12013
1554.56872,0.12089
1552.63997,0.12138
1550.71123,0.12158
1548.78248,0.12142
1546.85374,0.12072
1544.92499,0.11941
1542.99625,0.11782
1541.06750,0.11625
1539.13876,0.11547
1537.21001,0.11576
1535.28126,0.11595
1533.35252,0.11603
1531.42377,0.11631
1529.49503,0.11636
1527.56628,0.11588
1525.63754,0.11503
1523.70879,0.11391
1521.78005,0.11226
1519.85130,0.11075
1517.92256,0.10963
1515.99381,0.10833
1514.06507,0.10698
1512.13632,0.10548
1510.20758,0.10353
1508.27883,0.10086
1506.35008,0.09807
1504.42134,0.09690
1502.49259,0.09602
1500.56385,0.09435
1498.63510,0.09168
1496.70636,0.08843
1494.77761,0.08549
1492.84887,0.08270
1490.92012,0.07895
1488.99138,0.07424
1487.06263,0.07011
1485.13389,0.06672
1483.20514,0.06353
1481.27640,0.06058
1479.34765,0.05835
1477.41891,0.05658
1475.49016,0.05461
1473.56141,0.05218
1471.63267,0.04985
1469.70392,0.04848
1467.77518,0.04746
1465.84643,0.04606
1463.91769,0.04450
1461.98894,0.04341
1460.06020,0.04255
1458.13145,0.04132
1456.20271,0.03985
1454.27396,0.03903
1452.34522,0.03852
1450.41647,0.03794
1448.48773,0.03722
1446.55898,0.03641
1444.63024,0.03573
1442.70149,0.03530
1440.77274,0.03505
1438.84400,0.03473
1436.91525,0.03392
1434.98651,0.03298
1433.05776,0.03263
1431.12902,0.03260
1429.20027,0.03269
1427.27153,0.03287
1425.34278,0.03312
1423.41404,0.03345
1421.48529,0.03401
1419.55655,0.03487
1417.62780,0.03574
1415.69906,0.03653
1413.77031,0.03731
1411.84156,0.03794
1409.91282,0.03831
1407.98407,0.03846
1406.05533,0.03842
1404.12658,0.03831
1402.19784,0.03822
1400.26909,0.03789
1398.34035,0.03723
1396.41160,0.03656
1394.48286,0.03585
1392.55411,0.03510
1390.62537,0.03442
1388.69662,0.03357
1386.76788,0.03243
1384.83913,0.03122
1382.91039,0.03007
1380.98164,0.02896
1379.05289,0.02804
1377.12415,0.02758
1375.19540,0.02751
1373.26666,0.02748
1371.33791,0.02746
1369.40917,0.02760
1367.48042,0.02789
1365.55168,0.02826
1363.62293,0.02873
1361.69419,0.02932
1359.76544,0.03002
1357.83670,0.03065
1355.90795,0.03114
1353.97921,0.03159
1352.05046,0.03198
1350.12172,0.03229
1348.19297,0.03252
1346.26422,0.03250
1344.33548,0.03205
1342.40673,0.03125
1340.47799,0.03050
1338.54924,0.03015
1336.62050,0.03020
1334.69175,0.03049
1332.76301,0.03090
1330.83426,0.03134
1328.90552,0.03170
1326.97677,0.03180
1325.04803,0.03165
1323.11928,0.03136
1321.19054,0.03091
1319.26179,0.03040
1317.33304,0.03014
1315.40430,0.03038
1313.47555,0.03110
1311.54681,0.03215
1309.61806,0.03337
1307.68932,0.03469
1305.76057,0.03590
1303.83183,0.03692
1301.90308,0.03794
1299.97434,0.03891
1298.04559,0.03949
1296.11685,0.03962
1294.18810,0.03950
1292.25936,0.03935
1290.33061,0.03926
1288.40187,0.03892
1286.47312,0.03812
1284.54437,0.03696
1282.61563,0.03571
1280.68688,0.03485
1278.75814,0.03484
1276.82939,0.03565
1274.90065,0.03690
1272.97190,0.03807
1271.04316,0.03872
1269.11441,0.03876
1267.18567,0.03845
1265.25692,0.03813
1263.32818,0.03793
1261.39943,0.03796
1259.47069,0.03835
1257.54194,0.03895
1255.61320,0.03947
1253.68445,0.03977
1251.75570,0.03993
1249.82696,0.03999
1247.89821,0.03974
1245.96947,0.03913
1244.04072,0.03850
1242.11198,0.03798
1240.18323,0.03728
1238.25449,0.03633
1236.32574,0.03550
1234.39700,0.03514
1232.46825,0.03517
1230.53951,0.03544
1228.61076,0.03590
1226.68202,0.03637
1224.75327,0.03685
1222.82452,0.03744
1220.89578,0.03799
1218.96703,0.03828
1217.03829,0.03823
1215.10954,0.03761
1213.18080,0.03615
1211.25205,0.03406
1209.32331,0.03184
1207.39456,0.02991
1205.46582,0.02852
1203.53707,0.02785
1201.60833,0.02776
1199.67958,0.02785
1197.75084,0.02805
1195.82209,0.02844
1193.89335,0.02890
1191.96460,0.02916
1190.03585,0.02913
1188.10711,0.02885
1186.17836,0.02811
1184.24962,0.02687
1182.32087,0.02554
1180.39213,0.02447
1178.46338,0.02382
1176.53464,0.02360
1174.60589,0.02379
1172.67715,0.02463
1170.74840,0.02611
1168.81966,0.02792
1166.89091,0.02985
1164.96217,0.03142
1163.03342,0.03202
1161.10467,0.03171
1159.17593,0.03083
1157.24718,0.02969
1155.31844,0.02863
1153.38969,0.02773
1151.46095,0.02693
1149.53220,0.02631
1147.60346,0.02577
1145.67471,0.02490
1143.74597,0.02370
1141.81722,0.02259
1139.88848,0.02176
1137.95973,0.02119
1136.03099,0.02078
1134.10224,0.02037
1132.17350,0.02000
1130.24475,0.01993
1128.31600,0.02032
1126.38726,0.02116
1124.45851,0.02232
1122.52977,0.02358
1120.60102,0.02480
1118.67228,0.02588
1116.74353,0.02689
1114.81479,0.02807
1112.88604,0.02915
1110.95730,0.02939
1109.02855,0.02870
1107.09981,0.02786
1105.17106,0.02748
1103.24232,0.02741
1101.31357,0.02718
1099.38483,0.02684
1097.45608,0.02675
1095.52733,0.02688
1093.59859,0.02703
1091.66984,0.02734
1089.74110,0.02816
1087.81235,0.02982
1085.88361,0.03220
1083.95486,0.03461
1082.02612,0.03646
1080.09737,0.03778
1078.16863,0.03888
1076.23988,0.03969
1074.31114,0.04003
1072.38239,0.04022
1070.45365,0.04077
1068.52490,0.04201
1066.59615,0.04392
1064.66741,0.04600
1062.73866,0.04766
1060.80992,0.04870
1058.88117,0.04900
1056.95243,0.04845
1055.02368,0.04742
1053.09494,0.04623
1051.16619,0.04488
1049.23745,0.04350
1047.30870,0.04240
1045.37996,0.04170
1043.45121,0.04125
1041.52247,0.04097
1039.59372,0.04121
1037.66498,0.04228
1035.73623,0.04386
1033.80748,0.04519
1031.87874,0.04583
1029.94999,0.04606
1028.02125,0.04619
1026.09250,0.04629
1024.16376,0.04649
1022.23501,0.04681
1020.30627,0.04705
1018.37752,0.04712
1016.44878,0.04708
1014.52003,0.04687
1012.59129,0.04641
1010.66254,0.04586
1008.73380,0.04547
1006.80505,0.04525
1004.87631,0.04504
1002.94756,0.04496
1001.01881,0.04541
999.09007,0.04663
997.16132,0.04831
995.23258,0.04992
993.30383,0.05110
991.37509,0.05194
989.44634,0.05271
987.51760,0.05364
985.58885,0.05536
983.66011,0.05834
981.73136,0.06207
979.80262,0.06560
977.87387,0.06840
975.94513,0.07030
974.01638,0.07127
972.08763,0.07160
970.15889,0.07182
968.23014,0.07226
966.30140,0.07296
964.37265,0.07415
962.44391,0.07663
960.51516,0.08062
958.58642,0.08525
956.65767,0.08977
954.72893,0.09400
952.80018,0.09780
950.87144,0.10108
948.94269,0.10366
947.01395,0.10556
945.08520,0.10702
943.15646,0.10794
941.22771,0.10813
939.29896,0.10787
937.37022,0.10736
935.44147,0.10680
933.51273,0.10646
931.58398,0.10625
929.65524,0.10605
927.72649,0.10593
925.79775,0.10601
923.86900,0.10608
921.94026,0.10565
920.01151,0.10465
918.08277,0.10309
916.15402,0.10047
914.22528,0.09686
912.29653,0.09295
910.36779,0.08902
908.43904,0.08496
906.51029,0.08067
904.58155,0.07605
902.65280,0.07135
900.72406,0.06713
898.79531,0.06389
896.86657,0.06236
894.93782,0.06338
893.00908,0.06694
891.08033,0.07239
889.15159,0.07887
887.22284,0.08521
885.29410,0.09076
883.36535,0.09561
881.43661,0.09971
879.50786,0.10291
877.57911,0.10547
875.65037,0.10769
873.72162,0.10973
871.79288,0.11147
869.86413,0.11260
867.93539,0.11311
866.00664,0.11314
864.07790,0.11265
862.14915,0.11181
860.22041,0.11102
858.29166,0.11044
856.36292,0.10977
854.43417,0.10867
852.50543,0.10736
850.57668,0.10633
848.64794,0.10548
846.71919,0.10433
844.79044,0.10301
842.86170,0.10182
840.93295,0.10086
839.00421,0.10004
837.07546,0.09910
835.14672,0.09790
833.21797,0.09660
831.28923,0.09530
829.36048,0.09401
827.43174,0.09256
825.50299,0.09098
823.57425,0.08975
821.64550,0.08902
819.71676,0.08821
817.78801,0.08702
815.85926,0.08570
813.93052,0.08455
812.00177,0.08358
810.07303,0.08238
808.14428,0.08092
806.21554,0.07971
804.28679,0.07890
802.35805,0.07826
800.42930,0.07764
798.50056,0.07698
796.57181,0.07613
794.64307,0.07494
792.71432,0.07354
790.78558,0.07236
788.85683,0.07145
786.92809,0.07039
784.99934,0.06905
783.07059,0.06775
781.14185,0.06677
779.21310,0.06602
777.28436,0.06534
775.35561,0.06464
773.42687,0.06392
771.49812,0.06309
769.56938,0.06207
767.64063,0.06101
765.71189,0.05987
763.78314,0.05864
761.85440,0.05761
759.92565,0.05665
757.99691,0.05551
756.06816,0.05458
754.13942,0.05401
752.21067,0.05326
750.28192,0.05207
748.35318,0.05075
746.42443,0.04958
744.49569,0.04847
742.56694,0.04735
740.63820,0.04651
738.70945,0.04617
736.78071,0.04578
734.85196,0.04482
732.92322,0.04390
730.99447,0.04337
729.06573,0.04284
727.13698,0.04225
725.20824,0.04170
723.27949,0.04107
721.35074,0.04042
719.42200,0.03985
717.49325,0.03923
715.56451,0.03853
713.63576,0.03795
711.70702,0.03758
709.77827,0.03759
707.84953,0.03795
705.92078,0.03809
703.99204,0.03796
702.06329,0.03794
700.13455,0.03802
698.20580,0.03809
696.27706,0.03833
694.34831,0.03842
692.41957,0.03797
690.49082,0.03771
688.56207,0.03792
686.63333,0.03761
684.70458,0.03656
682.77584,0.03562
680.84709,0.03485
678.91835,0.03394
676.98960,0.03336
675.06086,0.03344
673.13211,0.03417
671.20337,0.03525
669.27462,0.03612
667.34588,0.03652
665.41713,0.03659
663.48839,0.03685
661.55964,0.03721
659.63090,0.03706
657.70215,0.03620
655.77340,0.03540
653.84466,0.03540
651.91591,0.03589
649.98717,0.03622
648.05842,0.03604
646.12968,0.03582
644.20093,0.03628
642.27219,0.03685
640.34344,0.03669
638.41470,0.03581
636.48595,0.03467
634.55721,0.03384
632.62846,0.03357
630.69972,0.03349
628.77097,0.03340
626.84222,0.03331
624.91348,0.03292
622.98473,0.03244
621.05599,0.03286
619.12724,0.03444
617.19850,0.03597
615.26975,0.03575
613.34101,0.03394
611.41226,0.03267
609.48352,0.03328
607.55477,0.03511
605.62603,0.03655
603.69728,0.03659
601.76854,0.03616
599.83979,0.03617
