7497.03301,0.40363
7495.10426,0.40031
7493.17552,0.39545
7491.24677,0.39671
7489.31803,0.40261
7487.38928,0.40161
7485.46054,0.39470
7483.53179,0.39033
7481.60305,0.38716
7479.67430,0.38472
7477.74556,0.38854
7475.81681,0.39630
7473.88807,0.40035
7471.95932,0.40020
7470.03057,0.39819
7468.10183,0.39672
7466.17308,0.39895
7464.24434,0.40289
7462.31559,0.40319
7460.38685,0.39902
7458.45810,0.39446
7456.52936,0.39423
7454.60061,0.39854
7452.67187,0.40201
7450.74312,0.40097
7448.81438,0.39745
7446.88563,0.39456
7444.95689,0.39288
7443.02814,0.39083
7441.09940,0.38816
7439.17065,0.38706
7437.24190,0.38896
7435.31316,0.39177
7433.38441,0.39283
7431.45567,0.39216
7429.52692,0.39027
7427.59818,0.38943
7425.66943,0.39111
7423.74069,0.39069
7421.81194,0.38699
7419.88320,0.38660
7417.95445,0.39147
7416.02571,0.39431
7414.09696,0.39135
7412.16822,0.38805
7410.23947,0.38780
7408.31073,0.38971
7406.38198,0.39311
7404.45323,0.39589
7402.52449,0.39634
7400.59574,0.39545
7398.66700,0.39464
7396.73825,0.39432
7394.80951,0.39386
7392.88076,0.39318
7390.95202,0.39382
7389.02327,0.39467
7387.09453,0.39237
7385.16578,0.38996
7383.23704,0.39136
7381.30829,0.39288
7379.37955,0.39382
7377.45080,0.39558
7375.52205,0.39289
7373.59331,0.38648
7371.66456,0.38467
7369.73582,0.38782
7367.80707,0.39022
7365.87833,0.39051
7363.94958,0.39140
7362.02084,0.39334
7360.09209,0.39373
7358.16335,0.39284
7356.23460,0.39240
7354.30586,0.39083
7352.37711,0.38839
7350.44837,0.38794
7348.51962,0.38871
7346.59088,0.38984
7344.66213,0.39224
7342.73338,0.39297
7340.80464,0.38890
7338.87589,0.38368
7336.94715,0.38297
7335.01840,0.38546
7333.08966,0.38546
7331.16091,0.38344
7329.23217,0.38373
7327.30342,0.38610
7325.37468,0.38914
7323.44593,0.39254
7321.51719,0.39369
7319.58844,0.39073
7317.65970,0.38682
7315.73095,0.38613
7313.80221,0.38846
7311.87346,0.39085
7309.94471,0.39154
7308.01597,0.39181
7306.08722,0.39228
7304.15848,0.39065
7302.22973,0.38905
7300.30099,0.39143
7298.37224,0.39452
7296.44350,0.39278
7294.51475,0.38662
7292.58601,0.38119
7290.65726,0.37912
7288.72852,0.37870
7286.79977,0.37873
7284.87103,0.37883
7282.94228,0.37969
7281.01353,0.38174
7279.08479,0.38373
7277.15604,0.38528
7275.22730,0.38546
7273.29855,0.38392
7271.36981,0.38412
7269.44106,0.38629
7267.51232,0.38593
7265.58357,0.38408
7263.65483,0.38538
7261.72608,0.38925
7259.79734,0.39208
7257.86859,0.39193
7255.93985,0.38946
7254.01110,0.38560
7252.08236,0.38079
7250.15361,0.37706
7248.22486,0.37576
7246.29612,0.37614
7244.36737,0.37735
7242.43863,0.37942
7240.50988,0.38245
7238.58114,0.38439
7236.65239,0.38307
7234.72365,0.37969
7232.79490,0.37735
7230.86616,0.37807
7228.93741,0.38195
7227.00867,0.38580
7225.07992,0.38504
7223.15118,0.38147
7221.22243,0.38100
7219.29369,0.38306
7217.36494,0.38297
7215.43619,0.38172
7213.50745,0.38319
7211.57870,0.38561
7209.64996,0.38618
7207.72121,0.38607
7205.79247,0.38599
7203.86372,0.38509
7201.93498,0.38346
7200.00623,0.38187
7198.07749,0.38035
7196.14874,0.37893
7194.22000,0.37747
7192.29125,0.37480
7190.36251,0.37230
7188.43376,0.37235
7186.50501,0.37458
7184.57627,0.37660
7182.64752,0.37715
7180.71878,0.37679
7178.79003,0.37494
7176.86129,0.37257
7174.93254,0.37218
7173.00380,0.37184
7171.07505,0.37042
7169.14631,0.36977
7167.21756,0.36972
7165.28882,0.37062
7163.36007,0.37401
7161.43133,0.37716
7159.50258,0.37713
7157.57384,0.37627
7155.64509,0.37533
7153.71634,0.37266
7151.78760,0.36985
7149.85885,0.36828
7147.93011,0.36748
7146.00136,0.36905
7144.07262,0.37352
7142.14387,0.37531
7140.21513,0.37242
7138.28638,0.37122
7136.35764,0.37216
7134.42889,0.37075
7132.50015,0.36851
7130.57140,0.36806
7128.64266,0.36898
7126.71391,0.37008
7124.78516,0.37020
7122.85642,0.36955
7120.92767,0.36938
7118.99893,0.36945
7117.07018,0.36825
7115.14144,0.36642
7113.21269,0.36659
7111.28395,0.36767
7109.35520,0.36634
7107.42646,0.36595
7105.49771,0.36922
7103.56897,0.36960
7101.64022,0.36560
7099.71148,0.36409
7097.78273,0.36662
7095.85399,0.36954
7093.92524,0.37076
7091.99649,0.36980
7090.06775,0.36743
7088.13900,0.36529
7086.21026,0.36348
7084.28151,0.36149
7082.35277,0.36045
7080.42402,0.36060
7078.49528,0.35977
7076.56653,0.35704
7074.63779,0.35410
7072.70904,0.35327
7070.78030,0.35476
7068.85155,0.35446
7066.92281,0.35072
7064.99406,0.34945
7063.06532,0.35372
7061.13657,0.35813
7059.20782,0.35755
7057.27908,0.35415
7055.35033,0.35266
7053.42159,0.35281
7051.49284,0.35142
7049.56410,0.34939
7047.63535,0.34998
7045.70661,0.35123
7043.77786,0.34976
7041.84912,0.34768
7039.92037,0.34695
7037.99163,0.34592
7036.06288,0.34428
7034.13414,0.34410
7032.20539,0.34613
7030.27664,0.34824
7028.34790,0.34721
7026.41915,0.34319
7024.49041,0.34199
7022.56166,0.34474
7020.63292,0.34596
7018.70417,0.34491
7016.77543,0.34394
7014.84668,0.34466
7012.91794,0.34719
7010.98919,0.34830
7009.06045,0.34690
7007.13170,0.34507
7005.20296,0.34326
7003.27421,0.34079
7001.34547,0.33930
6999.41672,0.33960
6997.48797,0.33929
6995.55923,0.33855
6993.63048,0.33863
6991.70174,0.33891
6989.77299,0.33993
6987.84425,0.34107
6985.91550,0.34070
6983.98676,0.34001
6982.05801,0.34012
6980.12927,0.33905
6978.20052,0.33665
6976.27178,0.33541
6974.34303,0.33473
6972.41429,0.33429
6970.48554,0.33640
6968.55680,0.33880
6966.62805,0.33672
6964.69930,0.33237
6962.77056,0.33148
6960.84181,0.33266
6958.91307,0.33264
6956.98432,0.33327
6955.05558,0.33379
6953.12683,0.33217
6951.19809,0.33268
6949.26934,0.33669
6947.34060,0.33904
6945.41185,0.33817
6943.48311,0.33591
6941.55436,0.33382
6939.62562,0.33405
6937.69687,0.33570
6935.76812,0.33527
6933.83938,0.33308
6931.91063,0.33138
6929.98189,0.33036
6928.05314,0.32993
6926.12440,0.32994
6924.19565,0.33052
6922.26691,0.33177
6920.33816,0.33337
6918.40942,0.33634
6916.48067,0.33865
6914.55193,0.33659
6912.62318,0.33418
6910.69444,0.33532
6908.76569,0.33641
6906.83695,0.33618
6904.90820,0.33583
6902.97945,0.33422
6901.05071,0.33244
6899.12196,0.33186
6897.19322,0.33161
6895.26447,0.33182
6893.33573,0.33219
6891.40698,0.33129
6889.47824,0.33087
6887.54949,0.33371
6885.62075,0.33724
6883.69200,0.33741
6881.76326,0.33601
6879.83451,0.33640
6877.90577,0.33752
6875.97702,0.33689
6874.04828,0.33508
6872.11953,0.33319
6870.19078,0.33160
6868.26204,0.33166
6866.33329,0.33281
6864.40455,0.33294
6862.47580,0.33155
6860.54706,0.32955
6858.61831,0.32816
6856.68957,0.32763
6854.76082,0.32723
6852.83208,0.32676
6850.90333,0.32663
6848.97459,0.32669
6847.04584,0.32749
6845.11710,0.32915
6843.18835,0.32960
6841.25960,0.32921
6839.33086,0.33028
6837.40211,0.33222
6835.47337,0.33309
6833.54462,0.33276
6831.61588,0.33226
6829.68713,0.33154
6827.75839,0.33001
6825.82964,0.32910
6823.90090,0.33040
6821.97215,0.33183
6820.04341,0.33183
6818.11466,0.33202
6816.18592,0.33349
6814.25717,0.33559
6812.32843,0.33634
6810.39968,0.33508
6808.47093,0.33325
6806.54219,0.33239
6804.61344,0.33276
6802.68470,0.33244
6800.75595,0.33192
6798.82721,0.33271
6796.89846,0.33277
6794.96972,0.33164
6793.04097,0.33138
6791.11223,0.33281
6789.18348,0.33465
6787.25474,0.33461
6785.32599,0.33269
6783.39725,0.33135
6781.46850,0.33274
6779.53975,0.33616
6777.61101,0.33714
6775.68226,0.33339
6773.75352,0.32869
6771.82477,0.32704
6769.89603,0.32892
6767.96728,0.33257
6766.03854,0.33551
6764.10979,0.33666
6762.18105,0.33701
6760.25230,0.33813
6758.32356,0.33928
6756.39481,0.33885
6754.46607,0.33724
6752.53732,0.33546
6750.60858,0.33431
6748.67983,0.33365
6746.75108,0.33203
6744.82234,0.33023
6742.89359,0.33166
6740.96485,0.33594
6739.03610,0.33838
6737.10736,0.33801
6735.17861,0.33718
6733.24987,0.33603
6731.32112,0.33490
6729.39238,0.33533
6727.46363,0.33604
6725.53489,0.33548
6723.60614,0.33515
6721.67740,0.33594
6719.74865,0.33706
6717.81991,0.33695
6715.89116,0.33525
6713.96241,0.33387
6712.03367,0.33359
6710.10492,0.33283
6708.17618,0.33134
6706.24743,0.33267
6704.31869,0.33683
6702.38994,0.33866
6700.46120,0.33781
6698.53245,0.33730
6696.60371,0.33733
6694.67496,0.33750
6692.74622,0.33808
6690.81747,0.33763
6688.88873,0.33536
6686.95998,0.33409
6685.03123,0.33429
6683.10249,0.33437
6681.17374,0.33600
6679.24500,0.33915
6677.31625,0.34080
6675.38751,0.33997
6673.45876,0.33872
6671.53002,0.33830
6669.60127,0.33752
6667.67253,0.33716
6665.74378,0.33800
6663.81504,0.33732
6661.88629,0.33575
6659.95755,0.33711
6658.02880,0.34032
6656.10006,0.34225
6654.17131,0.34265
6652.24256,0.34184
6650.31382,0.33994
6648.38507,0.33880
6646.45633,0.33984
6644.52758,0.34174
6642.59884,0.34312
6640.67009,0.34322
6638.74135,0.34141
6636.81260,0.33913
6634.88386,0.33761
6632.95511,0.33636
6631.02637,0.33578
6629.09762,0.33557
6627.16888,0.33502
6625.24013,0.33559
6623.31139,0.33833
6621.38264,0.34178
6619.45389,0.34318
6617.52515,0.34160
6615.59640,0.33980
6613.66766,0.34040
6611.73891,0.34323
6609.81017,0.34635
6607.88142,0.34785
6605.95268,0.34809
6604.02393,0.34846
6602.09519,0.34873
6600.16644,0.34867
6598.23770,0.34838
6596.30895,0.34610
6594.38021,0.34177
6592.45146,0.33951
6590.52271,0.34186
6588.59397,0.34584
6586.66522,0.34632
6584.73648,0.34350
6582.80773,0.34177
6580.87899,0.34265
6578.95024,0.34433
6577.02150,0.34412
6575.09275,0.34369
6573.16401,0.34625
6571.23526,0.34835
6569.30652,0.34700
6567.37777,0.34556
6565.44903,0.34711
6563.52028,0.34993
6561.59154,0.35074
6559.66279,0.34993
6557.73404,0.34912
6555.80530,0.34870
6553.87655,0.34897
6551.94781,0.34863
6550.01906,0.34763
6548.09032,0.34786
6546.16157,0.34812
6544.23283,0.34726
6542.30408,0.34696
6540.37534,0.34633
6538.44659,0.34463
6536.51785,0.34509
6534.58910,0.34725
6532.66036,0.34726
6530.73161,0.34600
6528.80287,0.34574
6526.87412,0.34557
6524.94537,0.34541
6523.01663,0.34637
6521.08788,0.34717
6519.15914,0.34664
6517.23039,0.34593
6515.30165,0.34536
6513.37290,0.34458
6511.44416,0.34485
6509.51541,0.34679
6507.58667,0.34843
6505.65792,0.34849
6503.72918,0.34792
6501.80043,0.34727
6499.87169,0.34646
6497.94294,0.34605
6496.01419,0.34658
6494.08545,0.34775
6492.15670,0.34832
6490.22796,0.34694
6488.29921,0.34483
6486.37047,0.34490
6484.44172,0.34627
6482.51298,0.34613
6480.58423,0.34603
6478.65549,0.34781
6476.72674,0.34951
6474.79800,0.34956
6472.86925,0.34837
6470.94051,0.34709
6469.01176,0.34615
6467.08302,0.34504
6465.15427,0.34436
6463.22552,0.34363
6461.29678,0.34240
6459.36803,0.34317
6457.43929,0.34674
6455.51054,0.35050
6453.58180,0.35199
6451.65305,0.35038
6449.72431,0.34791
6447.79556,0.34769
6445.86682,0.34898
6443.93807,0.34903
6442.00933,0.34817
6440.08058,0.34904
6438.15184,0.35134
6436.22309,0.35143
6434.29434,0.34882
6432.36560,0.34736
6430.43685,0.34896
6428.50811,0.35145
6426.57936,0.35246
6424.65062,0.35179
6422.72187,0.35014
6420.79313,0.34917
6418.86438,0.35014
6416.93564,0.35087
6415.00689,0.35012
6413.07815,0.34978
6411.14940,0.35003
6409.22066,0.34957
6407.29191,0.34924
6405.36317,0.34972
6403.43442,0.34925
6401.50567,0.34813
6399.57693,0.34892
6397.64818,0.35034
6395.71944,0.35026
6393.79069,0.34983
6391.86195,0.34950
6389.93320,0.34901
6388.00446,0.34919
6386.07571,0.35013
6384.14697,0.35091
6382.21822,0.35095
6380.28948,0.35094
6378.36073,0.35137
6376.43199,0.35047
6374.50324,0.34782
6372.57450,0.34662
6370.64575,0.34839
6368.71700,0.35018
6366.78826,0.34932
6364.85951,0.34739
6362.93077,0.34722
6361.00202,0.34849
6359.07328,0.34927
6357.14453,0.34988
6355.21579,0.35116
6353.28704,0.35220
6351.35830,0.35260
6349.42955,0.35284
6347.50081,0.35261
6345.57206,0.35204
6343.64332,0.35126
6341.71457,0.34973
6339.78582,0.34853
6337.85708,0.34910
6335.92833,0.35019
6333.99959,0.35043
6332.07084,0.35105
6330.14210,0.35236
6328.21335,0.35262
6326.28461,0.35159
6324.35586,0.35052
6322.42712,0.35002
6320.49837,0.34975
6318.56963,0.34984
6316.64088,0.35090
6314.71214,0.35218
6312.78339,0.35291
6310.85465,0.35328
6308.92590,0.35273
6306.99715,0.35107
6305.06841,0.34986
6303.13966,0.35005
6301.21092,0.35101
6299.28217,0.35163
6297.35343,0.35102
6295.42468,0.35022
6293.49594,0.35071
6291.56719,0.35193
6289.63845,0.35279
6287.70970,0.35262
6285.78096,0.35242
6283.85221,0.35292
6281.92347,0.35242
6279.99472,0.35180
6278.06598,0.35295
6276.13723,0.35327
6274.20848,0.35207
6272.27974,0.35217
6270.35099,0.35307
6268.42225,0.35303
6266.49350,0.35311
6264.56476,0.35478
6262.63601,0.35684
6260.70727,0.35701
6258.77852,0.35592
6256.84978,0.35583
6254.92103,0.35626
6252.99229,0.35544
6251.06354,0.35370
6249.13480,0.35269
6247.20605,0.35347
6245.27730,0.35581
6243.34856,0.35728
6241.41981,0.35662
6239.49107,0.35600
6237.56232,0.35645
6235.63358,0.35701
6233.70483,0.35775
6231.77609,0.35887
6229.84734,0.35960
6227.91860,0.35940
6225.98985,0.35863
6224.06111,0.35817
6222.13236,0.35793
6220.20362,0.35713
6218.27487,0.35693
6216.34613,0.35799
6214.41738,0.35911
6212.48863,0.35987
6210.55989,0.36027
6208.63114,0.36032
6206.70240,0.35995
6204.77365,0.35932
6202.84491,0.35997
6200.91616,0.36218
6198.98742,0.36354
6197.05867,0.36254
6195.12993,0.36089
6193.20118,0.36038
6191.27244,0.36039
6189.34369,0.36003
6187.41495,0.35979
6185.48620,0.36022
6183.55746,0.36067
6181.62871,0.36042
6179.69996,0.36027
6177.77122,0.36079
6175.84247,0.36099
6173.91373,0.36082
6171.98498,0.36120
6170.05624,0.36175
6168.12749,0.36210
6166.19875,0.36248
6164.27000,0.36292
6162.34126,0.36346
6160.41251,0.36390
6158.48377,0.36417
6156.55502,0.36418
6154.62628,0.36373
6152.69753,0.36328
6150.76878,0.36317
6148.84004,0.36268
6146.91129,0.36207
6144.98255,0.36264
6143.05380,0.36326
6141.12506,0.36277
6139.19631,0.36239
6137.26757,0.36201
6135.33882,0.36204
6133.41008,0.36374
6131.48133,0.36448
6129.55259,0.36230
6127.62384,0.35991
6125.69510,0.35961
6123.76635,0.36117
6121.83761,0.36315
6119.90886,0.36372
6117.98011,0.36311
6116.05137,0.36335
6114.12262,0.36482
6112.19388,0.36568
6110.26513,0.36496
6108.33639,0.36396
6106.40764,0.36323
6104.47890,0.36241
6102.55015,0.36229
6100.62141,0.36306
6098.69266,0.36357
6096.76392,0.36296
6094.83517,0.36219
6092.90643,0.36249
6090.97768,0.36247
6089.04893,0.36187
6087.12019,0.36286
6085.19144,0.36462
6083.26270,0.36405
6081.33395,0.36165
6079.40521,0.36074
6077.47646,0.36201
6075.54772,0.36361
6073.61897,0.36431
6071.69023,0.36422
6069.76148,0.36432
6067.83274,0.36473
6065.90399,0.36439
6063.97525,0.36347
6062.04650,0.36286
6060.11776,0.36240
6058.18901,0.36221
6056.26026,0.36243
6054.33152,0.36218
6052.40277,0.36136
6050.47403,0.36084
6048.54528,0.36072
6046.61654,0.36060
6044.68779,0.36025
6042.75905,0.35914
6040.83030,0.35740
6038.90156,0.35670
6036.97281,0.35771
6035.04407,0.35892
6033.11532,0.35934
6031.18658,0.35931
6029.25783,0.35908
6027.32909,0.35874
6025.40034,0.35897
6023.47159,0.35947
6021.54285,0.35945
6019.61410,0.35931
6017.68536,0.35917
6015.75661,0.35890
6013.82787,0.35872
6011.89912,0.35865
6009.97038,0.35869
6008.04163,0.35816
6006.11289,0.35654
6004.18414,0.35519
6002.25540,0.35536
6000.32665,0.35608
5998.39791,0.35592
5996.46916,0.35520
5994.54041,0.35518
5992.61167,0.35559
5990.68292,0.35557
5988.75418,0.35564
5986.82543,0.35629
5984.89669,0.35645
5982.96794,0.35533
5981.03920,0.35436
5979.11045,0.35480
5977.18171,0.35559
5975.25296,0.35599
5973.32422,0.35634
5971.39547,0.35665
5969.46673,0.35660
5967.53798,0.35545
5965.60924,0.35375
5963.68049,0.35296
5961.75174,0.35283
5959.82300,0.35251
5957.89425,0.35219
5955.96551,0.35223
5954.03676,0.35239
5952.10802,0.35196
5950.17927,0.35077
5948.25053,0.35037
5946.32178,0.35166
5944.39304,0.35249
5942.46429,0.35180
5940.53555,0.35096
5938.60680,0.34956
5936.67806,0.34706
5934.74931,0.34547
5932.82057,0.34562
5930.89182,0.34643
5928.96307,0.34753
5927.03433,0.34809
5925.10558,0.34768
5923.17684,0.34737
5921.24809,0.34727
5919.31935,0.34670
5917.39060,0.34548
5915.46186,0.34426
5913.53311,0.34381
5911.60437,0.34399
5909.67562,0.34419
5907.74688,0.34374
5905.81813,0.34266
5903.88939,0.34192
5901.96064,0.34149
5900.03189,0.34048
5898.10315,0.33909
5896.17440,0.33800
5894.24566,0.33773
5892.31691,0.33820
5890.38817,0.33870
5888.45942,0.33898
5886.53068,0.33902
5884.60193,0.33882
5882.67319,0.33868
5880.74444,0.33858
5878.81570,0.33811
5876.88695,0.33675
5874.95821,0.33490
5873.02946,0.33348
5871.10072,0.33233
5869.17197,0.33202
5867.24322,0.33275
5865.31448,0.33217
5863.38573,0.32930
5861.45699,0.32662
5859.52824,0.32566
5857.59950,0.32518
5855.67075,0.32463
5853.74201,0.32468
5851.81326,0.32466
5849.88452,0.32386
5847.95577,0.32260
5846.02703,0.32108
5844.09828,0.31967
5842.16954,0.31860
5840.24079,0.31748
5838.31205,0.31607
5836.38330,0.31426
5834.45455,0.31208
5832.52581,0.31016
5830.59706,0.30937
5828.66832,0.30979
5826.73957,0.30987
5824.81083,0.30824
5822.88208,0.30616
5820.95334,0.30517
5819.02459,0.30442
5817.09585,0.30316
5815.16710,0.30216
5813.23836,0.30138
5811.30961,0.30031
5809.38087,0.29871
5807.45212,0.29605
5805.52337,0.29314
5803.59463,0.29201
5801.66588,0.29276
5799.73714,0.29300
5797.80839,0.29151
5795.87965,0.28937
5793.95090,0.28736
5792.02216,0.28552
5790.09341,0.28416
5788.16467,0.28298
5786.23592,0.28080
5784.30718,0.27760
5782.37843,0.27452
5780.44969,0.27188
5778.52094,0.26985
5776.59220,0.26860
5774.66345,0.26828
5772.73470,0.27003
5770.80596,0.27376
5768.87721,0.27771
5766.94847,0.28116
5765.01972,0.28455
5763.09098,0.28812
5761.16223,0.29170
5759.23349,0.29494
5757.30474,0.29717
5755.37600,0.29868
5753.44725,0.30074
5751.51851,0.30306
5749.58976,0.30453
5747.66102,0.30596
5745.73227,0.30830
5743.80352,0.31049
5741.87478,0.31135
5739.94603,0.31167
5738.01729,0.31250
5736.08854,0.31358
5734.15980,0.31442
5732.23105,0.31465
5730.30231,0.31442
5728.37356,0.31485
5726.44482,0.31630
5724.51607,0.31828
5722.58733,0.32043
5720.65858,0.32163
5718.72984,0.32133
5716.80109,0.32060
5714.87235,0.32032
5712.94360,0.32048
5711.01485,0.32138
5709.08611,0.32274
5707.15736,0.32297
5705.22862,0.32176
5703.29987,0.32021
5701.37113,0.31877
5699.44238,0.31764
5697.51364,0.31690
5695.58489,0.31630
5693.65615,0.31553
5691.72740,0.31411
5689.79866,0.31248
5687.86991,0.31204
5685.94117,0.31250
5684.01242,0.31211
5682.08368,0.31084
5680.15493,0.31017
5678.22618,0.31013
5676.29744,0.30953
5674.36869,0.30805
5672.43995,0.30624
5670.51120,0.30443
5668.58246,0.30211
5666.65371,0.29925
5664.72497,0.29763
5662.79622,0.29831
5660.86748,0.30043
5658.93873,0.30294
5657.00999,0.30500
5655.08124,0.30667
5653.15250,0.30896
5651.22375,0.31174
5649.29500,0.31364
5647.36626,0.31458
5645.43751,0.31572
5643.50877,0.31700
5641.58002,0.31802
5639.65128,0.31898
5637.72253,0.31975
5635.79379,0.32030
5633.86504,0.32076
5631.93630,0.32075
5630.00755,0.32026
5628.07881,0.32014
5626.15006,0.32086
5624.22132,0.32187
5622.29257,0.32247
5620.36383,0.32242
5618.43508,0.32180
5616.50633,0.32140
5614.57759,0.32173
5612.64884,0.32199
5610.72010,0.32242
5608.79135,0.32380
5606.86261,0.32510
5604.93386,0.32533
5603.00512,0.32494
5601.07637,0.32480
5599.14763,0.32538
5597.21888,0.32623
5595.29014,0.32611
5593.36139,0.32517
5591.43265,0.32496
5589.50390,0.32531
5587.57516,0.32508
5585.64641,0.32471
5583.71766,0.32488
5581.78892,0.32536
5579.86017,0.32592
5577.93143,0.32612
5576.00268,0.32527
5574.07394,0.32384
5572.14519,0.32308
5570.21645,0.32303
5568.28770,0.32266
5566.35896,0.32196
5564.43021,0.32168
5562.50147,0.32171
5560.57272,0.32187
5558.64398,0.32232
5556.71523,0.32286
5554.78648,0.32311
5552.85774,0.32314
5550.92899,0.32350
5549.00025,0.32397
5547.07150,0.32379
5545.14276,0.32319
5543.21401,0.32294
5541.28527,0.32333
5539.35652,0.32389
5537.42778,0.32406
5535.49903,0.32378
5533.57029,0.32328
5531.64154,0.32286
5529.71280,0.32301
5527.78405,0.32391
5525.85531,0.32477
5523.92656,0.32475
5521.99781,0.32458
5520.06907,0.32494
5518.14032,0.32519
5516.21158,0.32513
5514.28283,0.32520
5512.35409,0.32516
5510.42534,0.32464
5508.49660,0.32409
5506.56785,0.32384
5504.63911,0.32350
5502.71036,0.32289
5500.78162,0.32249
5498.85287,0.32281
5496.92413,0.32342
5494.99538,0.32357
5493.06664,0.32353
5491.13789,0.32374
5489.20914,0.32402
5487.28040,0.32406
5485.35165,0.32386
5483.42291,0.32370
5481.49416,0.32391
5479.56542,0.32486
5477.63667,0.32613
5475.70793,0.32658
5473.77918,0.32597
5471.85044,0.32552
5469.92169,0.32634
5467.99295,0.32773
5466.06420,0.32845
5464.13546,0.32876
5462.20671,0.32862
5460.27796,0.32785
5458.34922,0.32794
5456.42047,0.32892
5454.49173,0.32881
5452.56298,0.32780
5450.63424,0.32727
5448.70549,0.32725
5446.77675,0.32737
5444.84800,0.32775
5442.91926,0.32854
5440.99051,0.32944
5439.06177,0.32974
5437.13302,0.32891
5435.20428,0.32800
5433.27553,0.32848
5431.34679,0.32992
5429.41804,0.33121
5427.48929,0.33206
5425.56055,0.33266
5423.63180,0.33286
5421.70306,0.33225
5419.77431,0.33131
5417.84557,0.33100
5415.91682,0.33138
5413.98808,0.33157
5412.05933,0.33127
5410.13059,0.33124
5408.20184,0.33189
5406.27310,0.33260
5404.34435,0.33294
5402.41561,0.33336
5400.48686,0.33399
5398.55811,0.33422
5396.62937,0.33424
5394.70062,0.33478
5392.77188,0.33558
5390.84313,0.33571
5388.91439,0.33503
5386.98564,0.33472
5385.05690,0.33540
5383.12815,0.33614
5381.19941,0.33610
5379.27066,0.33548
5377.34192,0.33462
5375.41317,0.33394
5373.48443,0.33410
5371.55568,0.33499
5369.62694,0.33557
5367.69819,0.33557
5365.76944,0.33560
5363.84070,0.33603
5361.91195,0.33668
5359.98321,0.33690
5358.05446,0.33663
5356.12572,0.33661
5354.19697,0.33690
5352.26823,0.33688
5350.33948,0.33651
5348.41074,0.33623
5346.48199,0.33620
5344.55325,0.33636
5342.62450,0.33651
5340.69576,0.33627
5338.76701,0.33571
5336.83827,0.33524
5334.90952,0.33489
5332.98077,0.33455
5331.05203,0.33412
5329.12328,0.33390
5327.19454,0.33398
5325.26579,0.33392
5323.33705,0.33386
5321.40830,0.33376
5319.47956,0.33314
5317.55081,0.33267
5315.62207,0.33261
5313.69332,0.33213
5311.76458,0.33091
5309.83583,0.32927
5307.90709,0.32789
5305.97834,0.32723
5304.04959,0.32687
5302.12085,0.32607
5300.19210,0.32531
5298.26336,0.32540
5296.33461,0.32546
5294.40587,0.32417
5292.47712,0.32186
5290.54838,0.32002
5288.61963,0.31933
5286.69089,0.31847
5284.76214,0.31662
5282.83340,0.31484
5280.90465,0.31366
5278.97591,0.31228
5277.04716,0.31058
5275.11842,0.30934
5273.18967,0.30875
5271.26092,0.30795
5269.33218,0.30627
5267.40343,0.30404
5265.47469,0.30145
5263.54594,0.29871
5261.61720,0.29671
5259.68845,0.29541
5257.75971,0.29410
5255.83096,0.29274
5253.90222,0.29141
5251.97347,0.29003
5250.04473,0.28856
5248.11598,0.28683
5246.18724,0.28481
5244.25849,0.28301
5242.32975,0.28206
5240.40100,0.28133
5238.47225,0.27988
5236.54351,0.27818
5234.61476,0.27670
5232.68602,0.27524
5230.75727,0.27402
5228.82853,0.27331
5226.89978,0.27320
5224.97104,0.27333
5223.04229,0.27269
5221.11355,0.27166
5219.18480,0.27144
5217.25606,0.27141
5215.32731,0.27059
5213.39857,0.26927
5211.46982,0.26813
5209.54107,0.26772
5207.61233,0.26818
5205.68358,0.26865
5203.75484,0.26850
5201.82609,0.26829
5199.89735,0.26817
5197.96860,0.26755
5196.03986,0.26645
5194.11111,0.26573
5192.18237,0.26587
5190.25362,0.26651
5188.32488,0.26708
5186.39613,0.26730
5184.46739,0.26721
5182.53864,0.26727
5180.60990,0.26774
5178.68115,0.26834
5176.75240,0.26893
5174.82366,0.26929
5172.89491,0.26913
5170.96617,0.26922
5169.03742,0.26985
5167.10868,0.27033
5165.17993,0.27069
5163.25119,0.27100
5161.32244,0.27096
5159.39370,0.27094
5157.46495,0.27156
5155.53621,0.27252
5153.60746,0.27334
5151.67872,0.27402
5149.74997,0.27445
5147.82123,0.27457
5145.89248,0.27505
5143.96373,0.27616
5142.03499,0.27705
5140.10624,0.27728
5138.17750,0.27774
5136.24875,0.27898
5134.32001,0.28023
5132.39126,0.28066
5130.46252,0.28053
5128.53377,0.28011
5126.60503,0.27977
5124.67628,0.28031
5122.74754,0.28137
5120.81879,0.28198
5118.89005,0.28208
5116.96130,0.28202
5115.03255,0.28230
5113.10381,0.28294
5111.17506,0.28357
5109.24632,0.28436
5107.31757,0.28524
5105.38883,0.28558
5103.46008,0.28553
5101.53134,0.28590
5099.60259,0.28680
5097.67385,0.28779
5095.74510,0.28847
5093.81636,0.28878
5091.88761,0.28934
5089.95887,0.29029
5088.03012,0.29088
5086.10138,0.29111
5084.17263,0.29144
5082.24388,0.29167
5080.31514,0.29166
5078.38639,0.29180
5076.45765,0.29234
5074.52890,0.29299
5072.60016,0.29316
5070.67141,0.29293
5068.74267,0.29321
5066.81392,0.29421
5064.88518,0.29521
5062.95643,0.29588
5061.02769,0.29632
5059.09894,0.29645
5057.17020,0.29626
5055.24145,0.29594
5053.31270,0.29576
5051.38396,0.29612
5049.45521,0.29710
5047.52647,0.29819
5045.59772,0.29896
5043.66898,0.29930
5041.74023,0.29941
5039.81149,0.30005
5037.88274,0.30137
5035.95400,0.30244
5034.02525,0.30231
5032.09651,0.30140
5030.16776,0.30108
5028.23902,0.30125
5026.31027,0.30125
5024.38153,0.30164
5022.45278,0.30241
5020.52403,0.30285
5018.59529,0.30300
5016.66654,0.30310
5014.73780,0.30312
5012.80905,0.30321
5010.88031,0.30337
5008.95156,0.30320
5007.02282,0.30287
5005.09407,0.30291
5003.16533,0.30333
5001.23658,0.30351
4999.30784,0.30295
4997.37909,0.30221
4995.45035,0.30196
4993.52160,0.30192
4991.59286,0.30162
4989.66411,0.30115
4987.73536,0.30079
4985.80662,0.30084
4983.87787,0.30121
4981.94913,0.30134
4980.02038,0.30103
4978.09164,0.30058
4976.16289,0.30016
4974.23415,0.29988
4972.30540,0.29992
4970.37666,0.30001
4968.44791,0.29957
4966.51917,0.29881
4964.59042,0.29850
4962.66168,0.29853
4960.73293,0.29812
4958.80418,0.29742
4956.87544,0.29727
4954.94669,0.29732
4953.01795,0.29662
4951.08920,0.29565
4949.16046,0.29523
4947.23171,0.29517
4945.30297,0.29517
4943.37422,0.29518
4941.44548,0.29480
4939.51673,0.29368
4937.58799,0.29244
4935.65924,0.29170
4933.73050,0.29130
4931.80175,0.29118
4929.87301,0.29102
4927.94426,0.29007
4926.01551,0.28843
4924.08677,0.28726
4922.15802,0.28707
4920.22928,0.28701
4918.30053,0.28610
4916.37179,0.28469
4914.44304,0.28386
4912.51430,0.28360
4910.58555,0.28313
4908.65681,0.28236
4906.72806,0.28156
4904.79932,0.28072
4902.87057,0.27970
4900.94183,0.27862
4899.01308,0.27772
4897.08434,0.27705
4895.15559,0.27654
4893.22684,0.27595
4891.29810,0.27524
4889.36935,0.27487
4887.44061,0.27492
4885.51186,0.27464
4883.58312,0.27349
4881.65437,0.27197
4879.72563,0.27073
4877.79688,0.26973
4875.86814,0.26905
4873.93939,0.26881
4872.01065,0.26836
4870.08190,0.26726
4868.15316,0.26636
4866.22441,0.26631
4864.29566,0.26651
4862.36692,0.26612
4860.43817,0.26521
4858.50943,0.26451
4856.58068,0.26419
4854.65194,0.26349
4852.72319,0.26224
4850.79445,0.26128
4848.86570,0.26098
4846.93696,0.26081
4845.00821,0.26048
4843.07947,0.26003
4841.15072,0.25941
4839.22198,0.25869
4837.29323,0.25804
4835.36449,0.25764
4833.43574,0.25750
4831.50699,0.25729
4829.57825,0.25671
4827.64950,0.25607
4825.72076,0.25585
4823.79201,0.25577
4821.86327,0.25546
4819.93452,0.25510
4818.00578,0.25451
4816.07703,0.25367
4814.14829,0.25304
4812.21954,0.25273
4810.29080,0.25245
4808.36205,0.25198
4806.43331,0.25163
4804.50456,0.25180
4802.57582,0.25215
4800.64707,0.25204
4798.71832,0.25158
4796.78958,0.25136
4794.86083,0.25126
4792.93209,0.25112
4791.00334,0.25113
4789.07460,0.25095
4787.14585,0.25022
4785.21711,0.24969
4783.28836,0.24993
4781.35962,0.25018
4779.43087,0.24990
4777.50213,0.24949
4775.57338,0.24897
4773.64464,0.24837
4771.71589,0.24818
4769.78714,0.24852
4767.85840,0.24882
4765.92965,0.24875
4764.00091,0.24866
4762.07216,0.24866
4760.14342,0.24880
4758.21467,0.24916
4756.28593,0.24911
4754.35718,0.24841
4752.42844,0.24769
4750.49969,0.24735
4748.57095,0.24745
4746.64220,0.24787
4744.71346,0.24838
4742.78471,0.24880
4740.85597,0.24892
4738.92722,0.24859
4736.99847,0.24811
4735.06973,0.24800
4733.14098,0.24824
4731.21224,0.24833
4729.28349,0.24816
4727.35475,0.24820
4725.42600,0.24846
4723.49726,0.24842
4721.56851,0.24829
4719.63977,0.24843
4717.71102,0.24889
4715.78228,0.24997
4713.85353,0.25109
4711.92479,0.25122
4709.99604,0.25073
4708.06729,0.25052
4706.13855,0.25060
4704.20980,0.25051
4702.28106,0.25028
4700.35231,0.25025
4698.42357,0.25021
4696.49482,0.24996
4694.56608,0.25018
4692.63733,0.25095
4690.70859,0.25154
4688.77984,0.25205
4686.85110,0.25268
4684.92235,0.25258
4682.99361,0.25165
4681.06486,0.25142
4679.13612,0.25223
4677.20737,0.25251
4675.27862,0.25197
4673.34988,0.25220
4671.42113,0.25354
4669.49239,0.25442
4667.56364,0.25420
4665.63490,0.25411
4663.70615,0.25487
4661.77741,0.25569
4659.84866,0.25566
4657.91992,0.25525
4655.99117,0.25530
4654.06243,0.25563
4652.13368,0.25604
4650.20494,0.25663
4648.27619,0.25704
4646.34745,0.25729
4644.41870,0.25755
4642.48995,0.25762
4640.56121,0.25784
4638.63246,0.25852
4636.70372,0.25910
4634.77497,0.25935
4632.84623,0.25961
4630.91748,0.25997
4628.98874,0.26052
4627.05999,0.26126
4625.13125,0.26176
4623.20250,0.26190
4621.27376,0.26215
4619.34501,0.26245
4617.41627,0.26248
4615.48752,0.26251
4613.55877,0.26290
4611.63003,0.26356
4609.70128,0.26421
4607.77254,0.26467
4605.84379,0.26491
4603.91505,0.26492
4601.98630,0.26486
4600.05756,0.26508
4598.12881,0.26557
4596.20007,0.26590
4594.27132,0.26584
4592.34258,0.26564
4590.41383,0.26570
4588.48509,0.26624
4586.55634,0.26725
4584.62760,0.26808
4582.69885,0.26800
4580.77010,0.26755
4578.84136,0.26766
4576.91261,0.26811
4574.98387,0.26830
4573.05512,0.26814
4571.12638,0.26782
4569.19763,0.26758
4567.26889,0.26759
4565.34014,0.26791
4563.41140,0.26847
4561.48265,0.26894
4559.55391,0.26901
4557.62516,0.26875
4555.69642,0.26861
4553.76767,0.26902
4551.83893,0.26963
4549.91018,0.26971
4547.98143,0.26931
4546.05269,0.26903
4544.12394,0.26939
4542.19520,0.27015
4540.26645,0.27065
4538.33771,0.27071
4536.40896,0.27055
4534.48022,0.27024
4532.55147,0.26972
4530.62273,0.26935
4528.69398,0.26963
4526.76524,0.27011
4524.83649,0.27008
4522.90775,0.26983
4520.97900,0.26972
4519.05025,0.26959
4517.12151,0.26948
4515.19276,0.26938
4513.26402,0.26912
4511.33527,0.26878
4509.40653,0.26844
4507.47778,0.26811
4505.54904,0.26757
4503.62029,0.26690
4501.69155,0.26662
4499.76280,0.26643
4497.83406,0.26573
4495.90531,0.26464
4493.97657,0.26370
4492.04782,0.26313
4490.11908,0.26261
4488.19033,0.26189
4486.26158,0.26094
4484.33284,0.25967
4482.40409,0.25850
4480.47535,0.25773
4478.54660,0.25680
4476.61786,0.25533
4474.68911,0.25388
4472.76037,0.25294
4470.83162,0.25210
4468.90288,0.25087
4466.97413,0.24933
4465.04539,0.24787
4463.11664,0.24674
4461.18790,0.24576
4459.25915,0.24459
4457.33041,0.24310
4455.40166,0.24174
4453.47291,0.24065
4451.54417,0.23924
4449.61542,0.23756
4447.68668,0.23618
4445.75793,0.23514
4443.82919,0.23409
4441.90044,0.23263
4439.97170,0.23083
4438.04295,0.22929
4436.11421,0.22840
4434.18546,0.22755
4432.25672,0.22596
4430.32797,0.22420
4428.39923,0.22307
4426.47048,0.22215
4424.54173,0.22104
4422.61299,0.21998
4420.68424,0.21913
4418.75550,0.21821
4416.82675,0.21701
4414.89801,0.21589
4412.96926,0.21509
4411.04052,0.21431
4409.11177,0.21343
4407.18303,0.21249
4405.25428,0.21166
4403.32554,0.21115
4401.39679,0.21067
4399.46805,0.20988
4397.53930,0.20883
4395.61056,0.20767
4393.68181,0.20673
4391.75306,0.20633
4389.82432,0.20632
4387.89557,0.20622
4385.96683,0.20585
4384.03808,0.20542
4382.10934,0.20501
4380.18059,0.20452
4378.25185,0.20387
4376.32310,0.20312
4374.39436,0.20252
4372.46561,0.20212
4370.53687,0.20187
4368.60812,0.20184
4366.67938,0.20202
4364.75063,0.20192
4362.82189,0.20094
4360.89314,0.19943
4358.96439,0.19824
4357.03565,0.19741
4355.10690,0.19629
4353.17816,0.19477
4351.24941,0.19297
4349.32067,0.19069
4347.39192,0.18824
4345.46318,0.18609
4343.53443,0.18406
4341.60569,0.18215
4339.67694,0.18065
4337.74820,0.17956
4335.81945,0.17848
4333.89071,0.17675
4331.96196,0.17431
4330.03321,0.17166
4328.10447,0.16879
4326.17572,0.16564
4324.24698,0.16287
4322.31823,0.16172
4320.38949,0.16319
4318.46074,0.16713
4316.53200,0.17229
4314.60325,0.17729
4312.67451,0.18141
4310.74576,0.18439
4308.81702,0.18661
4306.88827,0.18852
4304.95953,0.19004
4303.03078,0.19116
4301.10204,0.19193
4299.17329,0.19212
4297.24454,0.19187
4295.31580,0.19164
4293.38705,0.19159
4291.45831,0.19142
4289.52956,0.19109
4287.60082,0.19066
4285.67207,0.18983
4283.74333,0.18872
4281.81458,0.18804
4279.88584,0.18788
4277.95709,0.18777
4276.02835,0.18765
4274.09960,0.18741
4272.17086,0.18673
4270.24211,0.18561
4268.31336,0.18452
4266.38462,0.18362
4264.45587,0.18224
4262.52713,0.18000
4260.59838,0.17754
4258.66964,0.17549
4256.74089,0.17386
4254.81215,0.17221
4252.88340,0.17056
4250.95466,0.17004
4249.02591,0.17162
4247.09717,0.17463
4245.16842,0.17760
4243.23968,0.18013
4241.31093,0.18238
4239.38219,0.18413
4237.45344,0.18516
4235.52469,0.18554
4233.59595,0.18541
4231.66720,0.18506
4229.73846,0.18470
4227.80971,0.18417
4225.88097,0.18328
4223.95222,0.18216
4222.02348,0.18129
4220.09473,0.18112
4218.16599,0.18146
4216.23724,0.18176
4214.30850,0.18182
4212.37975,0.18194
4210.45101,0.18224
4208.52226,0.18239
4206.59352,0.18227
4204.66477,0.18183
4202.73602,0.18101
4200.80728,0.18032
4198.87853,0.18001
4196.94979,0.17951
4195.02104,0.17870
4193.09230,0.17786
4191.16355,0.17707
4189.23481,0.17688
4187.30606,0.17737
4185.37732,0.17782
4183.44857,0.17802
4181.51983,0.17820
4179.59108,0.17832
4177.66234,0.17834
4175.73359,0.17857
4173.80484,0.17907
4171.87610,0.17939
4169.94735,0.17942
4168.01861,0.17933
4166.08986,0.17917
4164.16112,0.17910
4162.23237,0.17929
4160.30363,0.17951
4158.37488,0.17952
4156.44614,0.17936
4154.51739,0.17909
4152.58865,0.17876
4150.65990,0.17832
4148.73116,0.17784
4146.80241,0.17783
4144.87367,0.17836
4142.94492,0.17881
4141.01617,0.17888
4139.08743,0.17883
4137.15868,0.17873
4135.22994,0.17848
4133.30119,0.17821
4131.37245,0.17797
4129.44370,0.17769
4127.51496,0.17765
4125.58621,0.17778
4123.65747,0.17751
4121.72872,0.17674
4119.79998,0.17598
4117.87123,0.17562
4115.94249,0.17546
4114.01374,0.17518
4112.08500,0.17481
4110.15625,0.17453
4108.22750,0.17427
4106.29876,0.17396
4104.37001,0.17360
4102.44127,0.17306
4100.51252,0.17246
4098.58378,0.17208
4096.65503,0.17185
4094.72629,0.17165
4092.79754,0.17160
4090.86880,0.17180
4088.94005,0.17219
4087.01131,0.17265
4085.08256,0.17295
4083.15382,0.17294
4081.22507,0.17291
4079.29632,0.17300
4077.36758,0.17300
4075.43883,0.17289
4073.51009,0.17267
4071.58134,0.17227
4069.65260,0.17182
4067.72385,0.17142
4065.79511,0.17099
4063.86636,0.17053
4061.93762,0.17009
4060.00887,0.16971
4058.08013,0.16938
4056.15138,0.16914
4054.22264,0.16904
4052.29389,0.16900
4050.36515,0.16888
4048.43640,0.16867
4046.50765,0.16834
4044.57891,0.16797
4042.65016,0.16766
4040.72142,0.16735
4038.79267,0.16695
4036.86393,0.16642
4034.93518,0.16596
4033.00644,0.16574
4031.07769,0.16564
4029.14895,0.16535
4027.22020,0.16487
4025.29146,0.16468
4023.36271,0.16489
4021.43397,0.16487
4019.50522,0.16457
4017.57648,0.16465
4015.64773,0.16507
4013.71898,0.16545
4011.79024,0.16589
4009.86149,0.16622
4007.93275,0.16637
4006.00400,0.16677
4004.07526,0.16735
4002.14651,0.16757
4000.21777,0.16738
3998.28902,0.16715
3996.36028,0.16721
3994.43153,0.16757
3992.50279,0.16795
3990.57404,0.16808
3988.64530,0.16801
3986.71655,0.16797
3984.78780,0.16809
3982.85906,0.16844
3980.93031,0.16876
3979.00157,0.16882
3977.07282,0.16887
3975.14408,0.16899
3973.21533,0.16913
3971.28659,0.16942
3969.35784,0.16966
3967.42910,0.16985
3965.50035,0.17018
3963.57161,0.17056
3961.64286,0.17099
3959.71412,0.17144
3957.78537,0.17181
3955.85663,0.17218
3953.92788,0.17254
3951.99913,0.17279
3950.07039,0.17307
3948.14164,0.17326
3946.21290,0.17312
3944.28415,0.17294
3942.35541,0.17315
3940.42666,0.17352
3938.49792,0.17376
3936.56917,0.17399
3934.64043,0.17416
3932.71168,0.17425
3930.78294,0.17429
3928.85419,0.17428
3926.92545,0.17434
3924.99670,0.17460
3923.06795,0.17499
3921.13921,0.17536
3919.21046,0.17555
3917.28172,0.17558
3915.35297,0.17560
3913.42423,0.17570
3911.49548,0.17604
3909.56674,0.17664
3907.63799,0.17708
3905.70925,0.17714
3903.78050,0.17726
3901.85176,0.17770
3899.92301,0.17821
3897.99427,0.17848
3896.06552,0.17844
3894.13678,0.17845
3892.20803,0.17870
3890.27928,0.17890
3888.35054,0.17904
3886.42179,0.17942
3884.49305,0.17993
3882.56430,0.18025
3880.63556,0.18037
3878.70681,0.18046
3876.77807,0.18054
3874.84932,0.18061
3872.92058,0.18080
3870.99183,0.18118
3869.06309,0.18177
3867.13434,0.18248
3865.20560,0.18307
3863.27685,0.18356
3861.34811,0.18415
3859.41936,0.18464
3857.49061,0.18489
3855.56187,0.18522
3853.63312,0.18581
3851.70438,0.18626
3849.77563,0.18637
3847.84689,0.18631
3845.91814,0.18634
3843.98940,0.18654
3842.06065,0.18679
3840.13191,0.18715
3838.20316,0.18760
3836.27442,0.18779
3834.34567,0.18761
3832.41693,0.18732
3830.48818,0.18723
3828.55943,0.18740
3826.63069,0.18772
3824.70194,0.18794
3822.77320,0.18778
3820.84445,0.18747
3818.91571,0.18740
3816.98696,0.18735
3815.05822,0.18717
3813.12947,0.18712
3811.20073,0.18724
3809.27198,0.18743
3807.34324,0.18775
3805.41449,0.18810
3803.48575,0.18821
3801.55700,0.18821
3799.62826,0.18849
3797.69951,0.18886
3795.77076,0.18906
3793.84202,0.18906
3791.91327,0.18879
3789.98453,0.18845
3788.05578,0.18845
3786.12704,0.18863
3784.19829,0.18865
3782.26955,0.18855
3780.34080,0.18837
3778.41206,0.18809
3776.48331,0.18774
3774.55457,0.18744
3772.62582,0.18719
3770.69708,0.18675
3768.76833,0.18630
3766.83959,0.18614
3764.91084,0.18609
3762.98209,0.18609
3761.05335,0.18607
3759.12460,0.18582
3757.19586,0.18539
3755.26711,0.18495
3753.33837,0.18459
3751.40962,0.18435
3749.48088,0.18412
3747.55213,0.18403
3745.62339,0.18382
3743.69464,0.18327
3741.76590,0.18283
3739.83715,0.18252
3737.90841,0.18205
3735.97966,0.18151
3734.05091,0.18093
3732.12217,0.18020
3730.19342,0.17947
3728.26468,0.17880
3726.33593,0.17812
3724.40719,0.17736
3722.47844,0.17654
3720.54970,0.17576
3718.62095,0.17499
3716.69221,0.17414
3714.76346,0.17323
3712.83472,0.17212
3710.90597,0.17062
3708.97723,0.16916
3707.04848,0.16813
3705.11974,0.16715
3703.19099,0.16582
3701.26224,0.16440
3699.33350,0.16314
3697.40475,0.16179
3695.47601,0.16033
3693.54726,0.15888
3691.61852,0.15726
3689.68977,0.15526
3687.76103,0.15300
3685.83228,0.15092
3683.90354,0.14918
3681.97479,0.14758
3680.04605,0.14587
3678.11730,0.14382
3676.18856,0.14138
3674.25981,0.13891
3672.33107,0.13696
3670.40232,0.13528
3668.47357,0.13339
3666.54483,0.13111
3664.61608,0.12853
3662.68734,0.12611
3660.75859,0.12416
3658.82985,0.12235
3656.90110,0.12041
3654.97236,0.11858
3653.04361,0.11703
3651.11487,0.11541
3649.18612,0.11362
3647.25738,0.11196
3645.32863,0.11042
3643.39989,0.10901
3641.47114,0.10780
3639.54239,0.10671
3637.61365,0.10570
3635.68490,0.10475
3633.75616,0.10387
3631.82741,0.10306
3629.89867,0.10212
3627.96992,0.10076
3626.04118,0.09944
3624.11243,0.09857
3622.18369,0.09791
3620.25494,0.09698
3618.32620,0.09558
3616.39745,0.09416
3614.46871,0.09308
3612.53996,0.09215
3610.61122,0.09112
3608.68247,0.09011
3606.75372,0.08924
3604.82498,0.08824
3602.89623,0.08711
3600.96749,0.08606
3599.03874,0.08523
3597.11000,0.08460
3595.18125,0.08400
3593.25251,0.08335
3591.32376,0.08277
3589.39502,0.08219
3587.46627,0.08158
3585.53753,0.08100
3583.60878,0.08045
3581.68004,0.07985
3579.75129,0.07906
3577.82254,0.07812
3575.89380,0.07744
3573.96505,0.07711
3572.03631,0.07671
3570.10756,0.07598
3568.17882,0.07506
3566.25007,0.07425
3564.32133,0.07380
3562.39258,0.07369
3560.46384,0.07344
3558.53509,0.07270
3556.60635,0.07195
3554.67760,0.07163
3552.74886,0.07131
3550.82011,0.07074
3548.89137,0.07031
3546.96262,0.07007
3545.03387,0.06966
3543.10513,0.06902
3541.17638,0.06847
3539.24764,0.06802
3537.31889,0.06754
3535.39015,0.06719
3533.46140,0.06693
3531.53266,0.06663
3529.60391,0.06639
3527.67517,0.06617
3525.74642,0.06588
3523.81768,0.06562
3521.88893,0.06537
3519.96019,0.06518
3518.03144,0.06500
3516.10270,0.06469
3514.17395,0.06444
3512.24520,0.06431
3510.31646,0.06402
3508.38771,0.06355
3506.45897,0.06314
3504.53022,0.06292
3502.60148,0.06283
3500.67273,0.06269
3498.74399,0.06249
3496.81524,0.06231
3494.88650,0.06219
3492.95775,0.06196
3491.02901,0.06156
3489.10026,0.06119
3487.17152,0.06105
3485.24277,0.06096
3483.31402,0.06059
3481.38528,0.06025
3479.45653,0.06011
3477.52779,0.05994
3475.59904,0.05995
3473.67030,0.06014
3471.74155,0.06010
3469.81281,0.05994
3467.88406,0.05990
3465.95532,0.05994
3464.02657,0.05999
3462.09783,0.05991
3460.16908,0.05965
3458.24034,0.05936
3456.31159,0.05907
3454.38285,0.05861
3452.45410,0.05821
3450.52535,0.05831
3448.59661,0.05879
3446.66786,0.05916
3444.73912,0.05919
3442.81037,0.05896
3440.88163,0.05868
3438.95288,0.05841
3437.02414,0.05814
3435.09539,0.05791
3433.16665,0.05784
3431.23790,0.05781
3429.30916,0.05771
3427.38041,0.05771
3425.45167,0.05776
3423.52292,0.05779
3421.59418,0.05806
3419.66543,0.05842
3417.73668,0.05831
3415.80794,0.05786
3413.87919,0.05758
3411.95045,0.05746
3410.02170,0.05747
3408.09296,0.05781
3406.16421,0.05819
3404.23547,0.05814
3402.30672,0.05766
3400.37798,0.05728
3398.44923,0.05734
3396.52049,0.05763
3394.59174,0.05768
3392.66300,0.05733
3390.73425,0.05701
3388.80550,0.05708
3386.87676,0.05729
3384.94801,0.05744
3383.01927,0.05781
3381.09052,0.05829
3379.16178,0.05826
3377.23303,0.05775
3375.30429,0.05750
3373.37554,0.05775
3371.44680,0.05801
3369.51805,0.05795
3367.58931,0.05773
3365.66056,0.05762
3363.73182,0.05765
3361.80307,0.05786
3359.87433,0.05796
3357.94558,0.05754
3356.01683,0.05700
3354.08809,0.05694
3352.15934,0.05733
3350.23060,0.05784
3348.30185,0.05816
3346.37311,0.05823
3344.44436,0.05820
3342.51562,0.05822
3340.58687,0.05834
3338.65813,0.05830
3336.72938,0.05789
3334.80064,0.05763
3332.87189,0.05786
3330.94315,0.05831
3329.01440,0.05870
3327.08566,0.05899
3325.15691,0.05905
3323.22816,0.05886
3321.29942,0.05875
3319.37067,0.05900
3317.44193,0.05934
3315.51318,0.05935
3313.58444,0.05915
3311.65569,0.05919
3309.72695,0.05961
3307.79820,0.06011
3305.86946,0.06034
3303.94071,0.06020
3302.01197,0.05980
3300.08322,0.05948
3298.15448,0.05971
3296.22573,0.06038
3294.29698,0.06092
3292.36824,0.06111
3290.43949,0.06108
3288.51075,0.06100
3286.58200,0.06095
3284.65326,0.06089
3282.72451,0.06091
3280.79577,0.06100
3278.86702,0.06101
3276.93828,0.06111
3275.00953,0.06142
3273.08079,0.06181
3271.15204,0.06229
3269.22330,0.06273
3267.29455,0.06292
3265.36581,0.06289
3263.43706,0.06289
3261.50831,0.06312
3259.57957,0.06364
3257.65082,0.06418
3255.72208,0.06445
3253.79333,0.06468
3251.86459,0.06500
3249.93584,0.06503
3248.00710,0.06494
3246.07835,0.06526
3244.14961,0.06561
3242.22086,0.06552
3240.29212,0.06558
3238.36337,0.06612
3236.43463,0.06631
3234.50588,0.06608
3232.57713,0.06625
3230.64839,0.06673
3228.71964,0.06690
3226.79090,0.06692
3224.86215,0.06720
3222.93341,0.06764
3221.00466,0.06800
3219.07592,0.06816
3217.14717,0.06830
3215.21843,0.06865
3213.28968,0.06913
3211.36094,0.06952
3209.43219,0.06977
3207.50345,0.06995
3205.57470,0.07024
3203.64596,0.07056
3201.71721,0.07081
3199.78846,0.07115
3197.85972,0.07157
3195.93097,0.07174
3194.00223,0.07159
3192.07348,0.07129
3190.14474,0.07127
3188.21599,0.07186
3186.28725,0.07257
3184.35850,0.07278
3182.42976,0.07279
3180.50101,0.07297
3178.57227,0.07337
3176.64352,0.07388
3174.71478,0.07419
3172.78603,0.07428
3170.85729,0.07441
3168.92854,0.07474
3166.99979,0.07524
3165.07105,0.07561
3163.14230,0.07568
3161.21356,0.07577
3159.28481,0.07614
3157.35607,0.07647
3155.42732,0.07645
3153.49858,0.07650
3151.56983,0.07697
3149.64109,0.07741
3147.71234,0.07755
3145.78360,0.07755
3143.85485,0.07769
3141.92611,0.07802
3139.99736,0.07836
3138.06861,0.07866
3136.13987,0.07909
3134.21112,0.07964
3132.28238,0.07983
3130.35363,0.07947
3128.42489,0.07918
3126.49614,0.07946
3124.56740,0.08022
3122.63865,0.08092
3120.70991,0.08110
3118.78116,0.08096
3116.85242,0.08089
3114.92367,0.08085
3112.99493,0.08075
3111.06618,0.08076
3109.13744,0.08096
3107.20869,0.08144
3105.27994,0.08219
3103.35120,0.08269
3101.42245,0.08265
3099.49371,0.08241
3097.56496,0.08235
3095.63622,0.08256
3093.70747,0.08284
3091.77873,0.08296
3089.84998,0.08276
3087.92124,0.08249
3085.99249,0.08262
3084.06375,0.08292
3082.13500,0.08297
3080.20626,0.08290
3078.27751,0.08297
3076.34877,0.08322
3074.42002,0.08351
3072.49127,0.08374
3070.56253,0.08398
3068.63378,0.08426
3066.70504,0.08444
3064.77629,0.08435
3062.84755,0.08409
3060.91880,0.08394
3058.99006,0.08395
3057.06131,0.08407
3055.13257,0.08418
3053.20382,0.08422
3051.27508,0.08438
3049.34633,0.08481
3047.41759,0.08522
3045.48884,0.08522
3043.56009,0.08483
3041.63135,0.08443
3039.70260,0.08433
3037.77386,0.08432
3035.84511,0.08407
3033.91637,0.08379
3031.98762,0.08369
3030.05888,0.08340
3028.13013,0.08285
3026.20139,0.08260
3024.27264,0.08272
3022.34390,0.08263
3020.41515,0.08210
3018.48641,0.08149
3016.55766,0.08111
3014.62892,0.08086
3012.70017,0.08050
3010.77142,0.08000
3008.84268,0.07935
3006.91393,0.07849
3004.98519,0.07753
3003.05644,0.07675
3001.12770,0.07637
2999.19895,0.07624
2997.27021,0.07602
2995.34146,0.07545
2993.41272,0.07461
2991.48397,0.07368
2989.55523,0.07274
2987.62648,0.07180
2985.69774,0.07086
2983.76899,0.06979
2981.84025,0.06839
2979.91150,0.06682
2977.98275,0.06546
2976.05401,0.06418
2974.12526,0.06267
2972.19652,0.06104
2970.26777,0.05942
2968.33903,0.05777
2966.41028,0.05607
2964.48154,0.05449
2962.55279,0.05333
2960.62405,0.05267
2958.69530,0.05227
2956.76656,0.05184
2954.83781,0.05131
2952.90907,0.05066
2950.98032,0.04993
2949.05157,0.04914
2947.12283,0.04831
2945.19408,0.04743
2943.26534,0.04643
2941.33659,0.04536
2939.40785,0.04433
2937.47910,0.04326
2935.55036,0.04220
2933.62161,0.04147
2931.69287,0.04115
2929.76412,0.04106
2927.83538,0.04120
2925.90663,0.04188
2923.97789,0.04321
2922.04914,0.04509
2920.12040,0.04751
2918.19165,0.05020
2916.26290,0.05231
2914.33416,0.05317
2912.40541,0.05311
2910.47667,0.05283
2908.54792,0.05254
2906.61918,0.05223
2904.69043,0.05201
2902.76169,0.05205
2900.83294,0.05243
2898.90420,0.05286
2896.97545,0.05316
2895.04671,0.05355
2893.11796,0.05400
2891.18922,0.05434
2889.26047,0.05471
2887.33172,0.05518
2885.40298,0.05570
2883.47423,0.05628
2881.54549,0.05688
2879.61674,0.05724
2877.68800,0.05734
2875.75925,0.05731
2873.83051,0.05718
2871.90176,0.05688
2869.97302,0.05657
2868.04427,0.05621
2866.11553,0.05543
2864.18678,0.05417
2862.25804,0.05268
2860.32929,0.05120
2858.40055,0.04997
2856.47180,0.04915
2854.54305,0.04884
2852.61431,0.04955
2850.68556,0.05163
2848.75682,0.05460
2846.82807,0.05764
2844.89933,0.06033
2842.97058,0.06268
2841.04184,0.06477
2839.11309,0.06671
2837.18435,0.06862
2835.25560,0.07046
2833.32686,0.07212
2831.39811,0.07374
2829.46937,0.07541
2827.54062,0.07689
2825.61188,0.07808
2823.68313,0.07915
2821.75438,0.08014
2819.82564,0.08097
2817.89689,0.08166
2815.96815,0.08231
2814.03940,0.08310
2812.11066,0.08400
2810.18191,0.08483
2808.25317,0.08555
2806.32442,0.08616
2804.39568,0.08667
2802.46693,0.08717
2800.53819,0.08757
2798.60944,0.08781
2796.68070,0.08813
2794.75195,0.08872
2792.82320,0.08944
2790.89446,0.09005
2788.96571,0.09053
2787.03697,0.09092
2785.10822,0.09121
2783.17948,0.09145
2781.25073,0.09175
2779.32199,0.09212
2777.39324,0.09247
2775.46450,0.09276
2773.53575,0.09307
2771.60701,0.09341
2769.67826,0.09371
2767.74952,0.09389
2765.82077,0.09396
2763.89203,0.09403
2761.96328,0.09418
2760.03453,0.09432
2758.10579,0.09438
2756.17704,0.09445
2754.24830,0.09444
2752.31955,0.09435
2750.39081,0.09433
2748.46206,0.09445
2746.53332,0.09465
2744.60457,0.09479
2742.67583,0.09481
2740.74708,0.09471
2738.81834,0.09449
2736.88959,0.09439
2734.96085,0.09454
2733.03210,0.09469
2731.10336,0.09476
2729.17461,0.09492
2727.24586,0.09520
2725.31712,0.09547
2723.38837,0.09562
2721.45963,0.09574
2719.53088,0.09592
2717.60214,0.09610
2715.67339,0.09629
2713.74465,0.09651
2711.81590,0.09672
2709.88716,0.09690
2707.95841,0.09711
2706.02967,0.09739
2704.10092,0.09776
2702.17218,0.09808
2700.24343,0.09826
2698.31468,0.09840
2696.38594,0.09859
2694.45719,0.09868
2692.52845,0.09854
2690.59970,0.09841
2688.67096,0.09848
2686.74221,0.09869
2684.81347,0.09897
2682.88472,0.09935
2680.95598,0.09960
2679.02723,0.09954
2677.09849,0.09939
2675.16974,0.09946
2673.24100,0.09970
2671.31225,0.09990
2669.38351,0.09997
2667.45476,0.09986
2665.52601,0.09968
2663.59727,0.09975
2661.66852,0.10005
2659.73978,0.10019
2657.81103,0.10008
2655.88229,0.10006
2653.95354,0.10034
2652.02480,0.10065
2650.09605,0.10078
2648.16731,0.10090
2646.23856,0.10108
2644.30982,0.10106
2642.38107,0.10107
2640.45233,0.10141
2638.52358,0.10171
2636.59484,0.10168
2634.66609,0.10165
2632.73734,0.10188
2630.80860,0.10215
2628.87985,0.10240
2626.95111,0.10277
2625.02236,0.10323
2623.09362,0.10364
2621.16487,0.10389
2619.23613,0.10404
2617.30738,0.10429
2615.37864,0.10466
2613.44989,0.10498
2611.52115,0.10524
2609.59240,0.10549
2607.66366,0.10566
2605.73491,0.10590
2603.80616,0.10621
2601.87742,0.10643
2599.94867,0.10656
2598.01993,0.10667
2596.09118,0.10673
2594.16244,0.10680
2592.23369,0.10710
2590.30495,0.10760
2588.37620,0.10800
2586.44746,0.10814
2584.51871,0.10815
2582.58997,0.10830
2580.66122,0.10862
2578.73248,0.10884
2576.80373,0.10894
2574.87499,0.10907
2572.94624,0.10920
2571.01749,0.10932
2569.08875,0.10937
2567.16000,0.10937
2565.23126,0.10954
2563.30251,0.10988
2561.37377,0.11008
2559.44502,0.11007
2557.51628,0.11017
2555.58753,0.11038
2553.65879,0.11047
2551.73004,0.11038
2549.80130,0.11035
2547.87255,0.11058
2545.94381,0.11096
2544.01506,0.11129
2542.08631,0.11154
2540.15757,0.11161
2538.22882,0.11152
2536.30008,0.11157
2534.37133,0.11174
2532.44259,0.11170
2530.51384,0.11149
2528.58510,0.11150
2526.65635,0.11177
2524.72761,0.11198
2522.79886,0.11204
2520.87012,0.11215
2518.94137,0.11236
2517.01263,0.11259
2515.08388,0.11288
2513.15514,0.11328
2511.22639,0.11362
2509.29764,0.11383
2507.36890,0.11408
2505.44015,0.11443
2503.51141,0.11477
2501.58266,0.11512
2499.65392,0.11546
2497.72517,0.11574
2495.79643,0.11591
2493.86768,0.11602
2491.93894,0.11611
2490.01019,0.11633
2488.08145,0.11675
2486.15270,0.11713
2484.22396,0.11739
2482.29521,0.11766
2480.36647,0.11797
2478.43772,0.11820
2476.50897,0.11826
2474.58023,0.11818
2472.65148,0.11818
2470.72274,0.11838
2468.79399,0.11872
2466.86525,0.11910
2464.93650,0.11949
2463.00776,0.11981
2461.07901,0.11992
2459.15027,0.11993
2457.22152,0.12009
2455.29278,0.12037
2453.36403,0.12052
2451.43529,0.12063
2449.50654,0.12095
2447.57779,0.12132
2445.64905,0.12150
2443.72030,0.12169
2441.79156,0.12204
2439.86281,0.12240
2437.93407,0.12250
2436.00532,0.12236
2434.07658,0.12225
2432.14783,0.12229
2430.21909,0.12250
2428.29034,0.12291
2426.36160,0.12336
2424.43285,0.12365
2422.50411,0.12385
2420.57536,0.12396
2418.64662,0.12403
2416.71787,0.12418
2414.78912,0.12438
2412.86038,0.12467
2410.93163,0.12518
2409.00289,0.12590
2407.07414,0.12652
2405.14540,0.12683
2403.21665,0.12699
2401.28791,0.12716
2399.35916,0.12723
2397.43042,0.12726
2395.50167,0.12751
2393.57293,0.12795
2391.64418,0.12831
2389.71544,0.12853
2387.78669,0.12874
2385.85795,0.12893
2383.92920,0.12909
2382.00045,0.12934
2380.07171,0.12966
2378.14296,0.12994
2376.21422,0.13031
2374.28547,0.13077
2372.35673,0.13092
2370.42798,0.13068
2368.49924,0.13044
2366.57049,0.13037
2364.64175,0.13041
2362.71300,0.13049
2360.78426,0.13052
2358.85551,0.13051
2356.92677,0.13039
2354.99802,0.13006
2353.06927,0.12970
2351.14053,0.12944
2349.21178,0.12929
2347.28304,0.12940
2345.35429,0.12965
2343.42555,0.12982
2341.49680,0.13000
2339.56806,0.13015
2337.63931,0.13014
2335.71057,0.13006
2333.78182,0.13007
2331.85308,0.13014
2329.92433,0.13018
2327.99559,0.13023
2326.06684,0.13036
2324.13810,0.13068
2322.20935,0.13113
2320.28060,0.13157
2318.35186,0.13180
2316.42311,0.13180
2314.49437,0.13184
2312.56562,0.13200
2310.63688,0.13204
2308.70813,0.13191
2306.77939,0.13182
2304.85064,0.13190
2302.92190,0.13215
2300.99315,0.13229
2299.06441,0.13221
2297.13566,0.13220
2295.20692,0.13234
2293.27817,0.13230
2291.34943,0.13205
2289.42068,0.13188
2287.49193,0.13191
2285.56319,0.13199
2283.63444,0.13205
2281.70570,0.13201
2279.77695,0.13181
2277.84821,0.13164
2275.91946,0.13163
2273.99072,0.13157
2272.06197,0.13142
2270.13323,0.13134
2268.20448,0.13135
2266.27574,0.13127
2264.34699,0.13110
2262.41825,0.13096
2260.48950,0.13090
2258.56075,0.13078
2256.63201,0.13041
2254.70326,0.12991
2252.77452,0.12953
2250.84577,0.12928
2248.91703,0.12905
2246.98828,0.12891
2245.05954,0.12883
2243.13079,0.12880
2241.20205,0.12879
2239.27330,0.12880
2237.34456,0.12885
2235.41581,0.12898
2233.48707,0.12923
2231.55832,0.12945
2229.62958,0.12953
2227.70083,0.12952
2225.77208,0.12943
2223.84334,0.12934
2221.91459,0.12950
2219.98585,0.12978
2218.05710,0.12982
2216.12836,0.12962
2214.19961,0.12950
2212.27087,0.12949
2210.34212,0.12940
2208.41338,0.12920
2206.48463,0.12894
2204.55589,0.12866
2202.62714,0.12848
2200.69840,0.12836
2198.76965,0.12806
2196.84090,0.12765
2194.91216,0.12737
2192.98341,0.12711
2191.05467,0.12671
2189.12592,0.12617
2187.19718,0.12571
2185.26843,0.12528
2183.33969,0.12470
2181.41094,0.12414
2179.48220,0.12379
2177.55345,0.12345
2175.62471,0.12295
2173.69596,0.12248
2171.76722,0.12207
2169.83847,0.12161
2167.90973,0.12109
2165.98098,0.12060
2164.05223,0.12013
2162.12349,0.11970
2160.19474,0.11939
2158.26600,0.11915
2156.33725,0.11875
2154.40851,0.11823
2152.47976,0.11789
2150.55102,0.11776
2148.62227,0.11759
2146.69353,0.11740
2144.76478,0.11732
2142.83604,0.11719
2140.90729,0.11698
2138.97855,0.11691
2137.04980,0.11705
2135.12106,0.11723
2133.19231,0.11733
2131.26356,0.11739
2129.33482,0.11749
2127.40607,0.11763
2125.47733,0.11769
2123.54858,0.11762
2121.61984,0.11758
2119.69109,0.11776
2117.76235,0.11806
2115.83360,0.11823
2113.90486,0.11816
2111.97611,0.11799
2110.04737,0.11803
2108.11862,0.11836
2106.18988,0.11866
2104.26113,0.11878
2102.33238,0.11879
2100.40364,0.11881
2098.47489,0.11889
2096.54615,0.11896
2094.61740,0.11892
2092.68866,0.11886
2090.75991,0.11889
2088.83117,0.11897
2086.90242,0.11903
2084.97368,0.11906
2083.04493,0.11904
2081.11619,0.11892
2079.18744,0.11867
2077.25870,0.11842
2075.32995,0.11839
2073.40121,0.11848
2071.47246,0.11845
2069.54371,0.11833
2067.61497,0.11823
2065.68622,0.11819
2063.75748,0.11814
2061.82873,0.11792
2059.89999,0.11765
2057.97124,0.11752
2056.04250,0.11755
2054.11375,0.11762
2052.18501,0.11763
2050.25626,0.11766
2048.32752,0.11777
2046.39877,0.11788
2044.47003,0.11791
2042.54128,0.11789
2040.61254,0.11786
2038.68379,0.11778
2036.75504,0.11770
2034.82630,0.11770
2032.89755,0.11778
2030.96881,0.11790
2029.04006,0.11806
2027.11132,0.11823
2025.18257,0.11834
2023.25383,0.11842
2021.32508,0.11845
2019.39634,0.11854
2017.46759,0.11888
2015.53885,0.11947
2013.61010,0.12022
2011.68136,0.12102
2009.75261,0.12174
2007.82386,0.12242
2005.89512,0.12301
2003.96637,0.12345
2002.03763,0.12385
2000.10888,0.12419
1998.18014,0.12434
1996.25139,0.12445
1994.32265,0.12480
1992.39390,0.12529
1990.46516,0.12561
1988.53641,0.12577
1986.60767,0.12590
1984.67892,0.12588
1982.75018,0.12567
1980.82143,0.12544
1978.89269,0.12534
1976.96394,0.12532
1975.03519,0.12522
1973.10645,0.12506
1971.17770,0.12499
1969.24896,0.12500
1967.32021,0.12497
1965.39147,0.12484
1963.46272,0.12453
1961.53398,0.12415
1959.60523,0.12387
1957.67649,0.12380
1955.74774,0.12389
1953.81900,0.12394
1951.89025,0.12388
1949.96151,0.12378
1948.03276,0.12377
1946.10402,0.12401
1944.17527,0.12444
1942.24652,0.12478
1940.31778,0.12494
1938.38903,0.12519
1936.46029,0.12567
1934.53154,0.12623
1932.60280,0.12672
1930.67405,0.12701
1928.74531,0.12715
1926.81656,0.12734
1924.88782,0.12765
1922.95907,0.12789
1921.03033,0.12792
1919.10158,0.12787
1917.17284,0.12784
1915.24409,0.12781
1913.31534,0.12778
1911.38660,0.12773
1909.45785,0.12772
1907.52911,0.12781
1905.60036,0.12780
1903.67162,0.12749
1901.74287,0.12712
1899.81413,0.12696
1897.88538,0.12686
1895.95664,0.12675
1894.02789,0.12687
1892.09915,0.12720
1890.17040,0.12748
1888.24166,0.12770
1886.31291,0.12801
1884.38417,0.12834
1882.45542,0.12846
1880.52667,0.12836
1878.59793,0.12825
1876.66918,0.12821
1874.74044,0.12809
1872.81169,0.12789
1870.88295,0.12774
1868.95420,0.12758
1867.02546,0.12736
1865.09671,0.12717
1863.16797,0.12704
1861.23922,0.12683
1859.31048,0.12647
1857.38173,0.12606
1855.45299,0.12571
1853.52424,0.12549
1851.59549,0.12522
1849.66675,0.12469
1847.73800,0.12416
1845.80926,0.12387
1843.88051,0.12356
1841.95177,0.12307
1840.02302,0.12259
1838.09428,0.12203
1836.16553,0.12137
1834.23679,0.12082
1832.30804,0.12035
1830.37930,0.11968
1828.45055,0.11876
1826.52181,0.11782
1824.59306,0.11701
1822.66432,0.11632
1820.73557,0.11559
1818.80682,0.11478
1816.87808,0.11400
1814.94933,0.11325
1813.02059,0.11237
1811.09184,0.11129
1809.16310,0.11020
1807.23435,0.10926
1805.30561,0.10844
1803.37686,0.10749
1801.44812,0.10619
1799.51937,0.10475
1797.59063,0.10348
1795.66188,0.10230
1793.73314,0.10103
1791.80439,0.09973
1789.87565,0.09846
1787.94690,0.09720
1786.01815,0.09582
1784.08941,0.09419
1782.16066,0.09241
1780.23192,0.09062
1778.30317,0.08867
1776.37443,0.08658
1774.44568,0.08436
1772.51694,0.08178
1770.58819,0.07903
1768.65945,0.07643
1766.73070,0.07383
1764.80196,0.07137
1762.87321,0.06912
1760.94447,0.06706
1759.01572,0.06525
1757.08697,0.06352
1755.15823,0.06194
1753.22948,0.06074
1751.30074,0.05975
1749.37199,0.05881
1747.44325,0.05801
1745.51450,0.05738
1743.58576,0.05682
1741.65701,0.05637
1739.72827,0.05631
1737.79952,0.05669
1735.87078,0.05727
1733.94203,0.05797
1732.01329,0.05868
1730.08454,0.05921
1728.15580,0.05963
1726.22705,0.06010
1724.29830,0.06067
1722.36956,0.06137
1720.44081,0.06225
1718.51207,0.06315
1716.58332,0.06380
1714.65458,0.06432
1712.72583,0.06502
1710.79709,0.06587
1708.86834,0.06671
1706.93960,0.06752
1705.01085,0.06830
1703.08211,0.06883
1701.15336,0.06900
1699.22462,0.06904
1697.29587,0.06922
1695.36713,0.06947
1693.43838,0.06960
1691.50963,0.06953
1689.58089,0.06929
1687.65214,0.06900
1685.72340,0.06874
1683.79465,0.06832
1681.86591,0.06762
1679.93716,0.06691
1678.00842,0.06631
1676.07967,0.06569
1674.15093,0.06505
1672.22218,0.06454
1670.29344,0.06396
1668.36469,0.06334
1666.43595,0.06296
1664.50720,0.06277
1662.57845,0.06259
1660.64971,0.06234
1658.72096,0.06213
1656.79222,0.06204
1654.86347,0.06190
1652.93473,0.06164
1651.00598,0.06171
1649.07724,0.06226
1647.14849,0.06272
1645.21975,0.06259
1643.29100,0.06230
1641.36226,0.06234
1639.43351,0.06251
1637.50477,0.06255
1635.57602,0.06233
1633.64728,0.06202
1631.71853,0.06184
1629.78978,0.06169
1627.86104,0.06150
1625.93229,0.06136
1624.00355,0.06121
1622.07480,0.06094
1620.14606,0.06068
1618.21731,0.06041
1616.28857,0.06002
1614.35982,0.05967
1612.43108,0.05941
1610.50233,0.05898
1608.57359,0.05839
1606.64484,0.05795
1604.71610,0.05772
1602.78735,0.05747
1600.85861,0.05707
1598.92986,0.05663
1597.00111,0.05634
1595.07237,0.05630
1593.14362,0.05651
1591.21488,0.05697
1589.28613,0.05754
1587.35739,0.05821
1585.42864,0.05927
1583.49990,0.06069
1581.57115,0.06211
1579.64241,0.06339
1577.71366,0.06456
1575.78492,0.06573
1573.85617,0.06682
1571.92743,0.06773
1569.99868,0.06861
1568.06993,0.06946
1566.14119,0.07013
1564.21244,0.07056
1562.28370,0.07090
1560.35495,0.07125
1558.42621,0.07153
1556.49746,0.07168
1554.56872,0.07167
1552.63997,0.07147
1550.71123,0.07127
1548.78248,0.07113
1546.85374,0.07096
1544.92499,0.07078
1542.99625,0.07074
1541.06750,0.07064
1539.13876,0.07007
1537.21001,0.06937
1535.28126,0.06877
1533.35252,0.06811
1531.42377,0.06747
1529.49503,0.06682
1527.56628,0.06586
1525.63754,0.06457
1523.70879,0.06311
1521.78005,0.06150
1519.85130,0.05995
1517.92256,0.05853
1515.99381,0.05714
1514.06507,0.05611
1512.13632,0.05550
1510.20758,0.05510
1508.27883,0.05479
1506.35008,0.05456
1504.42134,0.05442
1502.49259,0.05454
1500.56385,0.05497
1498.63510,0.05559
1496.70636,0.05618
1494.77761,0.05662
1492.84887,0.05700
1490.92012,0.05730
1488.99138,0.05743
1487.06263,0.05722
1485.13389,0.05656
1483.20514,0.05558
1481.27640,0.05446
1479.34765,0.05285
1477.41891,0.05026
1475.49016,0.04711
1473.56141,0.04469
1471.63267,0.04363
1469.70392,0.04318
1467.77518,0.04269
1465.84643,0.04228
1463.91769,0.04257
1461.98894,0.04384
1460.06020,0.04538
1458.13145,0.04651
1456.20271,0.04718
1454.27396,0.04769
1452.34522,0.04829
1450.41647,0.04897
1448.48773,0.04950
1446.55898,0.04979
1444.63024,0.05001
1442.70149,0.05018
1440.77274,0.05024
1438.84400,0.05031
1436.91525,0.05037
1434.98651,0.05037
1433.05776,0.05036
1431.12902,0.05040
1429.20027,0.05057
1427.27153,0.05081
1425.34278,0.05100
1423.41404,0.05118
1421.48529,0.05152
1419.55655,0.05205
1417.62780,0.05252
1415.69906,0.05271
1413.77031,0.05271
1411.84156,0.05271
1409.91282,0.05290
1407.98407,0.05323
1406.05533,0.05337
1404.12658,0.05320
1402.19784,0.05299
1400.26909,0.05289
1398.34035,0.05283
1396.41160,0.05275
1394.48286,0.05248
1392.55411,0.05197
1390.62537,0.05144
1388.69662,0.05105
1386.76788,0.05077
1384.83913,0.05034
1382.91039,0.04961
1380.98164,0.04872
1379.05289,0.04803
1377.12415,0.04767
1375.19540,0.04766
1373.26666,0.04803
1371.33791,0.04857
1369.40917,0.04901
1367.48042,0.04923
1365.55168,0.04934
1363.62293,0.04955
1361.69419,0.04990
1359.76544,0.05016
1357.83670,0.05022
1355.90795,0.05019
1353.97921,0.05019
1352.05046,0.05023
1350.12172,0.05026
1348.19297,0.05026
1346.26422,0.05015
1344.33548,0.05002
1342.40673,0.05001
1340.47799,0.04994
1338.54924,0.04971
1336.62050,0.04953
1334.69175,0.04950
1332.76301,0.04953
1330.83426,0.04965
1328.90552,0.04986
1326.97677,0.05003
1325.04803,0.05006
1323.11928,0.04993
1321.19054,0.04978
1319.26179,0.04975
1317.33304,0.04987
1315.40430,0.05001
1313.47555,0.04999
1311.54681,0.04989
1309.61806,0.04991
1307.68932,0.05010
1305.76057,0.05035
1303.83183,0.05065
1301.90308,0.05099
1299.97434,0.05112
1298.04559,0.05101
1296.11685,0.05088
1294.18810,0.05076
1292.25936,0.05047
1290.33061,0.05007
1288.40187,0.04973
1286.47312,0.04948
1284.54437,0.04922
1282.61563,0.04902
1280.68688,0.04902
1278.75814,0.04896
1276.82939,0.04851
1274.90065,0.04786
1272.97190,0.04728
1271.04316,0.04682
1269.11441,0.04633
1267.18567,0.04566
1265.25692,0.04503
1263.32818,0.04473
1261.39943,0.04483
1259.47069,0.04516
1257.54194,0.04547
1255.61320,0.04575
1253.68445,0.04605
1251.75570,0.04628
1249.82696,0.04647
1247.89821,0.04674
1245.96947,0.04707
1244.04072,0.04723
1242.11198,0.04711
1240.18323,0.04702
1238.25449,0.04714
1236.32574,0.04738
1234.39700,0.04764
1232.46825,0.04782
1230.53951,0.04790
1228.61076,0.04803
1226.68202,0.04819
1224.75327,0.04836
1222.82452,0.04855
1220.89578,0.04874
1218.96703,0.04902
1217.03829,0.04933
1215.10954,0.04944
1213.18080,0.04933
1211.25205,0.04916
1209.32331,0.04907
1207.39456,0.04910
1205.46582,0.04916
1203.53707,0.04914
1201.60833,0.04901
1199.67958,0.04886
1197.75084,0.04876
1195.82209,0.04876
1193.89335,0.04878
1191.96460,0.04871
1190.03585,0.04851
1188.10711,0.04810
1186.17836,0.04761
1184.24962,0.04735
1182.32087,0.04722
1180.39213,0.04688
1178.46338,0.04641
1176.53464,0.04617
1174.60589,0.04607
1172.67715,0.04583
1170.74840,0.04554
1168.81966,0.04547
1166.89091,0.04570
1164.96217,0.04591
1163.03342,0.04585
1161.10467,0.04559
1159.17593,0.04538
1157.24718,0.04553
1155.31844,0.04597
1153.38969,0.04613
1151.46095,0.04567
1149.53220,0.04488
1147.60346,0.04430
1145.67471,0.04411
1143.74597,0.04400
1141.81722,0.04371
1139.88848,0.04321
1137.95973,0.04274
1136.03099,0.04252
1134.10224,0.04249
1132.17350,0.04248
1130.24475,0.04247
1128.31600,0.04267
1126.38726,0.04315
1124.45851,0.04342
1122.52977,0.04325
1120.60102,0.04322
1118.67228,0.04356
1116.74353,0.04372
1114.81479,0.04349
1112.88604,0.04338
1110.95730,0.04376
1109.02855,0.04426
1107.09981,0.04438
1105.17106,0.04430
1103.24232,0.04430
1101.31357,0.04419
1099.38483,0.04377
1097.45608,0.04332
1095.52733,0.04323
1093.59859,0.04363
1091.66984,0.04416
1089.74110,0.04428
1087.81235,0.04414
1085.88361,0.04418
1083.95486,0.04453
1082.02612,0.04510
1080.09737,0.04550
1078.16863,0.04564
1076.23988,0.04603
1074.31114,0.04664
1072.38239,0.04698
1070.45365,0.04718
1068.52490,0.04773
1066.59615,0.04868
1064.66741,0.04970
1062.73866,0.05058
1060.80992,0.05149
1058.88117,0.05235
1056.95243,0.05294
1055.02368,0.05316
1053.09494,0.05324
1051.16619,0.05358
1049.23745,0.05410
1047.30870,0.05420
1045.37996,0.05381
1043.45121,0.05345
1041.52247,0.05366
1039.59372,0.05449
1037.66498,0.05527
1035.73623,0.05559
1033.80748,0.05581
1031.87874,0.05595
1029.94999,0.05589
1028.02125,0.05600
1026.09250,0.05623
1024.16376,0.05626
1022.23501,0.05631
1020.30627,0.05657
1018.37752,0.05703
1016.44878,0.05760
1014.52003,0.05813
1012.59129,0.05848
1010.66254,0.05869
1008.73380,0.05900
1006.80505,0.05933
1004.87631,0.05942
1002.94756,0.05944
1001.01881,0.05968
999.09007,0.05994
997.16132,0.05991
995.23258,0.05995
993.30383,0.06053
991.37509,0.06113
989.44634,0.06130
987.51760,0.06159
985.58885,0.06223
983.66011,0.06287
981.73136,0.06353
979.80262,0.06410
977.87387,0.06432
975.94513,0.06439
974.01638,0.06470
972.08763,0.06519
970.15889,0.06553
968.23014,0.06569
966.30140,0.06591
964.37265,0.06629
962.44391,0.06683
960.51516,0.06750
958.58642,0.06818
956.65767,0.06887
954.72893,0.06963
952.80018,0.07026
950.87144,0.07047
948.94269,0.07050
947.01395,0.07069
945.08520,0.07098
943.15646,0.07112
941.22771,0.07108
939.29896,0.07111
937.37022,0.07109
935.44147,0.07057
933.51273,0.06978
931.58398,0.06925
929.65524,0.06902
927.72649,0.06879
925.79775,0.06844
923.86900,0.06814
921.94026,0.06791
920.01151,0.06761
918.08277,0.06731
916.15402,0.06697
914.22528,0.06653
912.29653,0.06602
910.36779,0.06535
908.43904,0.06458
906.51029,0.06381
904.58155,0.06311
902.65280,0.06278
900.72406,0.06251
898.79531,0.06180
896.86657,0.06122
894.93782,0.06153
893.00908,0.06244
891.08033,0.06327
889.15159,0.06384
887.22284,0.06419
885.29410,0.06437
883.36535,0.06432
881.43661,0.06408
879.50786,0.06413
877.57911,0.06460
875.65037,0.06498
873.72162,0.06514
871.79288,0.06514
869.86413,0.06498
867.93539,0.06493
866.00664,0.06511
864.07790,0.06521
862.14915,0.06495
860.22041,0.06463
858.29166,0.06477
856.36292,0.06509
854.43417,0.06503
852.50543,0.06468
850.57668,0.06425
848.64794,0.06375
846.71919,0.06330
844.79044,0.06288
842.86170,0.06257
840.93295,0.06248
839.00421,0.06219
837.07546,0.06152
835.14672,0.06088
833.21797,0.06045
831.28923,0.06000
829.36048,0.05957
827.43174,0.05929
825.50299,0.05903
823.57425,0.05867
821.64550,0.05823
819.71676,0.05765
817.78801,0.05720
815.85926,0.05703
813.93052,0.05694
812.00177,0.05688
810.07303,0.05680
808.14428,0.05655
806.21554,0.05614
804.28679,0.05583
802.35805,0.05590
800.42930,0.05620
798.50056,0.05649
796.57181,0.05664
794.64307,0.05685
792.71432,0.05746
790.78558,0.05808
788.85683,0.05816
786.92809,0.05809
784.99934,0.05830
783.07059,0.05851
781.14185,0.05849
779.21310,0.05850
777.28436,0.05848
775.35561,0.05832
773.42687,0.05816
771.49812,0.05782
769.56938,0.05726
767.64063,0.05687
765.71189,0.05663
763.78314,0.05625
761.85440,0.05600
759.92565,0.05597
757.99691,0.05585
756.06816,0.05558
754.13942,0.05532
752.21067,0.05514
750.28192,0.05485
748.35318,0.05426
746.42443,0.05323
744.49569,0.05211
742.56694,0.05178
740.63820,0.05193
738.70945,0.05165
736.78071,0.05116
734.85196,0.05060
732.92322,0.04960
730.99447,0.04845
729.06573,0.04785
727.13698,0.04787
725.20824,0.04790
723.27949,0.04742
721.35074,0.04666
719.42200,0.04648
717.49325,0.04728
715.56451,0.04849
713.63576,0.04953
711.70702,0.05014
709.77827,0.05028
707.84953,0.05028
705.92078,0.05034
703.99204,0.05039
702.06329,0.05030
700.13455,0.05006
698.20580,0.04971
696.27706,0.04968
694.34831,0.05006
692.41957,0.05008
690.49082,0.04950
688.56207,0.04885
686.63333,0.04833
684.70458,0.04812
682.77584,0.04832
680.84709,0.04836
678.91835,0.04788
676.98960,0.04733
675.06086,0.04714
673.13211,0.04717
671.20337,0.04725
669.27462,0.04744
667.34588,0.04751
665.41713,0.04743
663.48839,0.04750
661.55964,0.04754
659.63090,0.04745
657.70215,0.04753
655.77340,0.04779
653.84466,0.04779
651.91591,0.04711
649.98717,0.04626
648.05842,0.04597
646.12968,0.04620
644.20093,0.04665
642.27219,0.04705
640.34344,0.04711
638.41470,0.04680
636.48595,0.04644
634.55721,0.04588
632.62846,0.04514
630.69972,0.04528
628.77097,0.04644
626.84222,0.04723
624.91348,0.04706
622.98473,0.04646
621.05599,0.04552
619.12724,0.04434
617.19850,0.04373
615.26975,0.04409
613.34101,0.04511
611.41226,0.04580
609.48352,0.04586
607.55477,0.04578
605.62603,0.04554
603.69728,0.04569
601.76854,0.04637
599.83979,0.04625
