7497.03301,0.39873
7495.10426,0.40580
7493.17552,0.40975
7491.24677,0.40852
7489.31803,0.40401
7487.38928,0.39851
7485.46054,0.39556
7483.53179,0.39721
7481.60305,0.40138
7479.67430,0.40540
7477.74556,0.40624
7475.81681,0.40441
7473.88807,0.40304
7471.95932,0.40181
7470.03057,0.40079
7468.10183,0.39973
7466.17308,0.39599
7464.24434,0.39095
7462.31559,0.39009
7460.38685,0.39436
7458.45810,0.39814
7456.52936,0.39835
7454.60061,0.39762
7452.67187,0.39826
7450.74312,0.39960
7448.81438,0.39927
7446.88563,0.39574
7444.95689,0.39176
7443.02814,0.39062
7441.09940,0.39139
7439.17065,0.39191
7437.24190,0.39267
7435.31316,0.39426
7433.38441,0.39524
7431.45567,0.39589
7429.52692,0.39619
7427.59818,0.39475
7425.66943,0.39405
7423.74069,0.39566
7421.81194,0.39741
7419.88320,0.39822
7417.95445,0.39726
7416.02571,0.39293
7414.09696,0.38713
7412.16822,0.38474
7410.23947,0.38719
7408.31073,0.39195
7406.38198,0.39644
7404.45323,0.39867
7402.52449,0.39739
7400.59574,0.39589
7398.66700,0.39828
7396.73825,0.39986
7394.80951,0.39592
7392.88076,0.39108
7390.95202,0.39095
7389.02327,0.39435
7387.09453,0.39479
7385.16578,0.39156
7383.23704,0.39042
7381.30829,0.39289
7379.37955,0.39590
7377.45080,0.39612
7375.52205,0.39264
7373.59331,0.38773
7371.66456,0.38507
7369.73582,0.38648
7367.80707,0.38999
7365.87833,0.39288
7363.94958,0.39458
7362.02084,0.39524
7360.09209,0.39510
7358.16335,0.39355
7356.23460,0.39012
7354.30586,0.38873
7352.37711,0.39167
7350.44837,0.39336
7348.51962,0.39295
7346.59088,0.39565
7344.66213,0.39882
7342.73338,0.39673
7340.80464,0.39210
7338.87589,0.39020
7336.94715,0.39025
7335.01840,0.38894
7333.08966,0.38669
7331.16091,0.38710
7329.23217,0.38991
7327.30342,0.38992
7325.37468,0.38671
7323.44593,0.38426
7321.51719,0.38378
7319.58844,0.38503
7317.65970,0.38656
7315.73095,0.38565
7313.80221,0.38406
7311.87346,0.38513
7309.94471,0.38603
7308.01597,0.38477
7306.08722,0.38523
7304.15848,0.38715
7302.22973,0.38831
7300.30099,0.39186
7298.37224,0.39622
7296.44350,0.39438
7294.51475,0.38757
7292.58601,0.38130
7290.65726,0.37814
7288.72852,0.38040
7286.79977,0.38614
7284.87103,0.38838
7282.94228,0.38577
7281.01353,0.38362
7279.08479,0.38503
7277.15604,0.38711
7275.22730,0.38639
7273.29855,0.38604
7271.36981,0.38930
7269.44106,0.39193
7267.51232,0.38961
7265.58357,0.38493
7263.65483,0.38296
7261.72608,0.38375
7259.79734,0.38620
7257.86859,0.39071
7255.93985,0.39460
7254.01110,0.39532
7252.08236,0.39412
7250.15361,0.39475
7248.22486,0.39775
7246.29612,0.39843
7244.36737,0.39678
7242.43863,0.39651
7240.50988,0.39330
7238.58114,0.38437
7236.65239,0.37868
7234.72365,0.37945
7232.79490,0.38036
7230.86616,0.38067
7228.93741,0.38239
7227.00867,0.38333
7225.07992,0.38251
7223.15118,0.38185
7221.22243,0.37978
7219.29369,0.37440
7217.36494,0.37116
7215.43619,0.37294
7213.50745,0.37482
7211.57870,0.37484
7209.64996,0.37552
7207.72121,0.37698
7205.79247,0.37766
7203.86372,0.37797
7201.93498,0.37845
7200.00623,0.37803
7198.07749,0.37567
7196.14874,0.37228
7194.22000,0.37098
7192.29125,0.37234
7190.36251,0.37332
7188.43376,0.37341
7186.50501,0.37413
7184.57627,0.37509
7182.64752,0.37458
7180.71878,0.37150
7178.79003,0.36940
7176.86129,0.37170
7174.93254,0.37462
7173.00380,0.37534
7171.07505,0.37572
7169.14631,0.37620
7167.21756,0.37519
7165.28882,0.37210
7163.36007,0.36947
7161.43133,0.36992
7159.50258,0.37247
7157.57384,0.37531
7155.64509,0.37886
7153.71634,0.38091
7151.78760,0.37777
7149.85885,0.37335
7147.93011,0.37273
7146.00136,0.37394
7144.07262,0.37354
7142.14387,0.37099
7140.21513,0.36846
7138.28638,0.36931
7136.35764,0.37415
7134.42889,0.37930
7132.50015,0.38092
7130.57140,0.37846
7128.64266,0.37389
7126.71391,0.36967
7124.78516,0.36775
7122.85642,0.36940
7120.92767,0.37267
7118.99893,0.37336
7117.07018,0.37081
7115.14144,0.36839
7113.21269,0.36829
7111.28395,0.36840
7109.35520,0.36635
7107.42646,0.36310
7105.49771,0.36086
7103.56897,0.36179
7101.64022,0.36584
7099.71148,0.36873
7097.78273,0.36839
7095.85399,0.36766
7093.92524,0.36687
7091.99649,0.36502
7090.06775,0.36400
7088.13900,0.36386
7086.21026,0.36439
7084.28151,0.36559
7082.35277,0.36418
7080.42402,0.36053
7078.49528,0.35941
7076.56653,0.36157
7074.63779,0.36355
7072.70904,0.36147
7070.78030,0.35665
7068.85155,0.35557
7066.92281,0.35803
7064.99406,0.35788
7063.06532,0.35509
7061.13657,0.35382
7059.20782,0.35400
7057.27908,0.35290
7055.35033,0.35074
7053.42159,0.34979
7051.49284,0.34984
7049.56410,0.34962
7047.63535,0.35006
7045.70661,0.35143
7043.77786,0.35192
7041.84912,0.35090
7039.92037,0.34875
7037.99163,0.34622
7036.06288,0.34478
7034.13414,0.34407
7032.20539,0.34340
7030.27664,0.34395
7028.34790,0.34519
7026.41915,0.34558
7024.49041,0.34597
7022.56166,0.34621
7020.63292,0.34566
7018.70417,0.34519
7016.77543,0.34375
7014.84668,0.34111
7012.91794,0.34089
7010.98919,0.34384
7009.06045,0.34558
7007.13170,0.34330
7005.20296,0.33891
7003.27421,0.33718
7001.34547,0.33991
6999.41672,0.34189
6997.48797,0.34005
6995.55923,0.33839
6993.63048,0.33905
6991.70174,0.33979
6989.77299,0.33919
6987.84425,0.33871
6985.91550,0.33902
6983.98676,0.33750
6982.05801,0.33447
6980.12927,0.33298
6978.20052,0.33288
6976.27178,0.33389
6974.34303,0.33561
6972.41429,0.33620
6970.48554,0.33692
6968.55680,0.33813
6966.62805,0.33662
6964.69930,0.33340
6962.77056,0.33323
6960.84181,0.33644
6958.91307,0.33827
6956.98432,0.33684
6955.05558,0.33576
6953.12683,0.33583
6951.19809,0.33442
6949.26934,0.33273
6947.34060,0.33370
6945.41185,0.33726
6943.48311,0.34010
6941.55436,0.33976
6939.62562,0.33666
6937.69687,0.33286
6935.76812,0.33245
6933.83938,0.33541
6931.91063,0.33641
6929.98189,0.33445
6928.05314,0.33248
6926.12440,0.33126
6924.19565,0.32983
6922.26691,0.32996
6920.33816,0.33349
6918.40942,0.33676
6916.48067,0.33742
6914.55193,0.33725
6912.62318,0.33628
6910.69444,0.33470
6908.76569,0.33464
6906.83695,0.33574
6904.90820,0.33596
6902.97945,0.33618
6901.05071,0.33734
6899.12196,0.33776
6897.19322,0.33662
6895.26447,0.33559
6893.33573,0.33587
6891.40698,0.33719
6889.47824,0.33923
6887.54949,0.34008
6885.62075,0.33819
6883.69200,0.33553
6881.76326,0.33378
6879.83451,0.33249
6877.90577,0.33179
6875.97702,0.33185
6874.04828,0.33109
6872.11953,0.32998
6870.19078,0.33123
6868.26204,0.33387
6866.33329,0.33492
6864.40455,0.33501
6862.47580,0.33546
6860.54706,0.33442
6858.61831,0.33217
6856.68957,0.33130
6854.76082,0.33118
6852.83208,0.33108
6850.90333,0.33151
6848.97459,0.33152
6847.04584,0.33141
6845.11710,0.33229
6843.18835,0.33314
6841.25960,0.33349
6839.33086,0.33371
6837.40211,0.33193
6835.47337,0.32856
6833.54462,0.32839
6831.61588,0.33264
6829.68713,0.33647
6827.75839,0.33647
6825.82964,0.33451
6823.90090,0.33328
6821.97215,0.33340
6820.04341,0.33405
6818.11466,0.33421
6816.18592,0.33408
6814.25717,0.33395
6812.32843,0.33364
6810.39968,0.33356
6808.47093,0.33380
6806.54219,0.33414
6804.61344,0.33528
6802.68470,0.33537
6800.75595,0.33290
6798.82721,0.33138
6796.89846,0.33213
6794.96972,0.33340
6793.04097,0.33534
6791.11223,0.33701
6789.18348,0.33675
6787.25474,0.33557
6785.32599,0.33607
6783.39725,0.33842
6781.46850,0.33964
6779.53975,0.33829
6777.61101,0.33675
6775.68226,0.33654
6773.75352,0.33597
6771.82477,0.33505
6769.89603,0.33467
6767.96728,0.33341
6766.03854,0.33175
6764.10979,0.33217
6762.18105,0.33470
6760.25230,0.33676
6758.32356,0.33690
6756.39481,0.33547
6754.46607,0.33339
6752.53732,0.33282
6750.60858,0.33504
6748.67983,0.33752
6746.75108,0.33676
6744.82234,0.33424
6742.89359,0.33496
6740.96485,0.33893
6739.03610,0.34155
6737.10736,0.34116
6735.17861,0.34017
6733.24987,0.34119
6731.32112,0.34403
6729.39238,0.34507
6727.46363,0.34204
6725.53489,0.33795
6723.60614,0.33641
6721.67740,0.33656
6719.74865,0.33588
6717.81991,0.33495
6715.89116,0.33594
6713.96241,0.33830
6712.03367,0.34048
6710.10492,0.34230
6708.17618,0.34293
6706.24743,0.34207
6704.31869,0.34098
6702.38994,0.33930
6700.46120,0.33686
6698.53245,0.33543
6696.60371,0.33583
6694.67496,0.33704
6692.74622,0.33774
6690.81747,0.33889
6688.88873,0.34138
6686.95998,0.34279
6685.03123,0.34198
6683.10249,0.33988
6681.17374,0.33798
6679.24500,0.33726
6677.31625,0.33673
6675.38751,0.33721
6673.45876,0.33899
6671.53002,0.33936
6669.60127,0.33873
6667.67253,0.33932
6665.74378,0.34148
6663.81504,0.34448
6661.88629,0.34581
6659.95755,0.34439
6658.02880,0.34305
6656.10006,0.34388
6654.17131,0.34518
6652.24256,0.34499
6650.31382,0.34405
6648.38507,0.34271
6646.45633,0.34022
6644.52758,0.33809
6642.59884,0.33836
6640.67009,0.34108
6638.74135,0.34524
6636.81260,0.34763
6634.88386,0.34610
6632.95511,0.34424
6631.02637,0.34453
6629.09762,0.34471
6627.16888,0.34489
6625.24013,0.34590
6623.31139,0.34545
6621.38264,0.34315
6619.45389,0.34166
6617.52515,0.34222
6615.59640,0.34344
6613.66766,0.34414
6611.73891,0.34480
6609.81017,0.34493
6607.88142,0.34415
6605.95268,0.34482
6604.02393,0.34688
6602.09519,0.34659
6600.16644,0.34428
6598.23770,0.34295
6596.30895,0.34323
6594.38021,0.34494
6592.45146,0.34604
6590.52271,0.34466
6588.59397,0.34398
6586.66522,0.34544
6584.73648,0.34605
6582.80773,0.34631
6580.87899,0.34786
6578.95024,0.34940
6577.02150,0.35013
6575.09275,0.34994
6573.16401,0.34955
6571.23526,0.35068
6569.30652,0.35308
6567.37777,0.35453
6565.44903,0.35317
6563.52028,0.34923
6561.59154,0.34579
6559.66279,0.34619
6557.73404,0.34822
6555.80530,0.34683
6553.87655,0.34367
6551.94781,0.34390
6550.01906,0.34653
6548.09032,0.34768
6546.16157,0.34794
6544.23283,0.34898
6542.30408,0.34956
6540.37534,0.34873
6538.44659,0.34735
6536.51785,0.34643
6534.58910,0.34694
6532.66036,0.34919
6530.73161,0.35127
6528.80287,0.35103
6526.87412,0.34964
6524.94537,0.34926
6523.01663,0.34946
6521.08788,0.34875
6519.15914,0.34779
6517.23039,0.34805
6515.30165,0.34932
6513.37290,0.35056
6511.44416,0.35148
6509.51541,0.35305
6507.58667,0.35481
6505.65792,0.35439
6503.72918,0.35239
6501.80043,0.35168
6499.87169,0.35174
6497.94294,0.35023
6496.01419,0.34793
6494.08545,0.34709
6492.15670,0.34759
6490.22796,0.34754
6488.29921,0.34682
6486.37047,0.34683
6484.44172,0.34672
6482.51298,0.34569
6480.58423,0.34546
6478.65549,0.34734
6476.72674,0.34966
6474.79800,0.34929
6472.86925,0.34781
6470.94051,0.34861
6469.01176,0.35009
6467.08302,0.35079
6465.15427,0.35168
6463.22552,0.35242
6461.29678,0.35261
6459.36803,0.35255
6457.43929,0.35230
6455.51054,0.35168
6453.58180,0.35049
6451.65305,0.34971
6449.72431,0.35087
6447.79556,0.35287
6445.86682,0.35318
6443.93807,0.35177
6442.00933,0.35070
6440.08058,0.35083
6438.15184,0.35136
6436.22309,0.35143
6434.29434,0.35059
6432.36560,0.34945
6430.43685,0.34914
6428.50811,0.34977
6426.57936,0.35144
6424.65062,0.35341
6422.72187,0.35393
6420.79313,0.35367
6418.86438,0.35441
6416.93564,0.35504
6415.00689,0.35368
6413.07815,0.35130
6411.14940,0.35031
6409.22066,0.35155
6407.29191,0.35389
6405.36317,0.35513
6403.43442,0.35396
6401.50567,0.35215
6399.57693,0.35235
6397.64818,0.35357
6395.71944,0.35296
6393.79069,0.35091
6391.86195,0.34996
6389.93320,0.35056
6388.00446,0.35182
6386.07571,0.35310
6384.14697,0.35310
6382.21822,0.35198
6380.28948,0.35172
6378.36073,0.35172
6376.43199,0.35087
6374.50324,0.35041
6372.57450,0.35043
6370.64575,0.35034
6368.71700,0.35066
6366.78826,0.35174
6364.85951,0.35321
6362.93077,0.35357
6361.00202,0.35201
6359.07328,0.35038
6357.14453,0.35002
6355.21579,0.35019
6353.28704,0.35024
6351.35830,0.35083
6349.42955,0.35210
6347.50081,0.35235
6345.57206,0.35192
6343.64332,0.35286
6341.71457,0.35383
6339.78582,0.35295
6337.85708,0.35203
6335.92833,0.35256
6333.99959,0.35361
6332.07084,0.35421
6330.14210,0.35350
6328.21335,0.35247
6326.28461,0.35291
6324.35586,0.35383
6322.42712,0.35361
6320.49837,0.35229
6318.56963,0.35101
6316.64088,0.35079
6314.71214,0.35125
6312.78339,0.35130
6310.85465,0.35058
6308.92590,0.35046
6306.99715,0.35182
6305.06841,0.35376
6303.13966,0.35553
6301.21092,0.35681
6299.28217,0.35707
6297.35343,0.35585
6295.42468,0.35426
6293.49594,0.35438
6291.56719,0.35557
6289.63845,0.35585
6287.70970,0.35578
6285.78096,0.35590
6283.85221,0.35498
6281.92347,0.35449
6279.99472,0.35653
6278.06598,0.35881
6276.13723,0.35845
6274.20848,0.35609
6272.27974,0.35402
6270.35099,0.35387
6268.42225,0.35551
6266.49350,0.35732
6264.56476,0.35837
6262.63601,0.35921
6260.70727,0.36008
6258.77852,0.36012
6256.84978,0.35946
6254.92103,0.35944
6252.99229,0.35976
6251.06354,0.35918
6249.13480,0.35804
6247.20605,0.35762
6245.27730,0.35848
6243.34856,0.35967
6241.41981,0.36014
6239.49107,0.36013
6237.56232,0.35987
6235.63358,0.35960
6233.70483,0.35964
6231.77609,0.35967
6229.84734,0.35979
6227.91860,0.36105
6225.98985,0.36248
6224.06111,0.36226
6222.13236,0.36153
6220.20362,0.36158
6218.27487,0.36128
6216.34613,0.36047
6214.41738,0.36034
6212.48863,0.36048
6210.55989,0.36082
6208.63114,0.36258
6206.70240,0.36438
6204.77365,0.36448
6202.84491,0.36348
6200.91616,0.36155
6198.98742,0.35911
6197.05867,0.35772
6195.12993,0.35804
6193.20118,0.35941
6191.27244,0.36099
6189.34369,0.36239
6187.41495,0.36307
6185.48620,0.36296
6183.55746,0.36313
6181.62871,0.36390
6179.69996,0.36411
6177.77122,0.36305
6175.84247,0.36191
6173.91373,0.36200
6171.98498,0.36311
6170.05624,0.36400
6168.12749,0.36373
6166.19875,0.36257
6164.27000,0.36155
6162.34126,0.36147
6160.41251,0.36204
6158.48377,0.36242
6156.55502,0.36268
6154.62628,0.36294
6152.69753,0.36313
6150.76878,0.36374
6148.84004,0.36398
6146.91129,0.36313
6144.98255,0.36279
6143.05380,0.36316
6141.12506,0.36321
6139.19631,0.36296
6137.26757,0.36227
6135.33882,0.36222
6133.41008,0.36401
6131.48133,0.36622
6129.55259,0.36707
6127.62384,0.36627
6125.69510,0.36448
6123.76635,0.36335
6121.83761,0.36360
6119.90886,0.36401
6117.98011,0.36421
6116.05137,0.36402
6114.12262,0.36338
6112.19388,0.36429
6110.26513,0.36624
6108.33639,0.36605
6106.40764,0.36427
6104.47890,0.36419
6102.55015,0.36639
6100.62141,0.36765
6098.69266,0.36645
6096.76392,0.36528
6094.83517,0.36557
6092.90643,0.36627
6090.97768,0.36670
6089.04893,0.36707
6087.12019,0.36772
6085.19144,0.36885
6083.26270,0.36960
6081.33395,0.36847
6079.40521,0.36628
6077.47646,0.36511
6075.54772,0.36501
6073.61897,0.36489
6071.69023,0.36432
6069.76148,0.36363
6067.83274,0.36303
6065.90399,0.36240
6063.97525,0.36191
6062.04650,0.36136
6060.11776,0.36103
6058.18901,0.36172
6056.26026,0.36271
6054.33152,0.36358
6052.40277,0.36442
6050.47403,0.36391
6048.54528,0.36209
6046.61654,0.36162
6044.68779,0.36306
6042.75905,0.36376
6040.83030,0.36292
6038.90156,0.36214
6036.97281,0.36197
6035.04407,0.36250
6033.11532,0.36375
6031.18658,0.36438
6029.25783,0.36392
6027.32909,0.36346
6025.40034,0.36301
6023.47159,0.36246
6021.54285,0.36194
6019.61410,0.36070
6017.68536,0.35914
6015.75661,0.35825
6013.82787,0.35773
6011.89912,0.35782
6009.97038,0.35909
6008.04163,0.36050
6006.11289,0.36067
6004.18414,0.35944
6002.25540,0.35790
6000.32665,0.35795
5998.39791,0.36002
5996.46916,0.36200
5994.54041,0.36201
5992.61167,0.36075
5990.68292,0.35900
5988.75418,0.35679
5986.82543,0.35550
5984.89669,0.35559
5982.96794,0.35618
5981.03920,0.35731
5979.11045,0.35806
5977.18171,0.35737
5975.25296,0.35633
5973.32422,0.35630
5971.39547,0.35693
5969.46673,0.35727
5967.53798,0.35727
5965.60924,0.35673
5963.68049,0.35542
5961.75174,0.35424
5959.82300,0.35391
5957.89425,0.35404
5955.96551,0.35402
5954.03676,0.35386
5952.10802,0.35356
5950.17927,0.35296
5948.25053,0.35258
5946.32178,0.35283
5944.39304,0.35348
5942.46429,0.35335
5940.53555,0.35152
5938.60680,0.34969
5936.67806,0.34955
5934.74931,0.34957
5932.82057,0.34880
5930.89182,0.34836
5928.96307,0.34835
5927.03433,0.34842
5925.10558,0.34880
5923.17684,0.34903
5921.24809,0.34897
5919.31935,0.34887
5917.39060,0.34826
5915.46186,0.34651
5913.53311,0.34436
5911.60437,0.34380
5909.67562,0.34464
5907.74688,0.34488
5905.81813,0.34442
5903.88939,0.34412
5901.96064,0.34369
5900.03189,0.34307
5898.10315,0.34311
5896.17440,0.34358
5894.24566,0.34396
5892.31691,0.34405
5890.38817,0.34320
5888.45942,0.34178
5886.53068,0.34128
5884.60193,0.34195
5882.67319,0.34198
5880.74444,0.34005
5878.81570,0.33793
5876.88695,0.33716
5874.95821,0.33651
5873.02946,0.33503
5871.10072,0.33378
5869.17197,0.33330
5867.24322,0.33298
5865.31448,0.33256
5863.38573,0.33201
5861.45699,0.33112
5859.52824,0.32958
5857.59950,0.32767
5855.67075,0.32603
5853.74201,0.32452
5851.81326,0.32317
5849.88452,0.32251
5847.95577,0.32227
5846.02703,0.32163
5844.09828,0.32062
5842.16954,0.32007
5840.24079,0.31967
5838.31205,0.31789
5836.38330,0.31539
5834.45455,0.31371
5832.52581,0.31237
5830.59706,0.31150
5828.66832,0.31155
5826.73957,0.31118
5824.81083,0.30985
5822.88208,0.30854
5820.95334,0.30779
5819.02459,0.30699
5817.09585,0.30559
5815.16710,0.30455
5813.23836,0.30405
5811.30961,0.30249
5809.38087,0.29992
5807.45212,0.29758
5805.52337,0.29579
5803.59463,0.29499
5801.66588,0.29513
5799.73714,0.29507
5797.80839,0.29391
5795.87965,0.29133
5793.95090,0.28837
5792.02216,0.28669
5790.09341,0.28597
5788.16467,0.28443
5786.23592,0.28199
5784.30718,0.27979
5782.37843,0.27751
5780.44969,0.27482
5778.52094,0.27298
5776.59220,0.27220
5774.66345,0.27205
5772.73470,0.27343
5770.80596,0.27625
5768.87721,0.27929
5766.94847,0.28248
5765.01972,0.28560
5763.09098,0.28826
5761.16223,0.29078
5759.23349,0.29338
5757.30474,0.29617
5755.37600,0.29868
5753.44725,0.30042
5751.51851,0.30235
5749.58976,0.30504
5747.66102,0.30772
5745.73227,0.30998
5743.80352,0.31123
5741.87478,0.31171
5739.94603,0.31303
5738.01729,0.31496
5736.08854,0.31567
5734.15980,0.31512
5732.23105,0.31485
5730.30231,0.31595
5728.37356,0.31801
5726.44482,0.31947
5724.51607,0.31974
5722.58733,0.32022
5720.65858,0.32175
5718.72984,0.32334
5716.80109,0.32398
5714.87235,0.32407
5712.94360,0.32432
5711.01485,0.32449
5709.08611,0.32419
5707.15736,0.32372
5705.22862,0.32320
5703.29987,0.32222
5701.37113,0.32051
5699.44238,0.31855
5697.51364,0.31750
5695.58489,0.31793
5693.65615,0.31878
5691.72740,0.31870
5689.79866,0.31767
5687.86991,0.31599
5685.94117,0.31430
5684.01242,0.31356
5682.08368,0.31337
5680.15493,0.31279
5678.22618,0.31178
5676.29744,0.31031
5674.36869,0.30853
5672.43995,0.30686
5670.51120,0.30546
5668.58246,0.30434
5666.65371,0.30323
5664.72497,0.30197
5662.79622,0.30106
5660.86748,0.30137
5658.93873,0.30313
5657.00999,0.30590
5655.08124,0.30908
5653.15250,0.31160
5651.22375,0.31284
5649.29500,0.31420
5647.36626,0.31662
5645.43751,0.31875
5643.50877,0.31995
5641.58002,0.32112
5639.65128,0.32213
5637.72253,0.32229
5635.79379,0.32189
5633.86504,0.32125
5631.93630,0.32086
5630.00755,0.32161
5628.07881,0.32290
5626.15006,0.32317
5624.22132,0.32295
5622.29257,0.32346
5620.36383,0.32434
5618.43508,0.32494
5616.50633,0.32512
5614.57759,0.32517
5612.64884,0.32525
5610.72010,0.32514
5608.79135,0.32522
5606.86261,0.32590
5604.93386,0.32654
5603.00512,0.32658
5601.07637,0.32649
5599.14763,0.32656
5597.21888,0.32635
5595.29014,0.32612
5593.36139,0.32641
5591.43265,0.32704
5589.50390,0.32744
5587.57516,0.32705
5585.64641,0.32667
5583.71766,0.32741
5581.78892,0.32824
5579.86017,0.32789
5577.93143,0.32706
5576.00268,0.32642
5574.07394,0.32554
5572.14519,0.32494
5570.21645,0.32543
5568.28770,0.32601
5566.35896,0.32599
5564.43021,0.32597
5562.50147,0.32555
5560.57272,0.32455
5558.64398,0.32418
5556.71523,0.32464
5554.78648,0.32532
5552.85774,0.32578
5550.92899,0.32573
5549.00025,0.32550
5547.07150,0.32522
5545.14276,0.32504
5543.21401,0.32535
5541.28527,0.32573
5539.35652,0.32595
5537.42778,0.32599
5535.49903,0.32578
5533.57029,0.32620
5531.64154,0.32742
5529.71280,0.32833
5527.78405,0.32839
5525.85531,0.32789
5523.92656,0.32714
5521.99781,0.32654
5520.06907,0.32666
5518.14032,0.32730
5516.21158,0.32746
5514.28283,0.32724
5512.35409,0.32763
5510.42534,0.32806
5508.49660,0.32746
5506.56785,0.32655
5504.63911,0.32620
5502.71036,0.32643
5500.78162,0.32680
5498.85287,0.32699
5496.92413,0.32738
5494.99538,0.32772
5493.06664,0.32755
5491.13789,0.32736
5489.20914,0.32730
5487.28040,0.32717
5485.35165,0.32713
5483.42291,0.32719
5481.49416,0.32728
5479.56542,0.32761
5477.63667,0.32792
5475.70793,0.32730
5473.77918,0.32619
5471.85044,0.32613
5469.92169,0.32679
5467.99295,0.32701
5466.06420,0.32709
5464.13546,0.32745
5462.20671,0.32824
5460.27796,0.32958
5458.34922,0.33051
5456.42047,0.33030
5454.49173,0.32984
5452.56298,0.32984
5450.63424,0.32961
5448.70549,0.32913
5446.77675,0.32933
5444.84800,0.33027
5442.91926,0.33105
5440.99051,0.33100
5439.06177,0.33049
5437.13302,0.33055
5435.20428,0.33117
5433.27553,0.33124
5431.34679,0.33070
5429.41804,0.33065
5427.48929,0.33132
5425.56055,0.33206
5423.63180,0.33283
5421.70306,0.33372
5419.77431,0.33423
5417.84557,0.33428
5415.91682,0.33444
5413.98808,0.33485
5412.05933,0.33508
5410.13059,0.33492
5408.20184,0.33478
5406.27310,0.33471
5404.34435,0.33450
5402.41561,0.33437
5400.48686,0.33466
5398.55811,0.33582
5396.62937,0.33741
5394.70062,0.33792
5392.77188,0.33709
5390.84313,0.33617
5388.91439,0.33569
5386.98564,0.33553
5385.05690,0.33588
5383.12815,0.33649
5381.19941,0.33718
5379.27066,0.33804
5377.34192,0.33860
5375.41317,0.33864
5373.48443,0.33865
5371.55568,0.33869
5369.62694,0.33836
5367.69819,0.33806
5365.76944,0.33842
5363.84070,0.33891
5361.91195,0.33935
5359.98321,0.34004
5358.05446,0.34036
5356.12572,0.33988
5354.19697,0.33910
5352.26823,0.33863
5350.33948,0.33871
5348.41074,0.33923
5346.48199,0.33976
5344.55325,0.33955
5342.62450,0.33893
5340.69576,0.33905
5338.76701,0.33967
5336.83827,0.33965
5334.90952,0.33909
5332.98077,0.33907
5331.05203,0.33979
5329.12328,0.33984
5327.19454,0.33887
5325.26579,0.33793
5323.33705,0.33692
5321.40830,0.33561
5319.47956,0.33472
5317.55081,0.33445
5315.62207,0.33394
5313.69332,0.33274
5311.76458,0.33187
5309.83583,0.33181
5307.90709,0.33149
5305.97834,0.33075
5304.04959,0.33022
5302.12085,0.32968
5300.19210,0.32869
5298.26336,0.32758
5296.33461,0.32677
5294.40587,0.32616
5292.47712,0.32558
5290.54838,0.32484
5288.61963,0.32331
5286.69089,0.32088
5284.76214,0.31879
5282.83340,0.31797
5280.90465,0.31781
5278.97591,0.31716
5277.04716,0.31561
5275.11842,0.31392
5273.18967,0.31267
5271.26092,0.31075
5269.33218,0.30782
5267.40343,0.30558
5265.47469,0.30440
5263.54594,0.30278
5261.61720,0.30037
5259.68845,0.29833
5257.75971,0.29724
5255.83096,0.29664
5253.90222,0.29565
5251.97347,0.29378
5250.04473,0.29163
5248.11598,0.29016
5246.18724,0.28936
5244.25849,0.28816
5242.32975,0.28629
5240.40100,0.28491
5238.47225,0.28423
5236.54351,0.28346
5234.61476,0.28249
5232.68602,0.28131
5230.75727,0.27968
5228.82853,0.27825
5226.89978,0.27765
5224.97104,0.27720
5223.04229,0.27638
5221.11355,0.27559
5219.18480,0.27506
5217.25606,0.27461
5215.32731,0.27419
5213.39857,0.27384
5211.46982,0.27320
5209.54107,0.27199
5207.61233,0.27095
5205.68358,0.27087
5203.75484,0.27160
5201.82609,0.27264
5199.89735,0.27328
5197.96860,0.27318
5196.03986,0.27250
5194.11111,0.27147
5192.18237,0.27084
5190.25362,0.27104
5188.32488,0.27113
5186.39613,0.27095
5184.46739,0.27129
5182.53864,0.27207
5180.60990,0.27292
5178.68115,0.27359
5176.75240,0.27375
5174.82366,0.27352
5172.89491,0.27330
5170.96617,0.27362
5169.03742,0.27435
5167.10868,0.27452
5165.17993,0.27431
5163.25119,0.27479
5161.32244,0.27590
5159.39370,0.27681
5157.46495,0.27709
5155.53621,0.27691
5153.60746,0.27700
5151.67872,0.27781
5149.74997,0.27878
5147.82123,0.27926
5145.89248,0.27968
5143.96373,0.28080
5142.03499,0.28217
5140.10624,0.28294
5138.17750,0.28321
5136.24875,0.28352
5134.32001,0.28402
5132.39126,0.28461
5130.46252,0.28529
5128.53377,0.28601
5126.60503,0.28630
5124.67628,0.28616
5122.74754,0.28609
5120.81879,0.28604
5118.89005,0.28596
5116.96130,0.28654
5115.03255,0.28775
5113.10381,0.28872
5111.17506,0.28921
5109.24632,0.28948
5107.31757,0.28981
5105.38883,0.29007
5103.46008,0.28992
5101.53134,0.28997
5099.60259,0.29089
5097.67385,0.29210
5095.74510,0.29286
5093.81636,0.29326
5091.88761,0.29342
5089.95887,0.29335
5088.03012,0.29336
5086.10138,0.29336
5084.17263,0.29342
5082.24388,0.29412
5080.31514,0.29502
5078.38639,0.29531
5076.45765,0.29536
5074.52890,0.29581
5072.60016,0.29645
5070.67141,0.29695
5068.74267,0.29761
5066.81392,0.29846
5064.88518,0.29886
5062.95643,0.29867
5061.02769,0.29855
5059.09894,0.29860
5057.17020,0.29853
5055.24145,0.29879
5053.31270,0.29979
5051.38396,0.30074
5049.45521,0.30101
5047.52647,0.30123
5045.59772,0.30167
5043.66898,0.30208
5041.74023,0.30259
5039.81149,0.30316
5037.88274,0.30352
5035.95400,0.30369
5034.02525,0.30384
5032.09651,0.30389
5030.16776,0.30391
5028.23902,0.30440
5026.31027,0.30546
5024.38153,0.30646
5022.45278,0.30678
5020.52403,0.30681
5018.59529,0.30693
5016.66654,0.30676
5014.73780,0.30617
5012.80905,0.30553
5010.88031,0.30521
5008.95156,0.30527
5007.02282,0.30526
5005.09407,0.30498
5003.16533,0.30480
5001.23658,0.30504
4999.30784,0.30534
4997.37909,0.30532
4995.45035,0.30552
4993.52160,0.30604
4991.59286,0.30602
4989.66411,0.30551
4987.73536,0.30503
4985.80662,0.30444
4983.87787,0.30399
4981.94913,0.30396
4980.02038,0.30381
4978.09164,0.30334
4976.16289,0.30295
4974.23415,0.30248
4972.30540,0.30185
4970.37666,0.30169
4968.44791,0.30190
4966.51917,0.30173
4964.59042,0.30126
4962.66168,0.30109
4960.73293,0.30108
4958.80418,0.30055
4956.87544,0.29979
4954.94669,0.29931
4953.01795,0.29875
4951.08920,0.29801
4949.16046,0.29749
4947.23171,0.29768
4945.30297,0.29843
4943.37422,0.29871
4941.44548,0.29802
4939.51673,0.29649
4937.58799,0.29496
4935.65924,0.29428
4933.73050,0.29387
4931.80175,0.29304
4929.87301,0.29205
4927.94426,0.29093
4926.01551,0.28964
4924.08677,0.28863
4922.15802,0.28801
4920.22928,0.28765
4918.30053,0.28756
4916.37179,0.28741
4914.44304,0.28682
4912.51430,0.28572
4910.58555,0.28418
4908.65681,0.28278
4906.72806,0.28177
4904.79932,0.28089
4902.87057,0.28042
4900.94183,0.28054
4899.01308,0.28035
4897.08434,0.27918
4895.15559,0.27769
4893.22684,0.27676
4891.29810,0.27638
4889.36935,0.27597
4887.44061,0.27538
4885.51186,0.27498
4883.58312,0.27453
4881.65437,0.27355
4879.72563,0.27252
4877.79688,0.27176
4875.86814,0.27092
4873.93939,0.27006
4872.01065,0.26907
4870.08190,0.26800
4868.15316,0.26756
4866.22441,0.26750
4864.29566,0.26708
4862.36692,0.26630
4860.43817,0.26567
4858.50943,0.26556
4856.58068,0.26540
4854.65194,0.26468
4852.72319,0.26423
4850.79445,0.26414
4848.86570,0.26342
4846.93696,0.26235
4845.00821,0.26184
4843.07947,0.26152
4841.15072,0.26080
4839.22198,0.26000
4837.29323,0.25950
4835.36449,0.25917
4833.43574,0.25893
4831.50699,0.25861
4829.57825,0.25814
4827.64950,0.25792
4825.72076,0.25772
4823.79201,0.25706
4821.86327,0.25635
4819.93452,0.25576
4818.00578,0.25516
4816.07703,0.25495
4814.14829,0.25493
4812.21954,0.25445
4810.29080,0.25403
4808.36205,0.25425
4806.43331,0.25440
4804.50456,0.25403
4802.57582,0.25348
4800.64707,0.25300
4798.71832,0.25289
4796.78958,0.25307
4794.86083,0.25289
4792.93209,0.25219
4791.00334,0.25140
4789.07460,0.25093
4787.14585,0.25112
4785.21711,0.25191
4783.28836,0.25250
4781.35962,0.25237
4779.43087,0.25187
4777.50213,0.25142
4775.57338,0.25125
4773.64464,0.25119
4771.71589,0.25093
4769.78714,0.25066
4767.85840,0.25051
4765.92965,0.25035
4764.00091,0.25013
4762.07216,0.24991
4760.14342,0.24975
4758.21467,0.24975
4756.28593,0.25016
4754.35718,0.25082
4752.42844,0.25100
4750.49969,0.25064
4748.57095,0.25040
4746.64220,0.25038
4744.71346,0.25029
4742.78471,0.25000
4740.85597,0.24973
4738.92722,0.24970
4736.99847,0.24989
4735.06973,0.25012
4733.14098,0.25004
4731.21224,0.24963
4729.28349,0.24931
4727.35475,0.24928
4725.42600,0.24969
4723.49726,0.25044
4721.56851,0.25097
4719.63977,0.25094
4717.71102,0.25065
4715.78228,0.25062
4713.85353,0.25092
4711.92479,0.25113
4709.99604,0.25131
4708.06729,0.25180
4706.13855,0.25220
4704.20980,0.25231
4702.28106,0.25245
4700.35231,0.25262
4698.42357,0.25254
4696.49482,0.25224
4694.56608,0.25213
4692.63733,0.25233
4690.70859,0.25246
4688.77984,0.25226
4686.85110,0.25207
4684.92235,0.25240
4682.99361,0.25311
4681.06486,0.25356
4679.13612,0.25384
4677.20737,0.25427
4675.27862,0.25466
4673.34988,0.25500
4671.42113,0.25545
4669.49239,0.25594
4667.56364,0.25629
4665.63490,0.25651
4663.70615,0.25674
4661.77741,0.25702
4659.84866,0.25747
4657.91992,0.25803
4655.99117,0.25841
4654.06243,0.25855
4652.13368,0.25856
4650.20494,0.25851
4648.27619,0.25873
4646.34745,0.25919
4644.41870,0.25957
4642.48995,0.26003
4640.56121,0.26081
4638.63246,0.26142
4636.70372,0.26162
4634.77497,0.26195
4632.84623,0.26260
4630.91748,0.26292
4628.98874,0.26249
4627.05999,0.26212
4625.13125,0.26257
4623.20250,0.26340
4621.27376,0.26399
4619.34501,0.26431
4617.41627,0.26469
4615.48752,0.26516
4613.55877,0.26566
4611.63003,0.26601
4609.70128,0.26594
4607.77254,0.26578
4605.84379,0.26589
4603.91505,0.26611
4601.98630,0.26630
4600.05756,0.26667
4598.12881,0.26733
4596.20007,0.26792
4594.27132,0.26805
4592.34258,0.26787
4590.41383,0.26818
4588.48509,0.26898
4586.55634,0.26929
4584.62760,0.26904
4582.69885,0.26905
4580.77010,0.26947
4578.84136,0.26977
4576.91261,0.26972
4574.98387,0.26967
4573.05512,0.26989
4571.12638,0.26994
4569.19763,0.26945
4567.26889,0.26911
4565.34014,0.26949
4563.41140,0.26994
4561.48265,0.26989
4559.55391,0.26988
4557.62516,0.27033
4555.69642,0.27080
4553.76767,0.27105
4551.83893,0.27130
4549.91018,0.27170
4547.98143,0.27182
4546.05269,0.27132
4544.12394,0.27102
4542.19520,0.27119
4540.26645,0.27115
4538.33771,0.27102
4536.40896,0.27098
4534.48022,0.27089
4532.55147,0.27097
4530.62273,0.27119
4528.69398,0.27128
4526.76524,0.27131
4524.83649,0.27128
4522.90775,0.27112
4520.97900,0.27104
4519.05025,0.27116
4517.12151,0.27121
4515.19276,0.27095
4513.26402,0.27047
4511.33527,0.27018
4509.40653,0.27012
4507.47778,0.26968
4505.54904,0.26878
4503.62029,0.26819
4501.69155,0.26812
4499.76280,0.26806
4497.83406,0.26773
4495.90531,0.26715
4493.97657,0.26635
4492.04782,0.26538
4490.11908,0.26424
4488.19033,0.26316
4486.26158,0.26259
4484.33284,0.26226
4482.40409,0.26133
4480.47535,0.25973
4478.54660,0.25806
4476.61786,0.25681
4474.68911,0.25612
4472.76037,0.25559
4470.83162,0.25455
4468.90288,0.25289
4466.97413,0.25128
4465.04539,0.25015
4463.11664,0.24910
4461.18790,0.24773
4459.25915,0.24618
4457.33041,0.24455
4455.40166,0.24297
4453.47291,0.24163
4451.54417,0.24054
4449.61542,0.23950
4447.68668,0.23822
4445.75793,0.23673
4443.82919,0.23531
4441.90044,0.23397
4439.97170,0.23266
4438.04295,0.23149
4436.11421,0.23035
4434.18546,0.22910
4432.25672,0.22799
4430.32797,0.22693
4428.39923,0.22568
4426.47048,0.22435
4424.54173,0.22300
4422.61299,0.22170
4420.68424,0.22071
4418.75550,0.22008
4416.82675,0.21927
4414.89801,0.21791
4412.96926,0.21656
4411.04052,0.21563
4409.11177,0.21476
4407.18303,0.21383
4405.25428,0.21312
4403.32554,0.21247
4401.39679,0.21144
4399.46805,0.21011
4397.53930,0.20942
4395.61056,0.20948
4393.68181,0.20924
4391.75306,0.20839
4389.82432,0.20781
4387.89557,0.20775
4385.96683,0.20751
4384.03808,0.20675
4382.10934,0.20590
4380.18059,0.20529
4378.25185,0.20489
4376.32310,0.20439
4374.39436,0.20394
4372.46561,0.20387
4370.53687,0.20371
4368.60812,0.20307
4366.67938,0.20250
4364.75063,0.20245
4362.82189,0.20247
4360.89314,0.20184
4358.96439,0.20058
4357.03565,0.19925
4355.10690,0.19785
4353.17816,0.19613
4351.24941,0.19438
4349.32067,0.19257
4347.39192,0.19029
4345.46318,0.18766
4343.53443,0.18525
4341.60569,0.18341
4339.67694,0.18201
4337.74820,0.18074
4335.81945,0.17927
4333.89071,0.17733
4331.96196,0.17516
4330.03321,0.17293
4328.10447,0.17028
4326.17572,0.16698
4324.24698,0.16382
4322.31823,0.16234
4320.38949,0.16370
4318.46074,0.16770
4316.53200,0.17301
4314.60325,0.17808
4312.67451,0.18232
4310.74576,0.18592
4308.81702,0.18877
4306.88827,0.19062
4304.95953,0.19164
4303.03078,0.19223
4301.10204,0.19260
4299.17329,0.19284
4297.24454,0.19296
4295.31580,0.19295
4293.38705,0.19284
4291.45831,0.19249
4289.52956,0.19189
4287.60082,0.19148
4285.67207,0.19148
4283.74333,0.19132
4281.81458,0.19075
4279.88584,0.19003
4277.95709,0.18934
4276.02835,0.18872
4274.09960,0.18812
4272.17086,0.18740
4270.24211,0.18661
4268.31336,0.18593
4266.38462,0.18511
4264.45587,0.18382
4262.52713,0.18200
4260.59838,0.17976
4258.66964,0.17712
4256.74089,0.17439
4254.81215,0.17217
4252.88340,0.17078
4250.95466,0.17058
4249.02591,0.17219
4247.09717,0.17539
4245.16842,0.17898
4243.23968,0.18197
4241.31093,0.18412
4239.38219,0.18548
4237.45344,0.18610
4235.52469,0.18632
4233.59595,0.18644
4231.66720,0.18628
4229.73846,0.18572
4227.80971,0.18515
4225.88097,0.18475
4223.95222,0.18419
4222.02348,0.18351
4220.09473,0.18304
4218.16599,0.18299
4216.23724,0.18327
4214.30850,0.18368
4212.37975,0.18391
4210.45101,0.18378
4208.52226,0.18351
4206.59352,0.18336
4204.66477,0.18308
4202.73602,0.18239
4200.80728,0.18135
4198.87853,0.18022
4196.94979,0.17942
4195.02104,0.17919
4193.09230,0.17923
4191.16355,0.17911
4189.23481,0.17897
4187.30606,0.17896
4185.37732,0.17895
4183.44857,0.17899
4181.51983,0.17921
4179.59108,0.17960
4177.66234,0.18000
4175.73359,0.18002
4173.80484,0.17981
4171.87610,0.17994
4169.94735,0.18031
4168.01861,0.18058
4166.08986,0.18078
4164.16112,0.18075
4162.23237,0.18041
4160.30363,0.17999
4158.37488,0.17956
4156.44614,0.17932
4154.51739,0.17957
4152.58865,0.17993
4150.65990,0.17990
4148.73116,0.17958
4146.80241,0.17931
4144.87367,0.17931
4142.94492,0.17950
4141.01617,0.17974
4139.08743,0.18029
4137.15868,0.18084
4135.22994,0.18055
4133.30119,0.17964
4131.37245,0.17889
4129.44370,0.17846
4127.51496,0.17829
4125.58621,0.17833
4123.65747,0.17835
4121.72872,0.17807
4119.79998,0.17758
4117.87123,0.17711
4115.94249,0.17679
4114.01374,0.17673
4112.08500,0.17664
4110.15625,0.17623
4108.22750,0.17581
4106.29876,0.17556
4104.37001,0.17523
4102.44127,0.17475
4100.51252,0.17422
4098.58378,0.17367
4096.65503,0.17324
4094.72629,0.17310
4092.79754,0.17318
4090.86880,0.17336
4088.94005,0.17361
4087.01131,0.17386
4085.08256,0.17408
4083.15382,0.17419
4081.22507,0.17411
4079.29632,0.17410
4077.36758,0.17422
4075.43883,0.17403
4073.51009,0.17354
4071.58134,0.17336
4069.65260,0.17355
4067.72385,0.17350
4065.79511,0.17288
4063.86636,0.17210
4061.93762,0.17151
4060.00887,0.17104
4058.08013,0.17070
4056.15138,0.17053
4054.22264,0.17031
4052.29389,0.17000
4050.36515,0.16981
4048.43640,0.16960
4046.50765,0.16920
4044.57891,0.16887
4042.65016,0.16876
4040.72142,0.16855
4038.79267,0.16822
4036.86393,0.16789
4034.93518,0.16754
4033.00644,0.16726
4031.07769,0.16706
4029.14895,0.16680
4027.22020,0.16641
4025.29146,0.16608
4023.36271,0.16595
4021.43397,0.16581
4019.50522,0.16562
4017.57648,0.16585
4015.64773,0.16658
4013.71898,0.16706
4011.79024,0.16701
4009.86149,0.16701
4007.93275,0.16753
4006.00400,0.16830
4004.07526,0.16886
4002.14651,0.16900
4000.21777,0.16883
3998.28902,0.16868
3996.36028,0.16875
3994.43153,0.16892
3992.50279,0.16905
3990.57404,0.16915
3988.64530,0.16922
3986.71655,0.16931
3984.78780,0.16944
3982.85906,0.16955
3980.93031,0.16962
3979.00157,0.16969
3977.07282,0.16998
3975.14408,0.17038
3973.21533,0.17049
3971.28659,0.17055
3969.35784,0.17099
3967.42910,0.17145
3965.50035,0.17161
3963.57161,0.17177
3961.64286,0.17218
3959.71412,0.17268
3957.78537,0.17320
3955.85663,0.17365
3953.92788,0.17381
3951.99913,0.17376
3950.07039,0.17387
3948.14164,0.17432
3946.21290,0.17486
3944.28415,0.17512
3942.35541,0.17517
3940.42666,0.17519
3938.49792,0.17512
3936.56917,0.17507
3934.64043,0.17535
3932.71168,0.17559
3930.78294,0.17553
3928.85419,0.17565
3926.92545,0.17608
3924.99670,0.17647
3923.06795,0.17673
3921.13921,0.17704
3919.21046,0.17730
3917.28172,0.17736
3915.35297,0.17734
3913.42423,0.17743
3911.49548,0.17766
3909.56674,0.17787
3907.63799,0.17795
3905.70925,0.17816
3903.78050,0.17849
3901.85176,0.17867
3899.92301,0.17900
3897.99427,0.17963
3896.06552,0.18029
3894.13678,0.18082
3892.20803,0.18106
3890.27928,0.18087
3888.35054,0.18073
3886.42179,0.18099
3884.49305,0.18139
3882.56430,0.18163
3880.63556,0.18175
3878.70681,0.18190
3876.77807,0.18222
3874.84932,0.18264
3872.92058,0.18296
3870.99183,0.18316
3869.06309,0.18348
3867.13434,0.18397
3865.20560,0.18439
3863.27685,0.18475
3861.34811,0.18531
3859.41936,0.18599
3857.49061,0.18642
3855.56187,0.18661
3853.63312,0.18708
3851.70438,0.18785
3849.77563,0.18833
3847.84689,0.18845
3845.91814,0.18837
3843.98940,0.18832
3842.06065,0.18861
3840.13191,0.18898
3838.20316,0.18902
3836.27442,0.18909
3834.34567,0.18947
3832.41693,0.18976
3830.48818,0.18963
3828.55943,0.18925
3826.63069,0.18898
3824.70194,0.18906
3822.77320,0.18939
3820.84445,0.18956
3818.91571,0.18939
3816.98696,0.18908
3815.05822,0.18891
3813.12947,0.18899
3811.20073,0.18917
3809.27198,0.18949
3807.34324,0.19007
3805.41449,0.19074
3803.48575,0.19119
3801.55700,0.19126
3799.62826,0.19092
3797.69951,0.19046
3795.77076,0.19019
3793.84202,0.19026
3791.91327,0.19050
3789.98453,0.19075
3788.05578,0.19086
3786.12704,0.19064
3784.19829,0.19011
3782.26955,0.18966
3780.34080,0.18960
3778.41206,0.18971
3776.48331,0.18956
3774.55457,0.18922
3772.62582,0.18889
3770.69708,0.18864
3768.76833,0.18857
3766.83959,0.18858
3764.91084,0.18838
3762.98209,0.18820
3761.05335,0.18835
3759.12460,0.18842
3757.19586,0.18797
3755.26711,0.18736
3753.33837,0.18698
3751.40962,0.18649
3749.48088,0.18598
3747.55213,0.18594
3745.62339,0.18597
3743.69464,0.18569
3741.76590,0.18526
3739.83715,0.18479
3737.90841,0.18424
3735.97966,0.18370
3734.05091,0.18328
3732.12217,0.18275
3730.19342,0.18198
3728.26468,0.18099
3726.33593,0.17996
3724.40719,0.17922
3722.47844,0.17869
3720.54970,0.17815
3718.62095,0.17755
3716.69221,0.17692
3714.76346,0.17607
3712.83472,0.17481
3710.90597,0.17333
3708.97723,0.17189
3707.04848,0.17059
3705.11974,0.16959
3703.19099,0.16873
3701.26224,0.16753
3699.33350,0.16592
3697.40475,0.16440
3695.47601,0.16313
3693.54726,0.16181
3691.61852,0.16025
3689.68977,0.15841
3687.76103,0.15638
3685.83228,0.15454
3683.90354,0.15282
3681.97479,0.15081
3680.04605,0.14850
3678.11730,0.14622
3676.18856,0.14403
3674.25981,0.14193
3672.33107,0.13978
3670.40232,0.13745
3668.47357,0.13534
3666.54483,0.13359
3664.61608,0.13178
3662.68734,0.12991
3660.75859,0.12804
3658.82985,0.12612
3656.90110,0.12424
3654.97236,0.12248
3653.04361,0.12078
3651.11487,0.11909
3649.18612,0.11735
3647.25738,0.11554
3645.32863,0.11389
3643.39989,0.11259
3641.47114,0.11145
3639.54239,0.11016
3637.61365,0.10882
3635.68490,0.10762
3633.75616,0.10652
3631.82741,0.10541
3629.89867,0.10413
3627.96992,0.10269
3626.04118,0.10165
3624.11243,0.10095
3622.18369,0.09996
3620.25494,0.09847
3618.32620,0.09689
3616.39745,0.09583
3614.46871,0.09532
3612.53996,0.09469
3610.61122,0.09348
3608.68247,0.09197
3606.75372,0.09068
3604.82498,0.08954
3602.89623,0.08838
3600.96749,0.08742
3599.03874,0.08679
3597.11000,0.08631
3595.18125,0.08581
3593.25251,0.08523
3591.32376,0.08453
3589.39502,0.08379
3587.46627,0.08306
3585.53753,0.08232
3583.60878,0.08153
3581.68004,0.08071
3579.75129,0.07993
3577.82254,0.07919
3575.89380,0.07842
3573.96505,0.07768
3572.03631,0.07710
3570.10756,0.07647
3568.17882,0.07555
3566.25007,0.07476
3564.32133,0.07438
3562.39258,0.07414
3560.46384,0.07383
3558.53509,0.07339
3556.60635,0.07286
3554.67760,0.07236
3552.74886,0.07189
3550.82011,0.07149
3548.89137,0.07116
3546.96262,0.07076
3545.03387,0.07009
3543.10513,0.06929
3541.17638,0.06885
3539.24764,0.06881
3537.31889,0.06881
3535.39015,0.06869
3533.46140,0.06831
3531.53266,0.06766
3529.60391,0.06702
3527.67517,0.06654
3525.74642,0.06613
3523.81768,0.06569
3521.88893,0.06533
3519.96019,0.06528
3518.03144,0.06548
3516.10270,0.06552
3514.17395,0.06518
3512.24520,0.06470
3510.31646,0.06442
3508.38771,0.06432
3506.45897,0.06396
3504.53022,0.06341
3502.60148,0.06306
3500.67273,0.06270
3498.74399,0.06223
3496.81524,0.06190
3494.88650,0.06188
3492.95775,0.06204
3491.02901,0.06207
3489.10026,0.06183
3487.17152,0.06144
3485.24277,0.06106
3483.31402,0.06078
3481.38528,0.06065
3479.45653,0.06078
3477.52779,0.06088
3475.59904,0.06070
3473.67030,0.06040
3471.74155,0.06013
3469.81281,0.06006
3467.88406,0.06014
3465.95532,0.06007
3464.02657,0.05992
3462.09783,0.05986
3460.16908,0.05986
3458.24034,0.05971
3456.31159,0.05934
3454.38285,0.05898
3452.45410,0.05882
3450.52535,0.05884
3448.59661,0.05897
3446.66786,0.05908
3444.73912,0.05889
3442.81037,0.05857
3440.88163,0.05844
3438.95288,0.05836
3437.02414,0.05811
3435.09539,0.05790
3433.16665,0.05787
3431.23790,0.05786
3429.30916,0.05792
3427.38041,0.05808
3425.45167,0.05805
3423.52292,0.05783
3421.59418,0.05767
3419.66543,0.05756
3417.73668,0.05771
3415.80794,0.05827
3413.87919,0.05877
3411.95045,0.05872
3410.02170,0.05844
3408.09296,0.05853
3406.16421,0.05876
3404.23547,0.05859
3402.30672,0.05799
3400.37798,0.05751
3398.44923,0.05752
3396.52049,0.05774
3394.59174,0.05780
3392.66300,0.05785
3390.73425,0.05808
3388.80550,0.05820
3386.87676,0.05797
3384.94801,0.05770
3383.01927,0.05757
3381.09052,0.05742
3379.16178,0.05727
3377.23303,0.05734
3375.30429,0.05766
3373.37554,0.05806
3371.44680,0.05841
3369.51805,0.05853
3367.58931,0.05828
3365.66056,0.05776
3363.73182,0.05738
3361.80307,0.05745
3359.87433,0.05759
3357.94558,0.05757
3356.01683,0.05784
3354.08809,0.05823
3352.15934,0.05831
3350.23060,0.05829
3348.30185,0.05825
3346.37311,0.05815
3344.44436,0.05813
3342.51562,0.05805
3340.58687,0.05794
3338.65813,0.05822
3336.72938,0.05866
3334.80064,0.05882
3332.87189,0.05892
3330.94315,0.05921
3329.01440,0.05947
3327.08566,0.05954
3325.15691,0.05948
3323.22816,0.05929
3321.29942,0.05917
3319.37067,0.05933
3317.44193,0.05964
3315.51318,0.05989
3313.58444,0.05998
3311.65569,0.05996
3309.72695,0.06007
3307.79820,0.06028
3305.86946,0.06043
3303.94071,0.06044
3302.01197,0.06042
3300.08322,0.06055
3298.15448,0.06056
3296.22573,0.06022
3294.29698,0.06018
3292.36824,0.06081
3290.43949,0.06148
3288.51075,0.06184
3286.58200,0.06204
3284.65326,0.06196
3282.72451,0.06179
3280.79577,0.06187
3278.86702,0.06217
3276.93828,0.06248
3275.00953,0.06274
3273.08079,0.06295
3271.15204,0.06317
3269.22330,0.06338
3267.29455,0.06352
3265.36581,0.06367
3263.43706,0.06377
3261.50831,0.06393
3259.57957,0.06422
3257.65082,0.06450
3255.72208,0.06474
3253.79333,0.06484
3251.86459,0.06476
3249.93584,0.06486
3248.00710,0.06534
3246.07835,0.06585
3244.14961,0.06595
3242.22086,0.06583
3240.29212,0.06626
3238.36337,0.06720
3236.43463,0.06766
3234.50588,0.06746
3232.57713,0.06732
3230.64839,0.06745
3228.71964,0.06772
3226.79090,0.06818
3224.86215,0.06858
3222.93341,0.06861
3221.00466,0.06851
3219.07592,0.06865
3217.14717,0.06894
3215.21843,0.06924
3213.28968,0.06969
3211.36094,0.07020
3209.43219,0.07025
3207.50345,0.07002
3205.57470,0.07025
3203.64596,0.07111
3201.71721,0.07184
3199.78846,0.07194
3197.85972,0.07188
3195.93097,0.07218
3194.00223,0.07271
3192.07348,0.07312
3190.14474,0.07340
3188.21599,0.07355
3186.28725,0.07346
3184.35850,0.07345
3182.42976,0.07368
3180.50101,0.07382
3178.57227,0.07380
3176.64352,0.07383
3174.71478,0.07413
3172.78603,0.07461
3170.85729,0.07499
3168.92854,0.07523
3166.99979,0.07548
3165.07105,0.07589
3163.14230,0.07648
3161.21356,0.07689
3159.28481,0.07713
3157.35607,0.07760
3155.42732,0.07807
3153.49858,0.07815
3151.56983,0.07818
3149.64109,0.07833
3147.71234,0.07839
3145.78360,0.07830
3143.85485,0.07825
3141.92611,0.07833
3139.99736,0.07865
3138.06861,0.07923
3136.13987,0.07999
3134.21112,0.08073
3132.28238,0.08118
3130.35363,0.08130
3128.42489,0.08129
3126.49614,0.08124
3124.56740,0.08134
3122.63865,0.08164
3120.70991,0.08191
3118.78116,0.08199
3116.85242,0.08199
3114.92367,0.08199
3112.99493,0.08197
3111.06618,0.08187
3109.13744,0.08190
3107.20869,0.08237
3105.27994,0.08304
3103.35120,0.08350
3101.42245,0.08362
3099.49371,0.08355
3097.56496,0.08359
3095.63622,0.08382
3093.70747,0.08399
3091.77873,0.08407
3089.84998,0.08425
3087.92124,0.08444
3085.99249,0.08443
3084.06375,0.08426
3082.13500,0.08407
3080.20626,0.08402
3078.27751,0.08413
3076.34877,0.08425
3074.42002,0.08432
3072.49127,0.08443
3070.56253,0.08470
3068.63378,0.08515
3066.70504,0.08554
3064.77629,0.08559
3062.84755,0.08542
3060.91880,0.08525
3058.99006,0.08511
3057.06131,0.08505
3055.13257,0.08504
3053.20382,0.08498
3051.27508,0.08511
3049.34633,0.08549
3047.41759,0.08589
3045.48884,0.08606
3043.56009,0.08586
3041.63135,0.08551
3039.70260,0.08530
3037.77386,0.08513
3035.84511,0.08489
3033.91637,0.08465
3031.98762,0.08451
3030.05888,0.08446
3028.13013,0.08442
3026.20139,0.08418
3024.27264,0.08374
3022.34390,0.08319
3020.41515,0.08267
3018.48641,0.08233
3016.55766,0.08204
3014.62892,0.08163
3012.70017,0.08115
3010.77142,0.08056
3008.84268,0.07987
3006.91393,0.07923
3004.98519,0.07859
3003.05644,0.07776
3001.12770,0.07704
2999.19895,0.07671
2997.27021,0.07643
2995.34146,0.07599
2993.41272,0.07541
2991.48397,0.07452
2989.55523,0.07333
2987.62648,0.07210
2985.69774,0.07101
2983.76899,0.06994
2981.84025,0.06866
2979.91150,0.06722
2977.98275,0.06585
2976.05401,0.06446
2974.12526,0.06288
2972.19652,0.06118
2970.26777,0.05945
2968.33903,0.05787
2966.41028,0.05658
2964.48154,0.05552
2962.55279,0.05460
2960.62405,0.05371
2958.69530,0.05281
2956.76656,0.05191
2954.83781,0.05112
2952.90907,0.05053
2950.98032,0.05000
2949.05157,0.04933
2947.12283,0.04854
2945.19408,0.04758
2943.26534,0.04636
2941.33659,0.04515
2939.40785,0.04419
2937.47910,0.04323
2935.55036,0.04214
2933.62161,0.04137
2931.69287,0.04121
2929.76412,0.04137
2927.83538,0.04167
2925.90663,0.04233
2923.97789,0.04364
2922.04914,0.04564
2920.12040,0.04799
2918.19165,0.05026
2916.26290,0.05199
2914.33416,0.05300
2912.40541,0.05343
2910.47667,0.05337
2908.54792,0.05311
2906.61918,0.05306
2904.69043,0.05327
2902.76169,0.05343
2900.83294,0.05350
2898.90420,0.05375
2896.97545,0.05407
2895.04671,0.05429
2893.11796,0.05455
2891.18922,0.05486
2889.26047,0.05518
2887.33172,0.05556
2885.40298,0.05606
2883.47423,0.05667
2881.54549,0.05723
2879.61674,0.05749
2877.68800,0.05747
2875.75925,0.05724
2873.83051,0.05686
2871.90176,0.05655
2869.97302,0.05637
2868.04427,0.05605
2866.11553,0.05533
2864.18678,0.05421
2862.25804,0.05291
2860.32929,0.05159
2858.40055,0.05029
2856.47180,0.04919
2854.54305,0.04888
2852.61431,0.04974
2850.68556,0.05178
2848.75682,0.05475
2846.82807,0.05782
2844.89933,0.06036
2842.97058,0.06255
2841.04184,0.06477
2839.11309,0.06710
2837.18435,0.06933
2835.25560,0.07116
2833.32686,0.07253
2831.39811,0.07376
2829.46937,0.07513
2827.54062,0.07664
2825.61188,0.07813
2823.68313,0.07947
2821.75438,0.08065
2819.82564,0.08185
2817.89689,0.08295
2815.96815,0.08361
2814.03940,0.08405
2812.11066,0.08464
2810.18191,0.08530
2808.25317,0.08589
2806.32442,0.08647
2804.39568,0.08691
2802.46693,0.08714
2800.53819,0.08745
2798.60944,0.08801
2796.68070,0.08865
2794.75195,0.08926
2792.82320,0.08988
2790.89446,0.09041
2788.96571,0.09075
2787.03697,0.09113
2785.10822,0.09154
2783.17948,0.09182
2781.25073,0.09210
2779.32199,0.09258
2777.39324,0.09302
2775.46450,0.09325
2773.53575,0.09340
2771.60701,0.09363
2769.67826,0.09392
2767.74952,0.09419
2765.82077,0.09435
2763.89203,0.09448
2761.96328,0.09475
2760.03453,0.09500
2758.10579,0.09499
2756.17704,0.09490
2754.24830,0.09492
2752.31955,0.09510
2750.39081,0.09533
2748.46206,0.09546
2746.53332,0.09541
2744.60457,0.09527
2742.67583,0.09512
2740.74708,0.09499
2738.81834,0.09500
2736.88959,0.09522
2734.96085,0.09539
2733.03210,0.09536
2731.10336,0.09536
2729.17461,0.09540
2727.24586,0.09543
2725.31712,0.09568
2723.38837,0.09611
2721.45963,0.09643
2719.53088,0.09665
2717.60214,0.09677
2715.67339,0.09676
2713.74465,0.09687
2711.81590,0.09720
2709.88716,0.09748
2707.95841,0.09761
2706.02967,0.09776
2704.10092,0.09812
2702.17218,0.09866
2700.24343,0.09913
2698.31468,0.09939
2696.38594,0.09951
2694.45719,0.09955
2692.52845,0.09965
2690.59970,0.09980
2688.67096,0.09984
2686.74221,0.09985
2684.81347,0.09986
2682.88472,0.09980
2680.95598,0.09987
2679.02723,0.10009
2677.09849,0.10022
2675.16974,0.10017
2673.24100,0.10012
2671.31225,0.10017
2669.38351,0.10024
2667.45476,0.10033
2665.52601,0.10042
2663.59727,0.10039
2661.66852,0.10037
2659.73978,0.10045
2657.81103,0.10054
2655.88229,0.10055
2653.95354,0.10056
2652.02480,0.10067
2650.09605,0.10088
2648.16731,0.10112
2646.23856,0.10138
2644.30982,0.10155
2642.38107,0.10167
2640.45233,0.10184
2638.52358,0.10197
2636.59484,0.10212
2634.66609,0.10243
2632.73734,0.10271
2630.80860,0.10282
2628.87985,0.10299
2626.95111,0.10327
2625.02236,0.10358
2623.09362,0.10393
2621.16487,0.10427
2619.23613,0.10452
2617.30738,0.10484
2615.37864,0.10524
2613.44989,0.10559
2611.52115,0.10576
2609.59240,0.10591
2607.66366,0.10613
2605.73491,0.10634
2603.80616,0.10657
2601.87742,0.10689
2599.94867,0.10729
2598.01993,0.10767
2596.09118,0.10797
2594.16244,0.10821
2592.23369,0.10839
2590.30495,0.10850
2588.37620,0.10866
2586.44746,0.10889
2584.51871,0.10904
2582.58997,0.10911
2580.66122,0.10924
2578.73248,0.10936
2576.80373,0.10937
2574.87499,0.10942
2572.94624,0.10959
2571.01749,0.10982
2569.08875,0.11010
2567.16000,0.11044
2565.23126,0.11077
2563.30251,0.11090
2561.37377,0.11075
2559.44502,0.11064
2557.51628,0.11062
2555.58753,0.11059
2553.65879,0.11077
2551.73004,0.11120
2549.80130,0.11156
2547.87255,0.11167
2545.94381,0.11166
2544.01506,0.11173
2542.08631,0.11189
2540.15757,0.11206
2538.22882,0.11220
2536.30008,0.11224
2534.37133,0.11221
2532.44259,0.11221
2530.51384,0.11221
2528.58510,0.11224
2526.65635,0.11234
2524.72761,0.11254
2522.79886,0.11280
2520.87012,0.11307
2518.94137,0.11331
2517.01263,0.11354
2515.08388,0.11372
2513.15514,0.11382
2511.22639,0.11400
2509.29764,0.11447
2507.36890,0.11509
2505.44015,0.11560
2503.51141,0.11596
2501.58266,0.11608
2499.65392,0.11595
2497.72517,0.11590
2495.79643,0.11619
2493.86768,0.11669
2491.93894,0.11713
2490.01019,0.11745
2488.08145,0.11779
2486.15270,0.11800
2484.22396,0.11797
2482.29521,0.11793
2480.36647,0.11812
2478.43772,0.11845
2476.50897,0.11868
2474.58023,0.11882
2472.65148,0.11902
2470.72274,0.11923
2468.79399,0.11945
2466.86525,0.11984
2464.93650,0.12028
2463.00776,0.12059
2461.07901,0.12079
2459.15027,0.12093
2457.22152,0.12095
2455.29278,0.12103
2453.36403,0.12135
2451.43529,0.12170
2449.50654,0.12189
2447.57779,0.12203
2445.64905,0.12216
2443.72030,0.12229
2441.79156,0.12252
2439.86281,0.12290
2437.93407,0.12322
2436.00532,0.12331
2434.07658,0.12330
2432.14783,0.12333
2430.21909,0.12343
2428.29034,0.12370
2426.36160,0.12405
2424.43285,0.12430
2422.50411,0.12452
2420.57536,0.12482
2418.64662,0.12512
2416.71787,0.12535
2414.78912,0.12557
2412.86038,0.12573
2410.93163,0.12590
2409.00289,0.12631
2407.07414,0.12689
2405.14540,0.12739
2403.21665,0.12777
2401.28791,0.12803
2399.35916,0.12821
2397.43042,0.12844
2395.50167,0.12874
2393.57293,0.12908
2391.64418,0.12943
2389.71544,0.12969
2387.78669,0.12980
2385.85795,0.12989
2383.92920,0.13021
2382.00045,0.13067
2380.07171,0.13095
2378.14296,0.13104
2376.21422,0.13117
2374.28547,0.13134
2372.35673,0.13149
2370.42798,0.13161
2368.49924,0.13167
2366.57049,0.13175
2364.64175,0.13185
2362.71300,0.13185
2360.78426,0.13182
2358.85551,0.13180
2356.92677,0.13162
2354.99802,0.13131
2353.06927,0.13103
2351.14053,0.13079
2349.21178,0.13066
2347.28304,0.13067
2345.35429,0.13067
2343.42555,0.13060
2341.49680,0.13054
2339.56806,0.13061
2337.63931,0.13088
2335.71057,0.13116
2333.78182,0.13125
2331.85308,0.13121
2329.92433,0.13123
2327.99559,0.13137
2326.06684,0.13145
2324.13810,0.13149
2322.20935,0.13168
2320.28060,0.13199
2318.35186,0.13228
2316.42311,0.13252
2314.49437,0.13276
2312.56562,0.13291
2310.63688,0.13296
2308.70813,0.13302
2306.77939,0.13312
2304.85064,0.13316
2302.92190,0.13312
2300.99315,0.13310
2299.06441,0.13315
2297.13566,0.13313
2295.20692,0.13301
2293.27817,0.13290
2291.34943,0.13292
2289.42068,0.13308
2287.49193,0.13322
2285.56319,0.13333
2283.63444,0.13352
2281.70570,0.13353
2279.77695,0.13329
2277.84821,0.13300
2275.91946,0.13278
2273.99072,0.13261
2272.06197,0.13253
2270.13323,0.13253
2268.20448,0.13253
2266.27574,0.13240
2264.34699,0.13218
2262.41825,0.13205
2260.48950,0.13204
2258.56075,0.13201
2256.63201,0.13179
2254.70326,0.13141
2252.77452,0.13102
2250.84577,0.13069
2248.91703,0.13050
2246.98828,0.13044
2245.05954,0.13034
2243.13079,0.13007
2241.20205,0.12985
2239.27330,0.12988
2237.34456,0.13006
2235.41581,0.13017
2233.48707,0.13019
2231.55832,0.13035
2229.62958,0.13055
2227.70083,0.13049
2225.77208,0.13033
2223.84334,0.13036
2221.91459,0.13053
2219.98585,0.13068
2218.05710,0.13079
2216.12836,0.13081
2214.19961,0.13069
2212.27087,0.13053
2210.34212,0.13050
2208.41338,0.13059
2206.48463,0.13054
2204.55589,0.13023
2202.62714,0.12989
2200.69840,0.12969
2198.76965,0.12947
2196.84090,0.12913
2194.91216,0.12887
2192.98341,0.12861
2191.05467,0.12819
2189.12592,0.12764
2187.19718,0.12709
2185.26843,0.12652
2183.33969,0.12592
2181.41094,0.12538
2179.48220,0.12498
2177.55345,0.12468
2175.62471,0.12431
2173.69596,0.12379
2171.76722,0.12327
2169.83847,0.12287
2167.90973,0.12253
2165.98098,0.12212
2164.05223,0.12160
2162.12349,0.12105
2160.19474,0.12054
2158.26600,0.12006
2156.33725,0.11966
2154.40851,0.11943
2152.47976,0.11931
2150.55102,0.11917
2148.62227,0.11905
2146.69353,0.11891
2144.76478,0.11867
2142.83604,0.11850
2140.90729,0.11833
2138.97855,0.11805
2137.04980,0.11796
2135.12106,0.11807
2133.19231,0.11816
2131.26356,0.11821
2129.33482,0.11838
2127.40607,0.11864
2125.47733,0.11875
2123.54858,0.11873
2121.61984,0.11882
2119.69109,0.11897
2117.76235,0.11898
2115.83360,0.11900
2113.90486,0.11913
2111.97611,0.11913
2110.04737,0.11903
2108.11862,0.11905
2106.18988,0.11925
2104.26113,0.11946
2102.33238,0.11958
2100.40364,0.11979
2098.47489,0.12011
2096.54615,0.12032
2094.61740,0.12047
2092.68866,0.12062
2090.75991,0.12070
2088.83117,0.12068
2086.90242,0.12062
2084.97368,0.12057
2083.04493,0.12051
2081.11619,0.12032
2079.18744,0.12009
2077.25870,0.11996
2075.32995,0.11986
2073.40121,0.11968
2071.47246,0.11952
2069.54371,0.11942
2067.61497,0.11941
2065.68622,0.11942
2063.75748,0.11924
2061.82873,0.11901
2059.89999,0.11894
2057.97124,0.11887
2056.04250,0.11866
2054.11375,0.11847
2052.18501,0.11848
2050.25626,0.11856
2048.32752,0.11865
2046.39877,0.11886
2044.47003,0.11912
2042.54128,0.11918
2040.61254,0.11903
2038.68379,0.11893
2036.75504,0.11895
2034.82630,0.11901
2032.89755,0.11912
2030.96881,0.11921
2029.04006,0.11926
2027.11132,0.11932
2025.18257,0.11945
2023.25383,0.11964
2021.32508,0.11978
2019.39634,0.11984
2017.46759,0.12004
2015.53885,0.12060
2013.61010,0.12147
2011.68136,0.12235
2009.75261,0.12305
2007.82386,0.12366
2005.89512,0.12428
2003.96637,0.12485
2002.03763,0.12530
2000.10888,0.12557
1998.18014,0.12579
1996.25139,0.12605
1994.32265,0.12628
1992.39390,0.12643
1990.46516,0.12658
1988.53641,0.12670
1986.60767,0.12674
1984.67892,0.12677
1982.75018,0.12686
1980.82143,0.12690
1978.89269,0.12676
1976.96394,0.12660
1975.03519,0.12658
1973.10645,0.12657
1971.17770,0.12645
1969.24896,0.12632
1967.32021,0.12612
1965.39147,0.12580
1963.46272,0.12555
1961.53398,0.12551
1959.60523,0.12547
1957.67649,0.12524
1955.74774,0.12495
1953.81900,0.12485
1951.89025,0.12485
1949.96151,0.12490
1948.03276,0.12511
1946.10402,0.12544
1944.17527,0.12583
1942.24652,0.12616
1940.31778,0.12633
1938.38903,0.12639
1936.46029,0.12652
1934.53154,0.12690
1932.60280,0.12749
1930.67405,0.12802
1928.74531,0.12830
1926.81656,0.12855
1924.88782,0.12888
1922.95907,0.12908
1921.03033,0.12908
1919.10158,0.12898
1917.17284,0.12890
1915.24409,0.12887
1913.31534,0.12884
1911.38660,0.12888
1909.45785,0.12904
1907.52911,0.12911
1905.60036,0.12896
1903.67162,0.12871
1901.74287,0.12836
1899.81413,0.12789
1897.88538,0.12754
1895.95664,0.12757
1894.02789,0.12787
1892.09915,0.12820
1890.17040,0.12857
1888.24166,0.12895
1886.31291,0.12918
1884.38417,0.12934
1882.45542,0.12944
1880.52667,0.12944
1878.59793,0.12940
1876.66918,0.12934
1874.74044,0.12920
1872.81169,0.12909
1870.88295,0.12902
1868.95420,0.12884
1867.02546,0.12854
1865.09671,0.12826
1863.16797,0.12800
1861.23922,0.12775
1859.31048,0.12757
1857.38173,0.12740
1855.45299,0.12717
1853.52424,0.12684
1851.59549,0.12638
1849.66675,0.12585
1847.73800,0.12536
1845.80926,0.12489
1843.88051,0.12439
1841.95177,0.12387
1840.02302,0.12334
1838.09428,0.12280
1836.16553,0.12227
1834.23679,0.12162
1832.30804,0.12090
1830.37930,0.12021
1828.45055,0.11955
1826.52181,0.11882
1824.59306,0.11797
1822.66432,0.11718
1820.73557,0.11649
1818.80682,0.11579
1816.87808,0.11501
1814.94933,0.11409
1813.02059,0.11308
1811.09184,0.11213
1809.16310,0.11127
1807.23435,0.11037
1805.30561,0.10934
1803.37686,0.10820
1801.44812,0.10690
1799.51937,0.10541
1797.59063,0.10393
1795.66188,0.10261
1793.73314,0.10139
1791.80439,0.10017
1789.87565,0.09897
1787.94690,0.09766
1786.01815,0.09617
1784.08941,0.09460
1782.16066,0.09291
1780.23192,0.09088
1778.30317,0.08858
1776.37443,0.08638
1774.44568,0.08425
1772.51694,0.08175
1770.58819,0.07897
1768.65945,0.07625
1766.73070,0.07364
1764.80196,0.07127
1762.87321,0.06908
1760.94447,0.06694
1759.01572,0.06512
1757.08697,0.06362
1755.15823,0.06225
1753.22948,0.06098
1751.30074,0.05979
1749.37199,0.05888
1747.44325,0.05818
1745.51450,0.05755
1743.58576,0.05713
1741.65701,0.05697
1739.72827,0.05704
1737.79952,0.05732
1735.87078,0.05771
1733.94203,0.05819
1732.01329,0.05870
1730.08454,0.05919
1728.15580,0.05966
1726.22705,0.06018
1724.29830,0.06092
1722.36956,0.06188
1720.44081,0.06278
1718.51207,0.06340
1716.58332,0.06388
1714.65458,0.06448
1712.72583,0.06531
1710.79709,0.06623
1708.86834,0.06709
1706.93960,0.06794
1705.01085,0.06875
1703.08211,0.06934
1701.15336,0.06968
1699.22462,0.06981
1697.29587,0.06981
1695.36713,0.06982
1693.43838,0.06984
1691.50963,0.06982
1689.58089,0.06977
1687.65214,0.06973
1685.72340,0.06951
1683.79465,0.06882
1681.86591,0.06793
1679.93716,0.06717
1678.00842,0.06655
1676.07967,0.06598
1674.15093,0.06538
1672.22218,0.06482
1670.29344,0.06429
1668.36469,0.06385
1666.43595,0.06372
1664.50720,0.06378
1662.57845,0.06362
1660.64971,0.06329
1658.72096,0.06308
1656.79222,0.06305
1654.86347,0.06305
1652.93473,0.06299
1651.00598,0.06296
1649.07724,0.06299
1647.14849,0.06293
1645.21975,0.06283
1643.29100,0.06286
1641.36226,0.06296
1639.43351,0.06308
1637.50477,0.06303
1635.57602,0.06269
1633.64728,0.06242
1631.71853,0.06235
1629.78978,0.06231
1627.86104,0.06220
1625.93229,0.06191
1624.00355,0.06142
1622.07480,0.06103
1620.14606,0.06090
1618.21731,0.06085
1616.28857,0.06068
1614.35982,0.06029
1612.43108,0.05977
1610.50233,0.05929
1608.57359,0.05898
1606.64484,0.05870
1604.71610,0.05827
1602.78735,0.05770
1600.85861,0.05713
1598.92986,0.05671
1597.00111,0.05653
1595.07237,0.05658
1593.14362,0.05671
1591.21488,0.05699
1589.28613,0.05756
1587.35739,0.05841
1585.42864,0.05956
1583.49990,0.06092
1581.57115,0.06229
1579.64241,0.06355
1577.71366,0.06483
1575.78492,0.06621
1573.85617,0.06739
1571.92743,0.06836
1569.99868,0.06938
1568.06993,0.07026
1566.14119,0.07075
1564.21244,0.07112
1562.28370,0.07164
1560.35495,0.07217
1558.42621,0.07233
1556.49746,0.07213
1554.56872,0.07194
1552.63997,0.07184
1550.71123,0.07176
1548.78248,0.07168
1546.85374,0.07155
1544.92499,0.07132
1542.99625,0.07111
1541.06750,0.07089
1539.13876,0.07030
1537.21001,0.06968
1535.28126,0.06924
1533.35252,0.06853
1531.42377,0.06748
1529.49503,0.06650
1527.56628,0.06562
1525.63754,0.06465
1523.70879,0.06347
1521.78005,0.06188
1519.85130,0.06006
1517.92256,0.05855
1515.99381,0.05741
1514.06507,0.05662
1512.13632,0.05606
1510.20758,0.05564
1508.27883,0.05526
1506.35008,0.05484
1504.42134,0.05472
1502.49259,0.05497
1500.56385,0.05533
1498.63510,0.05573
1496.70636,0.05621
1494.77761,0.05676
1492.84887,0.05725
1490.92012,0.05750
1488.99138,0.05745
1487.06263,0.05708
1485.13389,0.05636
1483.20514,0.05539
1481.27640,0.05417
1479.34765,0.05250
1477.41891,0.05010
1475.49016,0.04719
1473.56141,0.04478
1471.63267,0.04358
1469.70392,0.04298
1467.77518,0.04247
1465.84643,0.04224
1463.91769,0.04269
1461.98894,0.04393
1460.06020,0.04543
1458.13145,0.04656
1456.20271,0.04738
1454.27396,0.04822
1452.34522,0.04890
1450.41647,0.04928
1448.48773,0.04944
1446.55898,0.04962
1444.63024,0.04987
1442.70149,0.05006
1440.77274,0.05022
1438.84400,0.05032
1436.91525,0.05026
1434.98651,0.05014
1433.05776,0.05006
1431.12902,0.05008
1429.20027,0.05023
1427.27153,0.05044
1425.34278,0.05070
1423.41404,0.05099
1421.48529,0.05123
1419.55655,0.05146
1417.62780,0.05176
1415.69906,0.05222
1413.77031,0.05280
1411.84156,0.05331
1409.91282,0.05355
1407.98407,0.05351
1406.05533,0.05338
1404.12658,0.05329
1402.19784,0.05331
1400.26909,0.05337
1398.34035,0.05323
1396.41160,0.05289
1394.48286,0.05256
1392.55411,0.05227
1390.62537,0.05185
1388.69662,0.05123
1386.76788,0.05058
1384.83913,0.04994
1382.91039,0.04926
1380.98164,0.04864
1379.05289,0.04815
1377.12415,0.04789
1375.19540,0.04802
1373.26666,0.04836
1371.33791,0.04867
1369.40917,0.04894
1367.48042,0.04911
1365.55168,0.04934
1363.62293,0.04979
1361.69419,0.05017
1359.76544,0.05030
1357.83670,0.05040
1355.90795,0.05051
1353.97921,0.05048
1352.05046,0.05036
1350.12172,0.05028
1348.19297,0.05023
1346.26422,0.05030
1344.33548,0.05033
1342.40673,0.05011
1340.47799,0.04986
1338.54924,0.04983
1336.62050,0.04984
1334.69175,0.04976
1332.76301,0.04978
1330.83426,0.04989
1328.90552,0.04988
1326.97677,0.04984
1325.04803,0.04987
1323.11928,0.04982
1321.19054,0.04970
1319.26179,0.04966
1317.33304,0.04982
1315.40430,0.05014
1313.47555,0.05038
1311.54681,0.05045
1309.61806,0.05044
1307.68932,0.05050
1305.76057,0.05067
1303.83183,0.05091
1301.90308,0.05108
1299.97434,0.05111
1298.04559,0.05102
1296.11685,0.05079
1294.18810,0.05045
1292.25936,0.05007
1290.33061,0.04968
1288.40187,0.04938
1286.47312,0.04927
1284.54437,0.04922
1282.61563,0.04916
1280.68688,0.04895
1278.75814,0.04852
1276.82939,0.04807
1274.90065,0.04774
1272.97190,0.04747
1271.04316,0.04709
1269.11441,0.04649
1267.18567,0.04568
1265.25692,0.04503
1263.32818,0.04489
1261.39943,0.04513
1259.47069,0.04545
1257.54194,0.04578
1255.61320,0.04606
1253.68445,0.04625
1251.75570,0.04645
1249.82696,0.04665
1247.89821,0.04682
1245.96947,0.04709
1244.04072,0.04740
1242.11198,0.04749
1240.18323,0.04733
1238.25449,0.04710
1236.32574,0.04703
1234.39700,0.04732
1232.46825,0.04782
1230.53951,0.04809
1228.61076,0.04804
1226.68202,0.04791
1224.75327,0.04789
1222.82452,0.04815
1220.89578,0.04850
1218.96703,0.04876
1217.03829,0.04908
1215.10954,0.04941
1213.18080,0.04955
1211.25205,0.04950
1209.32331,0.04933
1207.39456,0.04920
1205.46582,0.04923
1203.53707,0.04934
1201.60833,0.04945
1199.67958,0.04949
1197.75084,0.04929
1195.82209,0.04890
1193.89335,0.04853
1191.96460,0.04831
1190.03585,0.04833
1188.10711,0.04846
1186.17836,0.04831
1184.24962,0.04783
1182.32087,0.04735
1180.39213,0.04697
1178.46338,0.04655
1176.53464,0.04626
1174.60589,0.04604
1172.67715,0.04556
1170.74840,0.04498
1168.81966,0.04482
1166.89091,0.04517
1164.96217,0.04561
1163.03342,0.04582
1161.10467,0.04585
1159.17593,0.04590
1157.24718,0.04601
1155.31844,0.04603
1153.38969,0.04587
1151.46095,0.04556
1149.53220,0.04521
1147.60346,0.04486
1145.67471,0.04443
1143.74597,0.04400
1141.81722,0.04364
1139.88848,0.04327
1137.95973,0.04291
1136.03099,0.04246
1134.10224,0.04203
1132.17350,0.04211
1130.24475,0.04271
1128.31600,0.04325
1126.38726,0.04349
1124.45851,0.04353
1122.52977,0.04350
1120.60102,0.04354
1118.67228,0.04375
1116.74353,0.04389
1114.81479,0.04361
1112.88604,0.04316
1110.95730,0.04324
1109.02855,0.04380
1107.09981,0.04417
1105.17106,0.04422
1103.24232,0.04414
1101.31357,0.04383
1099.38483,0.04340
1097.45608,0.04325
1095.52733,0.04330
1093.59859,0.04335
1091.66984,0.04364
1089.74110,0.04406
1087.81235,0.04403
1085.88361,0.04366
1083.95486,0.04365
1082.02612,0.04426
1080.09737,0.04512
1078.16863,0.04572
1076.23988,0.04612
1074.31114,0.04671
1072.38239,0.04740
1070.45365,0.04792
1068.52490,0.04817
1066.59615,0.04845
1064.66741,0.04927
1062.73866,0.05053
1060.80992,0.05173
1058.88117,0.05266
1056.95243,0.05330
1055.02368,0.05375
1053.09494,0.05389
1051.16619,0.05334
1049.23745,0.05253
1047.30870,0.05244
1045.37996,0.05296
1043.45121,0.05331
1041.52247,0.05371
1039.59372,0.05454
1037.66498,0.05543
1035.73623,0.05608
1033.80748,0.05649
1031.87874,0.05661
1029.94999,0.05656
1028.02125,0.05643
1026.09250,0.05623
1024.16376,0.05618
1022.23501,0.05641
1020.30627,0.05677
1018.37752,0.05718
1016.44878,0.05763
1014.52003,0.05805
1012.59129,0.05844
1010.66254,0.05869
1008.73380,0.05870
1006.80505,0.05873
1004.87631,0.05907
1002.94756,0.05955
1001.01881,0.05977
999.09007,0.05977
997.16132,0.06000
995.23258,0.06049
993.30383,0.06095
991.37509,0.06138
989.44634,0.06178
987.51760,0.06205
985.58885,0.06247
983.66011,0.06310
981.73136,0.06371
979.80262,0.06414
977.87387,0.06434
975.94513,0.06449
974.01638,0.06475
972.08763,0.06500
970.15889,0.06530
968.23014,0.06568
966.30140,0.06608
964.37265,0.06649
962.44391,0.06705
960.51516,0.06793
958.58642,0.06883
956.65767,0.06936
954.72893,0.06961
952.80018,0.06975
950.87144,0.06992
948.94269,0.07030
947.01395,0.07084
945.08520,0.07134
943.15646,0.07156
941.22771,0.07135
939.29896,0.07083
937.37022,0.07033
935.44147,0.07003
933.51273,0.06986
931.58398,0.06976
929.65524,0.06960
927.72649,0.06941
925.79775,0.06931
923.86900,0.06911
921.94026,0.06875
920.01151,0.06829
918.08277,0.06750
916.15402,0.06655
914.22528,0.06604
912.29653,0.06587
910.36779,0.06544
908.43904,0.06449
906.51029,0.06343
904.58155,0.06282
902.65280,0.06258
900.72406,0.06227
898.79531,0.06204
896.86657,0.06211
894.93782,0.06235
893.00908,0.06276
891.08033,0.06330
889.15159,0.06374
887.22284,0.06418
885.29410,0.06469
883.36535,0.06493
881.43661,0.06491
879.50786,0.06489
877.57911,0.06492
875.65037,0.06497
873.72162,0.06499
871.79288,0.06509
869.86413,0.06530
867.93539,0.06541
866.00664,0.06538
864.07790,0.06537
862.14915,0.06541
860.22041,0.06528
858.29166,0.06500
856.36292,0.06488
854.43417,0.06493
852.50543,0.06503
850.57668,0.06492
848.64794,0.06421
846.71919,0.06326
844.79044,0.06306
842.86170,0.06348
840.93295,0.06341
839.00421,0.06238
837.07546,0.06134
835.14672,0.06127
833.21797,0.06163
831.28923,0.06148
829.36048,0.06083
827.43174,0.05997
825.50299,0.05930
823.57425,0.05909
821.64550,0.05913
819.71676,0.05889
817.78801,0.05827
815.85926,0.05769
813.93052,0.05742
812.00177,0.05721
810.07303,0.05678
808.14428,0.05622
806.21554,0.05581
804.28679,0.05566
802.35805,0.05583
800.42930,0.05627
798.50056,0.05665
796.57181,0.05692
794.64307,0.05755
792.71432,0.05869
790.78558,0.05985
788.85683,0.06060
786.92809,0.06090
784.99934,0.06096
783.07059,0.06076
781.14185,0.06012
779.21310,0.05934
777.28436,0.05872
775.35561,0.05811
773.42687,0.05757
771.49812,0.05762
769.56938,0.05800
767.64063,0.05789
765.71189,0.05757
763.78314,0.05755
761.85440,0.05715
759.92565,0.05621
757.99691,0.05553
756.06816,0.05529
754.13942,0.05499
752.21067,0.05427
750.28192,0.05329
748.35318,0.05276
746.42443,0.05294
744.49569,0.05318
742.56694,0.05299
740.63820,0.05242
738.70945,0.05172
736.78071,0.05102
734.85196,0.05017
732.92322,0.04903
730.99447,0.04826
729.06573,0.04833
727.13698,0.04852
725.20824,0.04817
723.27949,0.04742
721.35074,0.04699
719.42200,0.04753
717.49325,0.04869
715.56451,0.04949
713.63576,0.04969
711.70702,0.04967
709.77827,0.04982
707.84953,0.05035
705.92078,0.05101
703.99204,0.05123
702.06329,0.05064
700.13455,0.04973
698.20580,0.04950
696.27706,0.04990
694.34831,0.05000
692.41957,0.04958
690.49082,0.04910
688.56207,0.04880
686.63333,0.04865
684.70458,0.04854
682.77584,0.04859
680.84709,0.04875
678.91835,0.04863
676.98960,0.04807
675.06086,0.04744
673.13211,0.04705
671.20337,0.04669
669.27462,0.04651
667.34588,0.04686
665.41713,0.04741
663.48839,0.04771
661.55964,0.04754
659.63090,0.04693
657.70215,0.04638
655.77340,0.04635
653.84466,0.04673
651.91591,0.04709
649.98717,0.04696
648.05842,0.04645
646.12968,0.04658
644.20093,0.04747
642.27219,0.04789
640.34344,0.04722
638.41470,0.04594
636.48595,0.04481
634.55721,0.04438
632.62846,0.04520
630.69972,0.04685
628.77097,0.04763
626.84222,0.04666
624.91348,0.04538
622.98473,0.04528
621.05599,0.04566
619.12724,0.04580
617.19850,0.04611
615.26975,0.04633
613.34101,0.04608
611.41226,0.04628
609.48352,0.04646
607.55477,0.04476
605.62603,0.04260
603.69728,0.04225
601.76854,0.04277
599.83979,0.04298
