7497.03301,0.39806
7495.10426,0.39920
7493.17552,0.40088
7491.24677,0.40272
7489.31803,0.40310
7487.38928,0.40014
7485.46054,0.39687
7483.53179,0.39593
7481.60305,0.39657
7479.67430,0.39708
7477.74556,0.39805
7475.81681,0.40125
7473.88807,0.40340
7471.95932,0.40039
7470.03057,0.39614
7468.10183,0.39420
7466.17308,0.39390
7464.24434,0.39591
7462.31559,0.39740
7460.38685,0.39676
7458.45810,0.39783
7456.52936,0.39866
7454.60061,0.39368
7452.67187,0.38719
7450.74312,0.38768
7448.81438,0.39337
7446.88563,0.39724
7444.95689,0.39842
7443.02814,0.39885
7441.09940,0.39956
7439.17065,0.40042
7437.24190,0.39956
7435.31316,0.39737
7433.38441,0.39646
7431.45567,0.39592
7429.52692,0.39289
7427.59818,0.38878
7425.66943,0.38910
7423.74069,0.39428
7421.81194,0.39893
7419.88320,0.40017
7417.95445,0.39642
7416.02571,0.39073
7414.09696,0.39074
7412.16822,0.39564
7410.23947,0.39912
7408.31073,0.39821
7406.38198,0.39238
7404.45323,0.38515
7402.52449,0.38321
7400.59574,0.38810
7398.66700,0.39366
7396.73825,0.39599
7394.80951,0.39725
7392.88076,0.39727
7390.95202,0.39546
7389.02327,0.39531
7387.09453,0.39709
7385.16578,0.39681
7383.23704,0.39385
7381.30829,0.39226
7379.37955,0.39314
7377.45080,0.39202
7375.52205,0.38878
7373.59331,0.38728
7371.66456,0.38724
7369.73582,0.38761
7367.80707,0.38877
7365.87833,0.39082
7363.94958,0.39226
7362.02084,0.39069
7360.09209,0.38796
7358.16335,0.38714
7356.23460,0.38775
7354.30586,0.38968
7352.37711,0.39206
7350.44837,0.39246
7348.51962,0.39266
7346.59088,0.39428
7344.66213,0.39336
7342.73338,0.38953
7340.80464,0.38806
7338.87589,0.38825
7336.94715,0.38644
7335.01840,0.38623
7333.08966,0.38925
7331.16091,0.38998
7329.23217,0.38763
7327.30342,0.38705
7325.37468,0.38870
7323.44593,0.38737
7321.51719,0.38291
7319.58844,0.38298
7317.65970,0.39004
7315.73095,0.39650
7313.80221,0.39553
7311.87346,0.39027
7309.94471,0.38758
7308.01597,0.38721
7306.08722,0.38716
7304.15848,0.38891
7302.22973,0.39016
7300.30099,0.38692
7298.37224,0.38302
7296.44350,0.38426
7294.51475,0.38952
7292.58601,0.39303
7290.65726,0.39186
7288.72852,0.39077
7286.79977,0.39213
7284.87103,0.38922
7282.94228,0.38190
7281.01353,0.37925
7279.08479,0.38251
7277.15604,0.38422
7275.22730,0.38323
7273.29855,0.38392
7271.36981,0.38586
7269.44106,0.38631
7267.51232,0.38454
7265.58357,0.38238
7263.65483,0.38223
7261.72608,0.38324
7259.79734,0.38356
7257.86859,0.38359
7255.93985,0.38432
7254.01110,0.38375
7252.08236,0.38143
7250.15361,0.38217
7248.22486,0.38649
7246.29612,0.38860
7244.36737,0.38672
7242.43863,0.38469
7240.50988,0.38414
7238.58114,0.38387
7236.65239,0.38430
7234.72365,0.38499
7232.79490,0.38428
7230.86616,0.38319
7228.93741,0.38417
7227.00867,0.38684
7225.07992,0.38721
7223.15118,0.38470
7221.22243,0.38366
7219.29369,0.38439
7217.36494,0.38340
7215.43619,0.38066
7213.50745,0.37901
7211.57870,0.37831
7209.64996,0.37675
7207.72121,0.37647
7205.79247,0.37822
7203.86372,0.37797
7201.93498,0.37571
7200.00623,0.37604
7198.07749,0.37888
7196.14874,0.37911
7194.22000,0.37644
7192.29125,0.37402
7190.36251,0.37127
7188.43376,0.36909
7186.50501,0.36981
7184.57627,0.37242
7182.64752,0.37493
7180.71878,0.37551
7178.79003,0.37351
7176.86129,0.36912
7174.93254,0.36492
7173.00380,0.36493
7171.07505,0.36871
7169.14631,0.37270
7167.21756,0.37379
7165.28882,0.37277
7163.36007,0.37455
7161.43133,0.37841
7159.50258,0.37913
7157.57384,0.37718
7155.64509,0.37432
7153.71634,0.37019
7151.78760,0.36722
7149.85885,0.36708
7147.93011,0.36876
7146.00136,0.37092
7144.07262,0.37218
7142.14387,0.37277
7140.21513,0.37342
7138.28638,0.37358
7136.35764,0.37173
7134.42889,0.36896
7132.50015,0.36927
7130.57140,0.37131
7128.64266,0.37072
7126.71391,0.36872
7124.78516,0.36757
7122.85642,0.36608
7120.92767,0.36387
7118.99893,0.36315
7117.07018,0.36657
7115.14144,0.37214
7113.21269,0.37315
7111.28395,0.36954
7109.35520,0.36729
7107.42646,0.36728
7105.49771,0.36710
7103.56897,0.36566
7101.64022,0.36275
7099.71148,0.35985
7097.78273,0.35990
7095.85399,0.36330
7093.92524,0.36705
7091.99649,0.36812
7090.06775,0.36530
7088.13900,0.36231
7086.21026,0.36264
7084.28151,0.36257
7082.35277,0.35997
7080.42402,0.35836
7078.49528,0.35870
7076.56653,0.35833
7074.63779,0.35635
7072.70904,0.35605
7070.78030,0.35922
7068.85155,0.36079
7066.92281,0.35752
7064.99406,0.35370
7063.06532,0.35239
7061.13657,0.35283
7059.20782,0.35404
7057.27908,0.35492
7055.35033,0.35491
7053.42159,0.35383
7051.49284,0.35193
7049.56410,0.35087
7047.63535,0.35166
7045.70661,0.35271
7043.77786,0.35171
7041.84912,0.34912
7039.92037,0.34728
7037.99163,0.34704
7036.06288,0.34802
7034.13414,0.34927
7032.20539,0.34879
7030.27664,0.34668
7028.34790,0.34581
7026.41915,0.34546
7024.49041,0.34390
7022.56166,0.34410
7020.63292,0.34530
7018.70417,0.34284
7016.77543,0.34000
7014.84668,0.34172
7012.91794,0.34457
7010.98919,0.34445
7009.06045,0.34313
7007.13170,0.34203
7005.20296,0.33940
7003.27421,0.33597
7001.34547,0.33571
6999.41672,0.33946
6997.48797,0.34330
6995.55923,0.34391
6993.63048,0.34230
6991.70174,0.34035
6989.77299,0.33837
6987.84425,0.33754
6985.91550,0.33794
6983.98676,0.33747
6982.05801,0.33679
6980.12927,0.33795
6978.20052,0.33981
6976.27178,0.33928
6974.34303,0.33551
6972.41429,0.33216
6970.48554,0.33173
6968.55680,0.33228
6966.62805,0.33314
6964.69930,0.33459
6962.77056,0.33497
6960.84181,0.33353
6958.91307,0.33202
6956.98432,0.33238
6955.05558,0.33352
6953.12683,0.33225
6951.19809,0.32887
6949.26934,0.32638
6947.34060,0.32537
6945.41185,0.32601
6943.48311,0.32847
6941.55436,0.33050
6939.62562,0.33147
6937.69687,0.33262
6935.76812,0.33364
6933.83938,0.33397
6931.91063,0.33351
6929.98189,0.33240
6928.05314,0.33103
6926.12440,0.33015
6924.19565,0.33089
6922.26691,0.33201
6920.33816,0.33044
6918.40942,0.32776
6916.48067,0.32898
6914.55193,0.33342
6912.62318,0.33556
6910.69444,0.33443
6908.76569,0.33439
6906.83695,0.33608
6904.90820,0.33640
6902.97945,0.33527
6901.05071,0.33401
6899.12196,0.33371
6897.19322,0.33519
6895.26447,0.33748
6893.33573,0.33922
6891.40698,0.33938
6889.47824,0.33828
6887.54949,0.33706
6885.62075,0.33536
6883.69200,0.33305
6881.76326,0.33143
6879.83451,0.33106
6877.90577,0.33034
6875.97702,0.32842
6874.04828,0.32740
6872.11953,0.32757
6870.19078,0.32744
6868.26204,0.32779
6866.33329,0.32869
6864.40455,0.32906
6862.47580,0.33060
6860.54706,0.33439
6858.61831,0.33741
6856.68957,0.33733
6854.76082,0.33534
6852.83208,0.33320
6850.90333,0.33259
6848.97459,0.33482
6847.04584,0.33768
6845.11710,0.33785
6843.18835,0.33569
6841.25960,0.33311
6839.33086,0.33209
6837.40211,0.33392
6835.47337,0.33576
6833.54462,0.33411
6831.61588,0.33172
6829.68713,0.33288
6827.75839,0.33597
6825.82964,0.33688
6823.90090,0.33453
6821.97215,0.33213
6820.04341,0.33255
6818.11466,0.33152
6816.18592,0.32714
6814.25717,0.32644
6812.32843,0.33090
6810.39968,0.33352
6808.47093,0.33193
6806.54219,0.33022
6804.61344,0.33016
6802.68470,0.33057
6800.75595,0.33212
6798.82721,0.33497
6796.89846,0.33686
6794.96972,0.33676
6793.04097,0.33553
6791.11223,0.33320
6789.18348,0.33113
6787.25474,0.33183
6785.32599,0.33377
6783.39725,0.33423
6781.46850,0.33350
6779.53975,0.33305
6777.61101,0.33373
6775.68226,0.33534
6773.75352,0.33669
6771.82477,0.33709
6769.89603,0.33766
6767.96728,0.33863
6766.03854,0.33925
6764.10979,0.33968
6762.18105,0.33999
6760.25230,0.33956
6758.32356,0.33797
6756.39481,0.33654
6754.46607,0.33692
6752.53732,0.33816
6750.60858,0.33892
6748.67983,0.33964
6746.75108,0.34024
6744.82234,0.33869
6742.89359,0.33491
6740.96485,0.33189
6739.03610,0.33201
6737.10736,0.33388
6735.17861,0.33368
6733.24987,0.33174
6731.32112,0.33183
6729.39238,0.33477
6727.46363,0.33682
6725.53489,0.33455
6723.60614,0.33204
6721.67740,0.33348
6719.74865,0.33504
6717.81991,0.33478
6715.89116,0.33572
6713.96241,0.33839
6712.03367,0.34032
6710.10492,0.33946
6708.17618,0.33744
6706.24743,0.33791
6704.31869,0.33978
6702.38994,0.33869
6700.46120,0.33548
6698.53245,0.33446
6696.60371,0.33574
6694.67496,0.33680
6692.74622,0.33666
6690.81747,0.33546
6688.88873,0.33464
6686.95998,0.33601
6685.03123,0.33900
6683.10249,0.34179
6681.17374,0.34327
6679.24500,0.34314
6677.31625,0.34224
6675.38751,0.34136
6673.45876,0.34037
6671.53002,0.33919
6669.60127,0.33898
6667.67253,0.34056
6665.74378,0.34180
6663.81504,0.34143
6661.88629,0.34127
6659.95755,0.34140
6658.02880,0.34096
6656.10006,0.34069
6654.17131,0.34116
6652.24256,0.34150
6650.31382,0.34103
6648.38507,0.34126
6646.45633,0.34222
6644.52758,0.34223
6642.59884,0.34219
6640.67009,0.34223
6638.74135,0.34178
6636.81260,0.34246
6634.88386,0.34392
6632.95511,0.34361
6631.02637,0.34159
6629.09762,0.34043
6627.16888,0.34154
6625.24013,0.34333
6623.31139,0.34372
6621.38264,0.34323
6619.45389,0.34351
6617.52515,0.34363
6615.59640,0.34233
6613.66766,0.34131
6611.73891,0.34211
6609.81017,0.34354
6607.88142,0.34438
6605.95268,0.34505
6604.02393,0.34585
6602.09519,0.34690
6600.16644,0.34785
6598.23770,0.34755
6596.30895,0.34656
6594.38021,0.34629
6592.45146,0.34706
6590.52271,0.34805
6588.59397,0.34791
6586.66522,0.34704
6584.73648,0.34648
6582.80773,0.34547
6580.87899,0.34400
6578.95024,0.34272
6577.02150,0.34168
6575.09275,0.34224
6573.16401,0.34501
6571.23526,0.34764
6569.30652,0.34845
6567.37777,0.34832
6565.44903,0.34828
6563.52028,0.34779
6561.59154,0.34621
6559.66279,0.34492
6557.73404,0.34574
6555.80530,0.34846
6553.87655,0.35190
6551.94781,0.35446
6550.01906,0.35367
6548.09032,0.35033
6546.16157,0.34920
6544.23283,0.35129
6542.30408,0.35177
6540.37534,0.34855
6538.44659,0.34571
6536.51785,0.34606
6534.58910,0.34811
6532.66036,0.34941
6530.73161,0.34869
6528.80287,0.34774
6526.87412,0.34840
6524.94537,0.34888
6523.01663,0.34800
6521.08788,0.34715
6519.15914,0.34665
6517.23039,0.34565
6515.30165,0.34422
6513.37290,0.34388
6511.44416,0.34602
6509.51541,0.34811
6507.58667,0.34676
6505.65792,0.34472
6503.72918,0.34576
6501.80043,0.34826
6499.87169,0.34954
6497.94294,0.34942
6496.01419,0.34831
6494.08545,0.34718
6492.15670,0.34678
6490.22796,0.34633
6488.29921,0.34539
6486.37047,0.34432
6484.44172,0.34430
6482.51298,0.34631
6480.58423,0.34817
6478.65549,0.34787
6476.72674,0.34722
6474.79800,0.34718
6472.86925,0.34613
6470.94051,0.34488
6469.01176,0.34581
6467.08302,0.34737
6465.15427,0.34732
6463.22552,0.34702
6461.29678,0.34720
6459.36803,0.34630
6457.43929,0.34513
6455.51054,0.34623
6453.58180,0.34863
6451.65305,0.34959
6449.72431,0.34918
6447.79556,0.34862
6445.86682,0.34858
6443.93807,0.34988
6442.00933,0.35152
6440.08058,0.35083
6438.15184,0.34838
6436.22309,0.34763
6434.29434,0.34912
6432.36560,0.35017
6430.43685,0.34980
6428.50811,0.34949
6426.57936,0.34939
6424.65062,0.34861
6422.72187,0.34842
6420.79313,0.34988
6418.86438,0.35123
6416.93564,0.35123
6415.00689,0.35093
6413.07815,0.35125
6411.14940,0.35190
6409.22066,0.35158
6407.29191,0.35022
6405.36317,0.34963
6403.43442,0.35003
6401.50567,0.35057
6399.57693,0.35075
6397.64818,0.34935
6395.71944,0.34729
6393.79069,0.34728
6391.86195,0.34970
6389.93320,0.35267
6388.00446,0.35431
6386.07571,0.35477
6384.14697,0.35502
6382.21822,0.35518
6380.28948,0.35499
6378.36073,0.35367
6376.43199,0.35077
6374.50324,0.34808
6372.57450,0.34761
6370.64575,0.34897
6368.71700,0.35071
6366.78826,0.35216
6364.85951,0.35304
6362.93077,0.35260
6361.00202,0.35047
6359.07328,0.34833
6357.14453,0.34857
6355.21579,0.35051
6353.28704,0.35178
6351.35830,0.35224
6349.42955,0.35258
6347.50081,0.35286
6345.57206,0.35346
6343.64332,0.35426
6341.71457,0.35508
6339.78582,0.35559
6337.85708,0.35492
6335.92833,0.35383
6333.99959,0.35334
6332.07084,0.35244
6330.14210,0.35112
6328.21335,0.35075
6326.28461,0.35119
6324.35586,0.35188
6322.42712,0.35180
6320.49837,0.35070
6318.56963,0.35078
6316.64088,0.35235
6314.71214,0.35397
6312.78339,0.35530
6310.85465,0.35547
6308.92590,0.35379
6306.99715,0.35152
6305.06841,0.35051
6303.13966,0.35065
6301.21092,0.35015
6299.28217,0.34956
6297.35343,0.35113
6295.42468,0.35373
6293.49594,0.35451
6291.56719,0.35365
6289.63845,0.35287
6287.70970,0.35333
6285.78096,0.35496
6283.85221,0.35624
6281.92347,0.35610
6279.99472,0.35480
6278.06598,0.35340
6276.13723,0.35278
6274.20848,0.35287
6272.27974,0.35284
6270.35099,0.35266
6268.42225,0.35316
6266.49350,0.35408
6264.56476,0.35491
6262.63601,0.35516
6260.70727,0.35453
6258.77852,0.35457
6256.84978,0.35575
6254.92103,0.35687
6252.99229,0.35739
6251.06354,0.35671
6249.13480,0.35506
6247.20605,0.35332
6245.27730,0.35225
6243.34856,0.35350
6241.41981,0.35652
6239.49107,0.35838
6237.56232,0.35819
6235.63358,0.35776
6233.70483,0.35908
6231.77609,0.35991
6229.84734,0.35712
6227.91860,0.35381
6225.98985,0.35416
6224.06111,0.35683
6222.13236,0.35823
6220.20362,0.35785
6218.27487,0.35730
6216.34613,0.35692
6214.41738,0.35701
6212.48863,0.35867
6210.55989,0.36157
6208.63114,0.36301
6206.70240,0.36162
6204.77365,0.35952
6202.84491,0.35791
6200.91616,0.35645
6198.98742,0.35642
6197.05867,0.35829
6195.12993,0.36062
6193.20118,0.36245
6191.27244,0.36299
6189.34369,0.36190
6187.41495,0.36112
6185.48620,0.36174
6183.55746,0.36177
6181.62871,0.36052
6179.69996,0.35967
6177.77122,0.35999
6175.84247,0.36079
6173.91373,0.36173
6171.98498,0.36308
6170.05624,0.36387
6168.12749,0.36337
6166.19875,0.36283
6164.27000,0.36322
6162.34126,0.36412
6160.41251,0.36426
6158.48377,0.36307
6156.55502,0.36177
6154.62628,0.36168
6152.69753,0.36295
6150.76878,0.36417
6148.84004,0.36358
6146.91129,0.36217
6144.98255,0.36245
6143.05380,0.36348
6141.12506,0.36212
6139.19631,0.35968
6137.26757,0.36006
6135.33882,0.36266
6133.41008,0.36414
6131.48133,0.36392
6129.55259,0.36348
6127.62384,0.36322
6125.69510,0.36263
6123.76635,0.36210
6121.83761,0.36201
6119.90886,0.36168
6117.98011,0.36143
6116.05137,0.36236
6114.12262,0.36397
6112.19388,0.36490
6110.26513,0.36491
6108.33639,0.36451
6106.40764,0.36392
6104.47890,0.36341
6102.55015,0.36327
6100.62141,0.36327
6098.69266,0.36361
6096.76392,0.36486
6094.83517,0.36615
6092.90643,0.36618
6090.97768,0.36552
6089.04893,0.36513
6087.12019,0.36475
6085.19144,0.36406
6083.26270,0.36379
6081.33395,0.36409
6079.40521,0.36393
6077.47646,0.36358
6075.54772,0.36395
6073.61897,0.36444
6071.69023,0.36500
6069.76148,0.36584
6067.83274,0.36516
6065.90399,0.36255
6063.97525,0.36076
6062.04650,0.36083
6060.11776,0.36142
6058.18901,0.36196
6056.26026,0.36238
6054.33152,0.36270
6052.40277,0.36298
6050.47403,0.36317
6048.54528,0.36357
6046.61654,0.36418
6044.68779,0.36434
6042.75905,0.36423
6040.83030,0.36425
6038.90156,0.36346
6036.97281,0.36212
6035.04407,0.36170
6033.11532,0.36190
6031.18658,0.36166
6029.25783,0.36071
6027.32909,0.35929
6025.40034,0.35830
6023.47159,0.35856
6021.54285,0.35904
6019.61410,0.35820
6017.68536,0.35673
6015.75661,0.35614
6013.82787,0.35606
6011.89912,0.35576
6009.97038,0.35681
6008.04163,0.35950
6006.11289,0.36048
6004.18414,0.35869
6002.25540,0.35619
6000.32665,0.35438
5998.39791,0.35426
5996.46916,0.35546
5994.54041,0.35643
5992.61167,0.35678
5990.68292,0.35703
5988.75418,0.35717
5986.82543,0.35597
5984.89669,0.35376
5982.96794,0.35337
5981.03920,0.35533
5979.11045,0.35699
5977.18171,0.35663
5975.25296,0.35485
5973.32422,0.35331
5971.39547,0.35293
5969.46673,0.35340
5967.53798,0.35343
5965.60924,0.35215
5963.68049,0.35109
5961.75174,0.35164
5959.82300,0.35206
5957.89425,0.35121
5955.96551,0.35053
5954.03676,0.35063
5952.10802,0.35079
5950.17927,0.35078
5948.25053,0.35086
5946.32178,0.35093
5944.39304,0.35049
5942.46429,0.34981
5940.53555,0.34999
5938.60680,0.35112
5936.67806,0.35206
5934.74931,0.35218
5932.82057,0.35160
5930.89182,0.35052
5928.96307,0.34934
5927.03433,0.34823
5925.10558,0.34730
5923.17684,0.34683
5921.24809,0.34665
5919.31935,0.34634
5917.39060,0.34560
5915.46186,0.34478
5913.53311,0.34474
5911.60437,0.34514
5909.67562,0.34492
5907.74688,0.34393
5905.81813,0.34262
5903.88939,0.34184
5901.96064,0.34149
5900.03189,0.34072
5898.10315,0.34033
5896.17440,0.34054
5894.24566,0.33996
5892.31691,0.33928
5890.38817,0.33979
5888.45942,0.34061
5886.53068,0.34085
5884.60193,0.34081
5882.67319,0.34010
5880.74444,0.33882
5878.81570,0.33823
5876.88695,0.33732
5874.95821,0.33506
5873.02946,0.33319
5871.10072,0.33270
5869.17197,0.33217
5867.24322,0.33025
5865.31448,0.32829
5863.38573,0.32816
5861.45699,0.32897
5859.52824,0.32842
5857.59950,0.32590
5855.67075,0.32353
5853.74201,0.32243
5851.81326,0.32154
5849.88452,0.32025
5847.95577,0.31889
5846.02703,0.31844
5844.09828,0.31868
5842.16954,0.31818
5840.24079,0.31691
5838.31205,0.31573
5836.38330,0.31467
5834.45455,0.31366
5832.52581,0.31286
5830.59706,0.31176
5828.66832,0.30970
5826.73957,0.30747
5824.81083,0.30660
5822.88208,0.30730
5820.95334,0.30784
5819.02459,0.30679
5817.09585,0.30437
5815.16710,0.30160
5813.23836,0.30005
5811.30961,0.30020
5809.38087,0.30008
5807.45212,0.29809
5805.52337,0.29539
5803.59463,0.29407
5801.66588,0.29375
5799.73714,0.29253
5797.80839,0.29075
5795.87965,0.28939
5793.95090,0.28791
5792.02216,0.28653
5790.09341,0.28584
5788.16467,0.28479
5786.23592,0.28212
5784.30718,0.27863
5782.37843,0.27633
5780.44969,0.27482
5778.52094,0.27211
5776.59220,0.26939
5774.66345,0.26929
5772.73470,0.27125
5770.80596,0.27361
5768.87721,0.27645
5766.94847,0.27999
5765.01972,0.28328
5763.09098,0.28572
5761.16223,0.28859
5759.23349,0.29253
5757.30474,0.29582
5755.37600,0.29803
5753.44725,0.30058
5751.51851,0.30350
5749.58976,0.30561
5747.66102,0.30638
5745.73227,0.30698
5743.80352,0.30901
5741.87478,0.31196
5739.94603,0.31410
5738.01729,0.31488
5736.08854,0.31457
5734.15980,0.31415
5732.23105,0.31493
5730.30231,0.31677
5728.37356,0.31876
5726.44482,0.32027
5724.51607,0.32092
5722.58733,0.32106
5720.65858,0.32126
5718.72984,0.32196
5716.80109,0.32286
5714.87235,0.32288
5712.94360,0.32219
5711.01485,0.32156
5709.08611,0.32068
5707.15736,0.31998
5705.22862,0.32013
5703.29987,0.32049
5701.37113,0.32025
5699.44238,0.31940
5697.51364,0.31796
5695.58489,0.31638
5693.65615,0.31590
5691.72740,0.31609
5689.79866,0.31539
5687.86991,0.31382
5685.94117,0.31226
5684.01242,0.31161
5682.08368,0.31177
5680.15493,0.31094
5678.22618,0.30855
5676.29744,0.30622
5674.36869,0.30480
5672.43995,0.30381
5670.51120,0.30308
5668.58246,0.30304
5666.65371,0.30327
5664.72497,0.30294
5662.79622,0.30265
5660.86748,0.30316
5658.93873,0.30412
5657.00999,0.30503
5655.08124,0.30645
5653.15250,0.30930
5651.22375,0.31269
5649.29500,0.31506
5647.36626,0.31647
5645.43751,0.31737
5643.50877,0.31744
5641.58002,0.31674
5639.65128,0.31643
5637.72253,0.31726
5635.79379,0.31864
5633.86504,0.31974
5631.93630,0.32061
5630.00755,0.32191
5628.07881,0.32320
5626.15006,0.32341
5624.22132,0.32274
5622.29257,0.32224
5620.36383,0.32214
5618.43508,0.32198
5616.50633,0.32185
5614.57759,0.32207
5612.64884,0.32243
5610.72010,0.32277
5608.79135,0.32330
5606.86261,0.32426
5604.93386,0.32507
5603.00512,0.32494
5601.07637,0.32432
5599.14763,0.32433
5597.21888,0.32528
5595.29014,0.32634
5593.36139,0.32683
5591.43265,0.32684
5589.50390,0.32653
5587.57516,0.32609
5585.64641,0.32595
5583.71766,0.32598
5581.78892,0.32588
5579.86017,0.32611
5577.93143,0.32658
5576.00268,0.32622
5574.07394,0.32505
5572.14519,0.32429
5570.21645,0.32420
5568.28770,0.32414
5566.35896,0.32426
5564.43021,0.32464
5562.50147,0.32473
5560.57272,0.32457
5558.64398,0.32420
5556.71523,0.32327
5554.78648,0.32250
5552.85774,0.32269
5550.92899,0.32289
5549.00025,0.32244
5547.07150,0.32247
5545.14276,0.32371
5543.21401,0.32492
5541.28527,0.32490
5539.35652,0.32391
5537.42778,0.32281
5535.49903,0.32250
5533.57029,0.32313
5531.64154,0.32371
5529.71280,0.32404
5527.78405,0.32515
5525.85531,0.32666
5523.92656,0.32700
5521.99781,0.32659
5520.06907,0.32640
5518.14032,0.32588
5516.21158,0.32492
5514.28283,0.32429
5512.35409,0.32432
5510.42534,0.32467
5508.49660,0.32498
5506.56785,0.32491
5504.63911,0.32431
5502.71036,0.32392
5500.78162,0.32413
5498.85287,0.32424
5496.92413,0.32398
5494.99538,0.32395
5493.06664,0.32422
5491.13789,0.32399
5489.20914,0.32327
5487.28040,0.32289
5485.35165,0.32286
5483.42291,0.32296
5481.49416,0.32356
5479.56542,0.32437
5477.63667,0.32476
5475.70793,0.32526
5473.77918,0.32607
5471.85044,0.32627
5469.92169,0.32589
5467.99295,0.32611
5466.06420,0.32676
5464.13546,0.32679
5462.20671,0.32677
5460.27796,0.32722
5458.34922,0.32715
5456.42047,0.32632
5454.49173,0.32607
5452.56298,0.32693
5450.63424,0.32761
5448.70549,0.32792
5446.77675,0.32880
5444.84800,0.32936
5442.91926,0.32889
5440.99051,0.32848
5439.06177,0.32867
5437.13302,0.32917
5435.20428,0.32967
5433.27553,0.33004
5431.34679,0.33021
5429.41804,0.33031
5427.48929,0.33047
5425.56055,0.33041
5423.63180,0.33031
5421.70306,0.33084
5419.77431,0.33162
5417.84557,0.33186
5415.91682,0.33230
5413.98808,0.33363
5412.05933,0.33442
5410.13059,0.33358
5408.20184,0.33248
5406.27310,0.33227
5404.34435,0.33270
5402.41561,0.33351
5400.48686,0.33412
5398.55811,0.33367
5396.62937,0.33293
5394.70062,0.33342
5392.77188,0.33472
5390.84313,0.33534
5388.91439,0.33522
5386.98564,0.33498
5385.05690,0.33478
5383.12815,0.33480
5381.19941,0.33518
5379.27066,0.33572
5377.34192,0.33593
5375.41317,0.33570
5373.48443,0.33562
5371.55568,0.33605
5369.62694,0.33671
5367.69819,0.33708
5365.76944,0.33706
5363.84070,0.33694
5361.91195,0.33657
5359.98321,0.33596
5358.05446,0.33562
5356.12572,0.33561
5354.19697,0.33600
5352.26823,0.33696
5350.33948,0.33750
5348.41074,0.33683
5346.48199,0.33606
5344.55325,0.33619
5342.62450,0.33657
5340.69576,0.33674
5338.76701,0.33706
5336.83827,0.33741
5334.90952,0.33719
5332.98077,0.33632
5331.05203,0.33533
5329.12328,0.33451
5327.19454,0.33404
5325.26579,0.33390
5323.33705,0.33333
5321.40830,0.33247
5319.47956,0.33252
5317.55081,0.33310
5315.62207,0.33287
5313.69332,0.33195
5311.76458,0.33116
5309.83583,0.33061
5307.90709,0.33003
5305.97834,0.32961
5304.04959,0.32929
5302.12085,0.32846
5300.19210,0.32710
5298.26336,0.32568
5296.33461,0.32450
5294.40587,0.32376
5292.47712,0.32317
5290.54838,0.32220
5288.61963,0.32068
5286.69089,0.31881
5284.76214,0.31728
5282.83340,0.31640
5280.90465,0.31584
5278.97591,0.31525
5277.04716,0.31402
5275.11842,0.31223
5273.18967,0.31066
5271.26092,0.30896
5269.33218,0.30679
5267.40343,0.30461
5265.47469,0.30256
5263.54594,0.30088
5261.61720,0.29970
5259.68845,0.29823
5257.75971,0.29624
5255.83096,0.29453
5253.90222,0.29333
5251.97347,0.29219
5250.04473,0.29086
5248.11598,0.28911
5246.18724,0.28715
5244.25849,0.28525
5242.32975,0.28366
5240.40100,0.28290
5238.47225,0.28251
5236.54351,0.28184
5234.61476,0.28120
5232.68602,0.28022
5230.75727,0.27858
5228.82853,0.27695
5226.89978,0.27575
5224.97104,0.27502
5223.04229,0.27473
5221.11355,0.27458
5219.18480,0.27430
5217.25606,0.27387
5215.32731,0.27372
5213.39857,0.27380
5211.46982,0.27374
5209.54107,0.27351
5207.61233,0.27309
5205.68358,0.27246
5203.75484,0.27179
5201.82609,0.27129
5199.89735,0.27099
5197.96860,0.27095
5196.03986,0.27118
5194.11111,0.27126
5192.18237,0.27092
5190.25362,0.27085
5188.32488,0.27163
5186.39613,0.27224
5184.46739,0.27182
5182.53864,0.27139
5180.60990,0.27178
5178.68115,0.27243
5176.75240,0.27251
5174.82366,0.27239
5172.89491,0.27300
5170.96617,0.27365
5169.03742,0.27355
5167.10868,0.27346
5165.17993,0.27370
5163.25119,0.27405
5161.32244,0.27457
5159.39370,0.27535
5157.46495,0.27620
5155.53621,0.27654
5153.60746,0.27654
5151.67872,0.27728
5149.74997,0.27866
5147.82123,0.27987
5145.89248,0.28044
5143.96373,0.28015
5142.03499,0.27974
5140.10624,0.28024
5138.17750,0.28146
5136.24875,0.28262
5134.32001,0.28311
5132.39126,0.28296
5130.46252,0.28280
5128.53377,0.28282
5126.60503,0.28315
5124.67628,0.28383
5122.74754,0.28441
5120.81879,0.28473
5118.89005,0.28527
5116.96130,0.28618
5115.03255,0.28707
5113.10381,0.28755
5111.17506,0.28763
5109.24632,0.28796
5107.31757,0.28873
5105.38883,0.28926
5103.46008,0.28945
5101.53134,0.28956
5099.60259,0.28964
5097.67385,0.28997
5095.74510,0.29061
5093.81636,0.29114
5091.88761,0.29159
5089.95887,0.29239
5088.03012,0.29346
5086.10138,0.29432
5084.17263,0.29459
5082.24388,0.29462
5080.31514,0.29475
5078.38639,0.29488
5076.45765,0.29510
5074.52890,0.29548
5072.60016,0.29566
5070.67141,0.29547
5068.74267,0.29551
5066.81392,0.29628
5064.88518,0.29724
5062.95643,0.29779
5061.02769,0.29814
5059.09894,0.29861
5057.17020,0.29930
5055.24145,0.30003
5053.31270,0.30020
5051.38396,0.29991
5049.45521,0.29985
5047.52647,0.30006
5045.59772,0.30041
5043.66898,0.30080
5041.74023,0.30110
5039.81149,0.30156
5037.88274,0.30222
5035.95400,0.30282
5034.02525,0.30302
5032.09651,0.30286
5030.16776,0.30276
5028.23902,0.30283
5026.31027,0.30280
5024.38153,0.30287
5022.45278,0.30348
5020.52403,0.30442
5018.59529,0.30506
5016.66654,0.30504
5014.73780,0.30459
5012.80905,0.30432
5010.88031,0.30479
5008.95156,0.30559
5007.02282,0.30563
5005.09407,0.30507
5003.16533,0.30486
5001.23658,0.30493
4999.30784,0.30481
4997.37909,0.30469
4995.45035,0.30472
4993.52160,0.30437
4991.59286,0.30361
4989.66411,0.30299
4987.73536,0.30247
4985.80662,0.30219
4983.87787,0.30233
4981.94913,0.30219
4980.02038,0.30157
4978.09164,0.30139
4976.16289,0.30189
4974.23415,0.30205
4972.30540,0.30134
4970.37666,0.30062
4968.44791,0.30045
4966.51917,0.30029
4964.59042,0.29986
4962.66168,0.29948
4960.73293,0.29917
4958.80418,0.29862
4956.87544,0.29796
4954.94669,0.29759
4953.01795,0.29754
4951.08920,0.29748
4949.16046,0.29719
4947.23171,0.29670
4945.30297,0.29604
4943.37422,0.29534
4941.44548,0.29471
4939.51673,0.29405
4937.58799,0.29344
4935.65924,0.29273
4933.73050,0.29177
4931.80175,0.29112
4929.87301,0.29094
4927.94426,0.29041
4926.01551,0.28941
4924.08677,0.28844
4922.15802,0.28736
4920.22928,0.28615
4918.30053,0.28530
4916.37179,0.28483
4914.44304,0.28427
4912.51430,0.28352
4910.58555,0.28301
4908.65681,0.28293
4906.72806,0.28258
4904.79932,0.28156
4902.87057,0.28055
4900.94183,0.27982
4899.01308,0.27883
4897.08434,0.27749
4895.15559,0.27648
4893.22684,0.27631
4891.29810,0.27625
4889.36935,0.27530
4887.44061,0.27387
4885.51186,0.27295
4883.58312,0.27246
4881.65437,0.27184
4879.72563,0.27114
4877.79688,0.27035
4875.86814,0.26924
4873.93939,0.26822
4872.01065,0.26766
4870.08190,0.26734
4868.15316,0.26706
4866.22441,0.26655
4864.29566,0.26554
4862.36692,0.26454
4860.43817,0.26404
4858.50943,0.26381
4856.58068,0.26363
4854.65194,0.26323
4852.72319,0.26254
4850.79445,0.26186
4848.86570,0.26123
4846.93696,0.26074
4845.00821,0.26053
4843.07947,0.26013
4841.15072,0.25922
4839.22198,0.25845
4837.29323,0.25823
4835.36449,0.25822
4833.43574,0.25820
4831.50699,0.25792
4829.57825,0.25730
4827.64950,0.25670
4825.72076,0.25605
4823.79201,0.25519
4821.86327,0.25460
4819.93452,0.25449
4818.00578,0.25465
4816.07703,0.25480
4814.14829,0.25428
4812.21954,0.25327
4810.29080,0.25293
4808.36205,0.25313
4806.43331,0.25288
4804.50456,0.25239
4802.57582,0.25220
4800.64707,0.25199
4798.71832,0.25164
4796.78958,0.25146
4794.86083,0.25140
4792.93209,0.25120
4791.00334,0.25072
4789.07460,0.25011
4787.14585,0.24973
4785.21711,0.24957
4783.28836,0.24952
4781.35962,0.24968
4779.43087,0.24976
4777.50213,0.24948
4775.57338,0.24909
4773.64464,0.24874
4771.71589,0.24866
4769.78714,0.24896
4767.85840,0.24911
4765.92965,0.24915
4764.00091,0.24933
4762.07216,0.24928
4760.14342,0.24896
4758.21467,0.24882
4756.28593,0.24903
4754.35718,0.24931
4752.42844,0.24907
4750.49969,0.24861
4748.57095,0.24867
4746.64220,0.24900
4744.71346,0.24911
4742.78471,0.24903
4740.85597,0.24880
4738.92722,0.24877
4736.99847,0.24898
4735.06973,0.24904
4733.14098,0.24908
4731.21224,0.24917
4729.28349,0.24884
4727.35475,0.24833
4725.42600,0.24829
4723.49726,0.24862
4721.56851,0.24887
4719.63977,0.24897
4717.71102,0.24895
4715.78228,0.24882
4713.85353,0.24897
4711.92479,0.24953
4709.99604,0.24993
4708.06729,0.25012
4706.13855,0.25028
4704.20980,0.25013
4702.28106,0.24956
4700.35231,0.24894
4698.42357,0.24894
4696.49482,0.24969
4694.56608,0.25041
4692.63733,0.25068
4690.70859,0.25087
4688.77984,0.25125
4686.85110,0.25163
4684.92235,0.25180
4682.99361,0.25194
4681.06486,0.25221
4679.13612,0.25247
4677.20737,0.25277
4675.27862,0.25314
4673.34988,0.25333
4671.42113,0.25330
4669.49239,0.25334
4667.56364,0.25356
4665.63490,0.25394
4663.70615,0.25456
4661.77741,0.25526
4659.84866,0.25581
4657.91992,0.25627
4655.99117,0.25661
4654.06243,0.25704
4652.13368,0.25771
4650.20494,0.25826
4648.27619,0.25841
4646.34745,0.25830
4644.41870,0.25830
4642.48995,0.25861
4640.56121,0.25913
4638.63246,0.25984
4636.70372,0.26043
4634.77497,0.26063
4632.84623,0.26095
4630.91748,0.26148
4628.98874,0.26171
4627.05999,0.26161
4625.13125,0.26141
4623.20250,0.26154
4621.27376,0.26239
4619.34501,0.26311
4617.41627,0.26309
4615.48752,0.26301
4613.55877,0.26334
4611.63003,0.26392
4609.70128,0.26439
4607.77254,0.26469
4605.84379,0.26515
4603.91505,0.26569
4601.98630,0.26596
4600.05756,0.26598
4598.12881,0.26594
4596.20007,0.26580
4594.27132,0.26574
4592.34258,0.26622
4590.41383,0.26704
4588.48509,0.26747
4586.55634,0.26738
4584.62760,0.26716
4582.69885,0.26711
4580.77010,0.26713
4578.84136,0.26709
4576.91261,0.26708
4574.98387,0.26722
4573.05512,0.26776
4571.12638,0.26854
4569.19763,0.26900
4567.26889,0.26921
4565.34014,0.26957
4563.41140,0.26979
4561.48265,0.26961
4559.55391,0.26972
4557.62516,0.27007
4555.69642,0.26992
4553.76767,0.26971
4551.83893,0.27002
4549.91018,0.27050
4547.98143,0.27069
4546.05269,0.27034
4544.12394,0.26967
4542.19520,0.26911
4540.26645,0.26871
4538.33771,0.26871
4536.40896,0.26915
4534.48022,0.26952
4532.55147,0.26966
4530.62273,0.27005
4528.69398,0.27067
4526.76524,0.27077
4524.83649,0.27039
4522.90775,0.27011
4520.97900,0.26983
4519.05025,0.26931
4517.12151,0.26879
4515.19276,0.26859
4513.26402,0.26867
4511.33527,0.26868
4509.40653,0.26841
4507.47778,0.26802
4505.54904,0.26764
4503.62029,0.26713
4501.69155,0.26668
4499.76280,0.26637
4497.83406,0.26569
4495.90531,0.26462
4493.97657,0.26377
4492.04782,0.26330
4490.11908,0.26287
4488.19033,0.26213
4486.26158,0.26105
4484.33284,0.25994
4482.40409,0.25895
4480.47535,0.25793
4478.54660,0.25689
4476.61786,0.25574
4474.68911,0.25428
4472.76037,0.25289
4470.83162,0.25197
4468.90288,0.25118
4466.97413,0.25032
4465.04539,0.24945
4463.11664,0.24842
4461.18790,0.24720
4459.25915,0.24582
4457.33041,0.24424
4455.40166,0.24276
4453.47291,0.24157
4451.54417,0.24027
4449.61542,0.23855
4447.68668,0.23680
4445.75793,0.23549
4443.82919,0.23426
4441.90044,0.23274
4439.97170,0.23122
4438.04295,0.22990
4436.11421,0.22875
4434.18546,0.22782
4432.25672,0.22691
4430.32797,0.22574
4428.39923,0.22426
4426.47048,0.22284
4424.54173,0.22190
4422.61299,0.22102
4420.68424,0.21974
4418.75550,0.21849
4416.82675,0.21742
4414.89801,0.21626
4412.96926,0.21520
4411.04052,0.21433
4409.11177,0.21353
4407.18303,0.21274
4405.25428,0.21185
4403.32554,0.21109
4401.39679,0.21081
4399.46805,0.21059
4397.53930,0.20975
4395.61056,0.20857
4393.68181,0.20778
4391.75306,0.20751
4389.82432,0.20721
4387.89557,0.20644
4385.96683,0.20563
4384.03808,0.20531
4382.10934,0.20515
4380.18059,0.20485
4378.25185,0.20464
4376.32310,0.20447
4374.39436,0.20404
4372.46561,0.20345
4370.53687,0.20277
4368.60812,0.20211
4366.67938,0.20177
4364.75063,0.20145
4362.82189,0.20070
4360.89314,0.19962
4358.96439,0.19832
4357.03565,0.19682
4355.10690,0.19554
4353.17816,0.19447
4351.24941,0.19295
4349.32067,0.19089
4347.39192,0.18877
4345.46318,0.18666
4343.53443,0.18440
4341.60569,0.18218
4339.67694,0.18040
4337.74820,0.17919
4335.81945,0.17815
4333.89071,0.17674
4331.96196,0.17459
4330.03321,0.17176
4328.10447,0.16861
4326.17572,0.16549
4324.24698,0.16303
4322.31823,0.16225
4320.38949,0.16361
4318.46074,0.16689
4316.53200,0.17147
4314.60325,0.17636
4312.67451,0.18073
4310.74576,0.18439
4308.81702,0.18729
4306.88827,0.18946
4304.95953,0.19095
4303.03078,0.19194
4301.10204,0.19283
4299.17329,0.19348
4297.24454,0.19354
4295.31580,0.19320
4293.38705,0.19266
4291.45831,0.19198
4289.52956,0.19129
4287.60082,0.19069
4285.67207,0.19031
4283.74333,0.19031
4281.81458,0.19041
4279.88584,0.19017
4277.95709,0.18959
4276.02835,0.18887
4274.09960,0.18805
4272.17086,0.18721
4270.24211,0.18653
4268.31336,0.18591
4266.38462,0.18485
4264.45587,0.18302
4262.52713,0.18068
4260.59838,0.17837
4258.66964,0.17626
4256.74089,0.17400
4254.81215,0.17175
4252.88340,0.17030
4250.95466,0.17006
4249.02591,0.17120
4247.09717,0.17376
4245.16842,0.17700
4243.23968,0.18003
4241.31093,0.18253
4239.38219,0.18442
4237.45344,0.18548
4235.52469,0.18567
4233.59595,0.18552
4231.66720,0.18545
4229.73846,0.18515
4227.80971,0.18437
4225.88097,0.18337
4223.95222,0.18257
4222.02348,0.18222
4220.09473,0.18225
4218.16599,0.18244
4216.23724,0.18272
4214.30850,0.18301
4212.37975,0.18313
4210.45101,0.18315
4208.52226,0.18317
4206.59352,0.18292
4204.66477,0.18235
4202.73602,0.18161
4200.80728,0.18075
4198.87853,0.18007
4196.94979,0.17970
4195.02104,0.17920
4193.09230,0.17849
4191.16355,0.17799
4189.23481,0.17774
4187.30606,0.17777
4185.37732,0.17834
4183.44857,0.17912
4181.51983,0.17952
4179.59108,0.17958
4177.66234,0.17952
4175.73359,0.17934
4173.80484,0.17911
4171.87610,0.17904
4169.94735,0.17904
4168.01861,0.17902
4166.08986,0.17905
4164.16112,0.17908
4162.23237,0.17920
4160.30363,0.17932
4158.37488,0.17925
4156.44614,0.17917
4154.51739,0.17919
4152.58865,0.17901
4150.65990,0.17866
4148.73116,0.17863
4146.80241,0.17886
4144.87367,0.17884
4142.94492,0.17880
4141.01617,0.17902
4139.08743,0.17922
4137.15868,0.17925
4135.22994,0.17918
4133.30119,0.17882
4131.37245,0.17828
4129.44370,0.17781
4127.51496,0.17753
4125.58621,0.17761
4123.65747,0.17793
4121.72872,0.17793
4119.79998,0.17739
4117.87123,0.17661
4115.94249,0.17591
4114.01374,0.17552
4112.08500,0.17536
4110.15625,0.17512
4108.22750,0.17482
4106.29876,0.17457
4104.37001,0.17408
4102.44127,0.17326
4100.51252,0.17262
4098.58378,0.17244
4096.65503,0.17241
4094.72629,0.17232
4092.79754,0.17225
4090.86880,0.17230
4088.94005,0.17254
4087.01131,0.17286
4085.08256,0.17310
4083.15382,0.17333
4081.22507,0.17348
4079.29632,0.17360
4077.36758,0.17375
4075.43883,0.17375
4073.51009,0.17353
4071.58134,0.17310
4069.65260,0.17250
4067.72385,0.17201
4065.79511,0.17164
4063.86636,0.17141
4061.93762,0.17122
4060.00887,0.17080
4058.08013,0.17034
4056.15138,0.16998
4054.22264,0.16963
4052.29389,0.16936
4050.36515,0.16911
4048.43640,0.16876
4046.50765,0.16841
4044.57891,0.16814
4042.65016,0.16777
4040.72142,0.16739
4038.79267,0.16725
4036.86393,0.16734
4034.93518,0.16744
4033.00644,0.16728
4031.07769,0.16689
4029.14895,0.16655
4027.22020,0.16634
4025.29146,0.16599
4023.36271,0.16533
4021.43397,0.16481
4019.50522,0.16506
4017.57648,0.16569
4015.64773,0.16587
4013.71898,0.16590
4011.79024,0.16651
4009.86149,0.16731
4007.93275,0.16762
4006.00400,0.16742
4004.07526,0.16725
4002.14651,0.16750
4000.21777,0.16793
3998.28902,0.16820
3996.36028,0.16842
3994.43153,0.16853
3992.50279,0.16839
3990.57404,0.16831
3988.64530,0.16845
3986.71655,0.16857
3984.78780,0.16860
3982.85906,0.16873
3980.93031,0.16895
3979.00157,0.16923
3977.07282,0.16956
3975.14408,0.16963
3973.21533,0.16931
3971.28659,0.16924
3969.35784,0.16994
3967.42910,0.17083
3965.50035,0.17118
3963.57161,0.17119
3961.64286,0.17122
3959.71412,0.17136
3957.78537,0.17173
3955.85663,0.17232
3953.92788,0.17275
3951.99913,0.17282
3950.07039,0.17289
3948.14164,0.17330
3946.21290,0.17384
3944.28415,0.17426
3942.35541,0.17446
3940.42666,0.17456
3938.49792,0.17471
3936.56917,0.17484
3934.64043,0.17472
3932.71168,0.17445
3930.78294,0.17445
3928.85419,0.17464
3926.92545,0.17478
3924.99670,0.17522
3923.06795,0.17597
3921.13921,0.17649
3919.21046,0.17655
3917.28172,0.17640
3915.35297,0.17630
3913.42423,0.17637
3911.49548,0.17678
3909.56674,0.17739
3907.63799,0.17782
3905.70925,0.17796
3903.78050,0.17808
3901.85176,0.17842
3899.92301,0.17894
3897.99427,0.17943
3896.06552,0.17976
3894.13678,0.17983
3892.20803,0.17968
3890.27928,0.17967
3888.35054,0.17992
3886.42179,0.18011
3884.49305,0.18017
3882.56430,0.18034
3880.63556,0.18093
3878.70681,0.18169
3876.77807,0.18197
3874.84932,0.18185
3872.92058,0.18197
3870.99183,0.18238
3869.06309,0.18284
3867.13434,0.18336
3865.20560,0.18386
3863.27685,0.18442
3861.34811,0.18495
3859.41936,0.18528
3857.49061,0.18569
3855.56187,0.18629
3853.63312,0.18662
3851.70438,0.18659
3849.77563,0.18674
3847.84689,0.18700
3845.91814,0.18703
3843.98940,0.18697
3842.06065,0.18722
3840.13191,0.18768
3838.20316,0.18810
3836.27442,0.18835
3834.34567,0.18827
3832.41693,0.18815
3830.48818,0.18830
3828.55943,0.18856
3826.63069,0.18882
3824.70194,0.18900
3822.77320,0.18907
3820.84445,0.18907
3818.91571,0.18897
3816.98696,0.18883
3815.05822,0.18872
3813.12947,0.18868
3811.20073,0.18875
3809.27198,0.18900
3807.34324,0.18939
3805.41449,0.18970
3803.48575,0.18987
3801.55700,0.18991
3799.62826,0.18970
3797.69951,0.18952
3795.77076,0.18955
3793.84202,0.18953
3791.91327,0.18950
3789.98453,0.18964
3788.05578,0.18979
3786.12704,0.18980
3784.19829,0.18967
3782.26955,0.18934
3780.34080,0.18908
3778.41206,0.18909
3776.48331,0.18903
3774.55457,0.18892
3772.62582,0.18893
3770.69708,0.18873
3768.76833,0.18836
3766.83959,0.18817
3764.91084,0.18803
3762.98209,0.18782
3761.05335,0.18768
3759.12460,0.18755
3757.19586,0.18725
3755.26711,0.18697
3753.33837,0.18684
3751.40962,0.18643
3749.48088,0.18581
3747.55213,0.18564
3745.62339,0.18574
3743.69464,0.18558
3741.76590,0.18521
3739.83715,0.18495
3737.90841,0.18459
3735.97966,0.18385
3734.05091,0.18299
3732.12217,0.18227
3730.19342,0.18173
3728.26468,0.18127
3726.33593,0.18057
3724.40719,0.17956
3722.47844,0.17850
3720.54970,0.17756
3718.62095,0.17676
3716.69221,0.17592
3714.76346,0.17501
3712.83472,0.17427
3710.90597,0.17372
3708.97723,0.17291
3707.04848,0.17155
3705.11974,0.16993
3703.19099,0.16849
3701.26224,0.16737
3699.33350,0.16628
3697.40475,0.16477
3695.47601,0.16294
3693.54726,0.16121
3691.61852,0.15961
3689.68977,0.15814
3687.76103,0.15675
3685.83228,0.15513
3683.90354,0.15335
3681.97479,0.15141
3680.04605,0.14907
3678.11730,0.14650
3676.18856,0.14416
3674.25981,0.14235
3672.33107,0.14059
3670.40232,0.13809
3668.47357,0.13542
3666.54483,0.13343
3664.61608,0.13166
3662.68734,0.12970
3660.75859,0.12760
3658.82985,0.12558
3656.90110,0.12380
3654.97236,0.12229
3653.04361,0.12106
3651.11487,0.11978
3649.18612,0.11795
3647.25738,0.11589
3645.32863,0.11419
3643.39989,0.11273
3641.47114,0.11121
3639.54239,0.10969
3637.61365,0.10843
3635.68490,0.10736
3633.75616,0.10643
3631.82741,0.10574
3629.89867,0.10497
3627.96992,0.10381
3626.04118,0.10264
3624.11243,0.10147
3622.18369,0.10025
3620.25494,0.09898
3618.32620,0.09764
3616.39745,0.09643
3614.46871,0.09532
3612.53996,0.09415
3610.61122,0.09298
3608.68247,0.09171
3606.75372,0.09041
3604.82498,0.08946
3602.89623,0.08899
3600.96749,0.08866
3599.03874,0.08796
3597.11000,0.08699
3595.18125,0.08610
3593.25251,0.08532
3591.32376,0.08467
3589.39502,0.08412
3587.46627,0.08335
3585.53753,0.08236
3583.60878,0.08146
3581.68004,0.08052
3579.75129,0.07968
3577.82254,0.07907
3575.89380,0.07830
3573.96505,0.07742
3572.03631,0.07684
3570.10756,0.07654
3568.17882,0.07618
3566.25007,0.07546
3564.32133,0.07466
3562.39258,0.07420
3560.46384,0.07388
3558.53509,0.07343
3556.60635,0.07284
3554.67760,0.07218
3552.74886,0.07154
3550.82011,0.07084
3548.89137,0.07007
3546.96262,0.06963
3545.03387,0.06969
3543.10513,0.06974
3541.17638,0.06931
3539.24764,0.06870
3537.31889,0.06850
3535.39015,0.06856
3533.46140,0.06824
3531.53266,0.06749
3529.60391,0.06678
3527.67517,0.06631
3525.74642,0.06608
3523.81768,0.06606
3521.88893,0.06599
3519.96019,0.06572
3518.03144,0.06537
3516.10270,0.06494
3514.17395,0.06441
3512.24520,0.06403
3510.31646,0.06397
3508.38771,0.06393
3506.45897,0.06363
3504.53022,0.06329
3502.60148,0.06316
3500.67273,0.06315
3498.74399,0.06303
3496.81524,0.06263
3494.88650,0.06209
3492.95775,0.06174
3491.02901,0.06167
3489.10026,0.06176
3487.17152,0.06186
3485.24277,0.06175
3483.31402,0.06127
3481.38528,0.06067
3479.45653,0.06028
3477.52779,0.06018
3475.59904,0.06031
3473.67030,0.06039
3471.74155,0.06018
3469.81281,0.05990
3467.88406,0.05971
3465.95532,0.05966
3464.02657,0.05971
3462.09783,0.05969
3460.16908,0.05946
3458.24034,0.05916
3456.31159,0.05886
3454.38285,0.05841
3452.45410,0.05808
3450.52535,0.05830
3448.59661,0.05864
3446.66786,0.05865
3444.73912,0.05870
3442.81037,0.05878
3440.88163,0.05840
3438.95288,0.05794
3437.02414,0.05798
3435.09539,0.05810
3433.16665,0.05789
3431.23790,0.05752
3429.30916,0.05742
3427.38041,0.05767
3425.45167,0.05799
3423.52292,0.05814
3421.59418,0.05819
3419.66543,0.05839
3417.73668,0.05872
3415.80794,0.05874
3413.87919,0.05827
3411.95045,0.05785
3410.02170,0.05788
3408.09296,0.05786
3406.16421,0.05759
3404.23547,0.05757
3402.30672,0.05790
3400.37798,0.05801
3398.44923,0.05772
3396.52049,0.05751
3394.59174,0.05761
3392.66300,0.05768
3390.73425,0.05767
3388.80550,0.05764
3386.87676,0.05757
3384.94801,0.05761
3383.01927,0.05778
3381.09052,0.05783
3379.16178,0.05767
3377.23303,0.05762
3375.30429,0.05795
3373.37554,0.05839
3371.44680,0.05852
3369.51805,0.05831
3367.58931,0.05807
3365.66056,0.05803
3363.73182,0.05807
3361.80307,0.05794
3359.87433,0.05771
3357.94558,0.05757
3356.01683,0.05755
3354.08809,0.05772
3352.15934,0.05804
3350.23060,0.05832
3348.30185,0.05849
3346.37311,0.05861
3344.44436,0.05885
3342.51562,0.05915
3340.58687,0.05911
3338.65813,0.05870
3336.72938,0.05822
3334.80064,0.05793
3332.87189,0.05794
3330.94315,0.05822
3329.01440,0.05871
3327.08566,0.05922
3325.15691,0.05935
3323.22816,0.05912
3321.29942,0.05898
3319.37067,0.05906
3317.44193,0.05925
3315.51318,0.05956
3313.58444,0.06001
3311.65569,0.06045
3309.72695,0.06073
3307.79820,0.06100
3305.86946,0.06115
3303.94071,0.06092
3302.01197,0.06064
3300.08322,0.06071
3298.15448,0.06094
3296.22573,0.06087
3294.29698,0.06040
3292.36824,0.06007
3290.43949,0.06028
3288.51075,0.06069
3286.58200,0.06102
3284.65326,0.06127
3282.72451,0.06129
3280.79577,0.06123
3278.86702,0.06146
3276.93828,0.06195
3275.00953,0.06251
3273.08079,0.06298
3271.15204,0.06322
3269.22330,0.06322
3267.29455,0.06327
3265.36581,0.06373
3263.43706,0.06432
3261.50831,0.06445
3259.57957,0.06414
3257.65082,0.06398
3255.72208,0.06432
3253.79333,0.06508
3251.86459,0.06579
3249.93584,0.06591
3248.00710,0.06560
3246.07835,0.06541
3244.14961,0.06557
3242.22086,0.06595
3240.29212,0.06624
3238.36337,0.06627
3236.43463,0.06640
3234.50588,0.06690
3232.57713,0.06717
3230.64839,0.06726
3228.71964,0.06789
3226.79090,0.06872
3224.86215,0.06897
3222.93341,0.06863
3221.00466,0.06824
3219.07592,0.06827
3217.14717,0.06882
3215.21843,0.06942
3213.28968,0.06962
3211.36094,0.06954
3209.43219,0.06971
3207.50345,0.07039
3205.57470,0.07094
3203.64596,0.07086
3201.71721,0.07059
3199.78846,0.07074
3197.85972,0.07154
3195.93097,0.07241
3194.00223,0.07270
3192.07348,0.07279
3190.14474,0.07300
3188.21599,0.07302
3186.28725,0.07284
3184.35850,0.07294
3182.42976,0.07341
3180.50101,0.07394
3178.57227,0.07436
3176.64352,0.07448
3174.71478,0.07436
3172.78603,0.07449
3170.85729,0.07494
3168.92854,0.07538
3166.99979,0.07568
3165.07105,0.07606
3163.14230,0.07652
3161.21356,0.07681
3159.28481,0.07692
3157.35607,0.07690
3155.42732,0.07707
3153.49858,0.07759
3151.56983,0.07803
3149.64109,0.07820
3147.71234,0.07836
3145.78360,0.07869
3143.85485,0.07915
3141.92611,0.07947
3139.99736,0.07966
3138.06861,0.08003
3136.13987,0.08053
3134.21112,0.08069
3132.28238,0.08052
3130.35363,0.08037
3128.42489,0.08039
3126.49614,0.08050
3124.56740,0.08064
3122.63865,0.08085
3120.70991,0.08111
3118.78116,0.08129
3116.85242,0.08149
3114.92367,0.08201
3112.99493,0.08269
3111.06618,0.08303
3109.13744,0.08299
3107.20869,0.08281
3105.27994,0.08277
3103.35120,0.08293
3101.42245,0.08311
3099.49371,0.08321
3097.56496,0.08322
3095.63622,0.08325
3093.70747,0.08341
3091.77873,0.08372
3089.84998,0.08398
3087.92124,0.08399
3085.99249,0.08389
3084.06375,0.08380
3082.13500,0.08380
3080.20626,0.08409
3078.27751,0.08453
3076.34877,0.08482
3074.42002,0.08509
3072.49127,0.08528
3070.56253,0.08509
3068.63378,0.08472
3066.70504,0.08457
3064.77629,0.08472
3062.84755,0.08492
3060.91880,0.08510
3058.99006,0.08529
3057.06131,0.08540
3055.13257,0.08538
3053.20382,0.08540
3051.27508,0.08545
3049.34633,0.08533
3047.41759,0.08512
3045.48884,0.08499
3043.56009,0.08488
3041.63135,0.08475
3039.70260,0.08475
3037.77386,0.08489
3035.84511,0.08512
3033.91637,0.08520
3031.98762,0.08492
3030.05888,0.08443
3028.13013,0.08412
3026.20139,0.08390
3024.27264,0.08349
3022.34390,0.08310
3020.41515,0.08291
3018.48641,0.08262
3016.55766,0.08203
3014.62892,0.08135
3012.70017,0.08079
3010.77142,0.08031
3008.84268,0.07973
3006.91393,0.07914
3004.98519,0.07855
3003.05644,0.07776
3001.12770,0.07684
2999.19895,0.07604
2997.27021,0.07542
2995.34146,0.07485
2993.41272,0.07418
2991.48397,0.07345
2989.55523,0.07283
2987.62648,0.07217
2985.69774,0.07123
2983.76899,0.07012
2981.84025,0.06905
2979.91150,0.06787
2977.98275,0.06639
2976.05401,0.06461
2974.12526,0.06273
2972.19652,0.06106
2970.26777,0.05953
2968.33903,0.05803
2966.41028,0.05658
2964.48154,0.05506
2962.55279,0.05365
2960.62405,0.05288
2958.69530,0.05273
2956.76656,0.05252
2954.83781,0.05180
2952.90907,0.05083
2950.98032,0.05009
2949.05157,0.04947
2947.12283,0.04852
2945.19408,0.04722
2943.26534,0.04602
2941.33659,0.04515
2939.40785,0.04434
2937.47910,0.04340
2935.55036,0.04245
2933.62161,0.04162
2931.69287,0.04115
2929.76412,0.04118
2927.83538,0.04161
2925.90663,0.04247
2923.97789,0.04399
2922.04914,0.04610
2920.12040,0.04831
2918.19165,0.05035
2916.26290,0.05201
2914.33416,0.05289
2912.40541,0.05312
2910.47667,0.05323
2908.54792,0.05334
2906.61918,0.05320
2904.69043,0.05286
2902.76169,0.05257
2900.83294,0.05254
2898.90420,0.05290
2896.97545,0.05339
2895.04671,0.05383
2893.11796,0.05427
2891.18922,0.05472
2889.26047,0.05521
2887.33172,0.05573
2885.40298,0.05622
2883.47423,0.05668
2881.54549,0.05706
2879.61674,0.05725
2877.68800,0.05736
2875.75925,0.05752
2873.83051,0.05756
2871.90176,0.05729
2869.97302,0.05686
2868.04427,0.05626
2866.11553,0.05525
2864.18678,0.05397
2862.25804,0.05268
2860.32929,0.05131
2858.40055,0.04992
2856.47180,0.04879
2854.54305,0.04845
2852.61431,0.04952
2850.68556,0.05201
2848.75682,0.05508
2846.82807,0.05789
2844.89933,0.06024
2842.97058,0.06251
2841.04184,0.06498
2839.11309,0.06726
2837.18435,0.06899
2835.25560,0.07054
2833.32686,0.07226
2831.39811,0.07395
2829.46937,0.07543
2827.54062,0.07688
2825.61188,0.07831
2823.68313,0.07947
2821.75438,0.08029
2819.82564,0.08102
2817.89689,0.08188
2815.96815,0.08273
2814.03940,0.08343
2812.11066,0.08411
2810.18191,0.08483
2808.25317,0.08535
2806.32442,0.08566
2804.39568,0.08613
2802.46693,0.08685
2800.53819,0.08763
2798.60944,0.08839
2796.68070,0.08898
2794.75195,0.08934
2792.82320,0.08973
2790.89446,0.09018
2788.96571,0.09049
2787.03697,0.09080
2785.10822,0.09129
2783.17948,0.09174
2781.25073,0.09198
2779.32199,0.09223
2777.39324,0.09260
2775.46450,0.09300
2773.53575,0.09335
2771.60701,0.09357
2769.67826,0.09371
2767.74952,0.09386
2765.82077,0.09396
2763.89203,0.09400
2761.96328,0.09403
2760.03453,0.09416
2758.10579,0.09436
2756.17704,0.09447
2754.24830,0.09449
2752.31955,0.09450
2750.39081,0.09462
2748.46206,0.09478
2746.53332,0.09491
2744.60457,0.09505
2742.67583,0.09523
2740.74708,0.09538
2738.81834,0.09530
2736.88959,0.09510
2734.96085,0.09505
2733.03210,0.09514
2731.10336,0.09520
2729.17461,0.09530
2727.24586,0.09541
2725.31712,0.09551
2723.38837,0.09562
2721.45963,0.09573
2719.53088,0.09585
2717.60214,0.09612
2715.67339,0.09649
2713.74465,0.09669
2711.81590,0.09675
2709.88716,0.09693
2707.95841,0.09715
2706.02967,0.09727
2704.10092,0.09751
2702.17218,0.09790
2700.24343,0.09824
2698.31468,0.09855
2696.38594,0.09881
2694.45719,0.09896
2692.52845,0.09914
2690.59970,0.09931
2688.67096,0.09925
2686.74221,0.09906
2684.81347,0.09904
2682.88472,0.09924
2680.95598,0.09951
2679.02723,0.09972
2677.09849,0.09983
2675.16974,0.09988
2673.24100,0.09993
2671.31225,0.09997
2669.38351,0.09989
2667.45476,0.09978
2665.52601,0.09982
2663.59727,0.10000
2661.66852,0.10012
2659.73978,0.10017
2657.81103,0.10023
2655.88229,0.10032
2653.95354,0.10048
2652.02480,0.10073
2650.09605,0.10098
2648.16731,0.10109
2646.23856,0.10104
2644.30982,0.10111
2642.38107,0.10136
2640.45233,0.10150
2638.52358,0.10155
2636.59484,0.10175
2634.66609,0.10192
2632.73734,0.10198
2630.80860,0.10224
2628.87985,0.10274
2626.95111,0.10320
2625.02236,0.10345
2623.09362,0.10351
2621.16487,0.10362
2619.23613,0.10403
2617.30738,0.10463
2615.37864,0.10508
2613.44989,0.10519
2611.52115,0.10522
2609.59240,0.10545
2607.66366,0.10577
2605.73491,0.10604
2603.80616,0.10633
2601.87742,0.10661
2599.94867,0.10674
2598.01993,0.10675
2596.09118,0.10682
2594.16244,0.10697
2592.23369,0.10710
2590.30495,0.10733
2588.37620,0.10776
2586.44746,0.10819
2584.51871,0.10840
2582.58997,0.10842
2580.66122,0.10848
2578.73248,0.10864
2576.80373,0.10886
2574.87499,0.10915
2572.94624,0.10936
2571.01749,0.10948
2569.08875,0.10969
2567.16000,0.10988
2565.23126,0.10998
2563.30251,0.11007
2561.37377,0.11011
2559.44502,0.11005
2557.51628,0.11013
2555.58753,0.11045
2553.65879,0.11064
2551.73004,0.11054
2549.80130,0.11046
2547.87255,0.11065
2545.94381,0.11088
2544.01506,0.11091
2542.08631,0.11096
2540.15757,0.11125
2538.22882,0.11152
2536.30008,0.11148
2534.37133,0.11133
2532.44259,0.11129
2530.51384,0.11144
2528.58510,0.11170
2526.65635,0.11190
2524.72761,0.11202
2522.79886,0.11223
2520.87012,0.11259
2518.94137,0.11302
2517.01263,0.11348
2515.08388,0.11390
2513.15514,0.11410
2511.22639,0.11408
2509.29764,0.11409
2507.36890,0.11424
2505.44015,0.11449
2503.51141,0.11478
2501.58266,0.11511
2499.65392,0.11550
2497.72517,0.11589
2495.79643,0.11628
2493.86768,0.11664
2491.93894,0.11692
2490.01019,0.11700
2488.08145,0.11697
2486.15270,0.11704
2484.22396,0.11724
2482.29521,0.11762
2480.36647,0.11813
2478.43772,0.11844
2476.50897,0.11843
2474.58023,0.11835
2472.65148,0.11847
2470.72274,0.11881
2468.79399,0.11925
2466.86525,0.11960
2464.93650,0.11979
2463.00776,0.11990
2461.07901,0.12001
2459.15027,0.12020
2457.22152,0.12039
2455.29278,0.12049
2453.36403,0.12054
2451.43529,0.12067
2449.50654,0.12095
2447.57779,0.12120
2445.64905,0.12135
2443.72030,0.12154
2441.79156,0.12180
2439.86281,0.12208
2437.93407,0.12236
2436.00532,0.12267
2434.07658,0.12304
2432.14783,0.12336
2430.21909,0.12342
2428.29034,0.12327
2426.36160,0.12327
2424.43285,0.12355
2422.50411,0.12392
2420.57536,0.12428
2418.64662,0.12448
2416.71787,0.12441
2414.78912,0.12439
2412.86038,0.12478
2410.93163,0.12545
2409.00289,0.12618
2407.07414,0.12672
2405.14540,0.12692
2403.21665,0.12702
2401.28791,0.12724
2399.35916,0.12749
2397.43042,0.12783
2395.50167,0.12826
2393.57293,0.12854
2391.64418,0.12866
2389.71544,0.12880
2387.78669,0.12908
2385.85795,0.12941
2383.92920,0.12970
2382.00045,0.12991
2380.07171,0.13000
2378.14296,0.13008
2376.21422,0.13028
2374.28547,0.13052
2372.35673,0.13065
2370.42798,0.13085
2368.49924,0.13119
2366.57049,0.13135
2364.64175,0.13121
2362.71300,0.13101
2360.78426,0.13093
2358.85551,0.13093
2356.92677,0.13085
2354.99802,0.13064
2353.06927,0.13043
2351.14053,0.13037
2349.21178,0.13036
2347.28304,0.13024
2345.35429,0.13006
2343.42555,0.12995
2341.49680,0.13014
2339.56806,0.13054
2337.63931,0.13073
2335.71057,0.13068
2333.78182,0.13059
2331.85308,0.13057
2329.92433,0.13067
2327.99559,0.13086
2326.06684,0.13112
2324.13810,0.13133
2322.20935,0.13147
2320.28060,0.13160
2318.35186,0.13172
2316.42311,0.13184
2314.49437,0.13203
2312.56562,0.13226
2310.63688,0.13257
2308.70813,0.13292
2306.77939,0.13314
2304.85064,0.13309
2302.92190,0.13291
2300.99315,0.13275
2299.06441,0.13262
2297.13566,0.13251
2295.20692,0.13244
2293.27817,0.13244
2291.34943,0.13258
2289.42068,0.13274
2287.49193,0.13279
2285.56319,0.13280
2283.63444,0.13267
2281.70570,0.13237
2279.77695,0.13222
2277.84821,0.13231
2275.91946,0.13241
2273.99072,0.13247
2272.06197,0.13251
2270.13323,0.13237
2268.20448,0.13209
2266.27574,0.13192
2264.34699,0.13183
2262.41825,0.13162
2260.48950,0.13131
2258.56075,0.13111
2256.63201,0.13104
2254.70326,0.13096
2252.77452,0.13081
2250.84577,0.13053
2248.91703,0.13008
2246.98828,0.12971
2245.05954,0.12960
2243.13079,0.12946
2241.20205,0.12923
2239.27330,0.12919
2237.34456,0.12939
2235.41581,0.12966
2233.48707,0.12987
2231.55832,0.12999
2229.62958,0.13001
2227.70083,0.13006
2225.77208,0.13021
2223.84334,0.13042
2221.91459,0.13056
2219.98585,0.13054
2218.05710,0.13035
2216.12836,0.13021
2214.19961,0.13030
2212.27087,0.13045
2210.34212,0.13042
2208.41338,0.13021
2206.48463,0.12992
2204.55589,0.12961
2202.62714,0.12937
2200.69840,0.12926
2198.76965,0.12914
2196.84090,0.12888
2194.91216,0.12847
2192.98341,0.12801
2191.05467,0.12758
2189.12592,0.12720
2187.19718,0.12688
2185.26843,0.12646
2183.33969,0.12588
2181.41094,0.12528
2179.48220,0.12480
2177.55345,0.12439
2175.62471,0.12390
2173.69596,0.12334
2171.76722,0.12289
2169.83847,0.12249
2167.90973,0.12204
2165.98098,0.12149
2164.05223,0.12084
2162.12349,0.12025
2160.19474,0.11973
2158.26600,0.11924
2156.33725,0.11894
2154.40851,0.11882
2152.47976,0.11862
2150.55102,0.11831
2148.62227,0.11810
2146.69353,0.11809
2144.76478,0.11824
2142.83604,0.11831
2140.90729,0.11810
2138.97855,0.11788
2137.04980,0.11784
2135.12106,0.11789
2133.19231,0.11788
2131.26356,0.11783
2129.33482,0.11785
2127.40607,0.11795
2125.47733,0.11811
2123.54858,0.11823
2121.61984,0.11825
2119.69109,0.11828
2117.76235,0.11842
2115.83360,0.11859
2113.90486,0.11876
2111.97611,0.11894
2110.04737,0.11915
2108.11862,0.11934
2106.18988,0.11945
2104.26113,0.11954
2102.33238,0.11961
2100.40364,0.11966
2098.47489,0.11969
2096.54615,0.11968
2094.61740,0.11971
2092.68866,0.11992
2090.75991,0.12017
2088.83117,0.12023
2086.90242,0.12013
2084.97368,0.12007
2083.04493,0.12003
2081.11619,0.11981
2079.18744,0.11949
2077.25870,0.11930
2075.32995,0.11926
2073.40121,0.11916
2071.47246,0.11900
2069.54371,0.11898
2067.61497,0.11899
2065.68622,0.11891
2063.75748,0.11884
2061.82873,0.11886
2059.89999,0.11880
2057.97124,0.11858
2056.04250,0.11841
2054.11375,0.11843
2052.18501,0.11846
2050.25626,0.11842
2048.32752,0.11839
2046.39877,0.11835
2044.47003,0.11838
2042.54128,0.11848
2040.61254,0.11857
2038.68379,0.11862
2036.75504,0.11864
2034.82630,0.11870
2032.89755,0.11879
2030.96881,0.11883
2029.04006,0.11880
2027.11132,0.11880
2025.18257,0.11891
2023.25383,0.11906
2021.32508,0.11908
2019.39634,0.11908
2017.46759,0.11940
2015.53885,0.12012
2013.61010,0.12104
2011.68136,0.12196
2009.75261,0.12272
2007.82386,0.12325
2005.89512,0.12373
2003.96637,0.12427
2002.03763,0.12466
2000.10888,0.12493
1998.18014,0.12530
1996.25139,0.12565
1994.32265,0.12587
1992.39390,0.12607
1990.46516,0.12625
1988.53641,0.12630
1986.60767,0.12622
1984.67892,0.12620
1982.75018,0.12631
1980.82143,0.12632
1978.89269,0.12612
1976.96394,0.12598
1975.03519,0.12600
1973.10645,0.12598
1971.17770,0.12578
1969.24896,0.12554
1967.32021,0.12545
1965.39147,0.12553
1963.46272,0.12554
1961.53398,0.12532
1959.60523,0.12506
1957.67649,0.12497
1955.74774,0.12495
1953.81900,0.12483
1951.89025,0.12462
1949.96151,0.12454
1948.03276,0.12466
1946.10402,0.12489
1944.17527,0.12512
1942.24652,0.12538
1940.31778,0.12568
1938.38903,0.12599
1936.46029,0.12638
1934.53154,0.12688
1932.60280,0.12731
1930.67405,0.12750
1928.74531,0.12768
1926.81656,0.12797
1924.88782,0.12817
1922.95907,0.12830
1921.03033,0.12849
1919.10158,0.12864
1917.17284,0.12867
1915.24409,0.12877
1913.31534,0.12885
1911.38660,0.12870
1909.45785,0.12847
1907.52911,0.12830
1905.60036,0.12810
1903.67162,0.12787
1901.74287,0.12768
1899.81413,0.12745
1897.88538,0.12722
1895.95664,0.12711
1894.02789,0.12722
1892.09915,0.12758
1890.17040,0.12800
1888.24166,0.12835
1886.31291,0.12876
1884.38417,0.12915
1882.45542,0.12927
1880.52667,0.12919
1878.59793,0.12912
1876.66918,0.12911
1874.74044,0.12905
1872.81169,0.12884
1870.88295,0.12862
1868.95420,0.12845
1867.02546,0.12828
1865.09671,0.12812
1863.16797,0.12800
1861.23922,0.12784
1859.31048,0.12749
1857.38173,0.12689
1855.45299,0.12632
1853.52424,0.12591
1851.59549,0.12557
1849.66675,0.12527
1847.73800,0.12490
1845.80926,0.12444
1843.88051,0.12398
1841.95177,0.12352
1840.02302,0.12300
1838.09428,0.12232
1836.16553,0.12157
1834.23679,0.12098
1832.30804,0.12051
1830.37930,0.11991
1828.45055,0.11912
1826.52181,0.11833
1824.59306,0.11749
1822.66432,0.11655
1820.73557,0.11565
1818.80682,0.11477
1816.87808,0.11389
1814.94933,0.11312
1813.02059,0.11239
1811.09184,0.11151
1809.16310,0.11050
1807.23435,0.10952
1805.30561,0.10857
1803.37686,0.10750
1801.44812,0.10624
1799.51937,0.10495
1797.59063,0.10374
1795.66188,0.10261
1793.73314,0.10147
1791.80439,0.10017
1789.87565,0.09875
1787.94690,0.09740
1786.01815,0.09599
1784.08941,0.09440
1782.16066,0.09269
1780.23192,0.09079
1778.30317,0.08868
1776.37443,0.08647
1774.44568,0.08405
1772.51694,0.08117
1770.58819,0.07829
1768.65945,0.07587
1766.73070,0.07357
1764.80196,0.07123
1762.87321,0.06895
1760.94447,0.06677
1759.01572,0.06486
1757.08697,0.06323
1755.15823,0.06183
1753.22948,0.06058
1751.30074,0.05933
1749.37199,0.05827
1747.44325,0.05767
1745.51450,0.05735
1743.58576,0.05702
1741.65701,0.05671
1739.72827,0.05668
1737.79952,0.05704
1735.87078,0.05761
1733.94203,0.05819
1732.01329,0.05872
1730.08454,0.05924
1728.15580,0.05970
1726.22705,0.06013
1724.29830,0.06062
1722.36956,0.06113
1720.44081,0.06163
1718.51207,0.06227
1716.58332,0.06318
1714.65458,0.06417
1712.72583,0.06504
1710.79709,0.06589
1708.86834,0.06685
1706.93960,0.06781
1705.01085,0.06857
1703.08211,0.06912
1701.15336,0.06960
1699.22462,0.06987
1697.29587,0.06991
1695.36713,0.06988
1693.43838,0.06985
1691.50963,0.06987
1689.58089,0.06981
1687.65214,0.06957
1685.72340,0.06910
1683.79465,0.06826
1681.86591,0.06744
1679.93716,0.06690
1678.00842,0.06646
1676.07967,0.06595
1674.15093,0.06534
1672.22218,0.06478
1670.29344,0.06430
1668.36469,0.06385
1666.43595,0.06353
1664.50720,0.06336
1662.57845,0.06314
1660.64971,0.06287
1658.72096,0.06262
1656.79222,0.06247
1654.86347,0.06259
1652.93473,0.06287
1651.00598,0.06296
1649.07724,0.06309
1647.14849,0.06332
1645.21975,0.06352
1643.29100,0.06360
1641.36226,0.06355
1639.43351,0.06347
1637.50477,0.06339
1635.57602,0.06312
1633.64728,0.06268
1631.71853,0.06236
1629.78978,0.06212
1627.86104,0.06181
1625.93229,0.06144
1624.00355,0.06106
1622.07480,0.06072
1620.14606,0.06059
1618.21731,0.06049
1616.28857,0.06006
1614.35982,0.05961
1612.43108,0.05944
1610.50233,0.05919
1608.57359,0.05876
1606.64484,0.05829
1604.71610,0.05785
1602.78735,0.05745
1600.85861,0.05708
1598.92986,0.05672
1597.00111,0.05640
1595.07237,0.05621
1593.14362,0.05630
1591.21488,0.05671
1589.28613,0.05737
1587.35739,0.05833
1585.42864,0.05956
1583.49990,0.06088
1581.57115,0.06218
1579.64241,0.06338
1577.71366,0.06457
1575.78492,0.06591
1573.85617,0.06718
1571.92743,0.06819
1569.99868,0.06905
1568.06993,0.06981
1566.14119,0.07053
1564.21244,0.07119
1562.28370,0.07175
1560.35495,0.07215
1558.42621,0.07206
1556.49746,0.07170
1554.56872,0.07162
1552.63997,0.07168
1550.71123,0.07158
1548.78248,0.07132
1546.85374,0.07112
1544.92499,0.07114
1542.99625,0.07130
1541.06750,0.07108
1539.13876,0.07025
1537.21001,0.06956
1535.28126,0.06905
1533.35252,0.06824
1531.42377,0.06731
1529.49503,0.06649
1527.56628,0.06554
1525.63754,0.06427
1523.70879,0.06282
1521.78005,0.06128
1519.85130,0.05982
1517.92256,0.05849
1515.99381,0.05722
1514.06507,0.05624
1512.13632,0.05558
1510.20758,0.05506
1508.27883,0.05475
1506.35008,0.05469
1504.42134,0.05482
1502.49259,0.05504
1500.56385,0.05527
1498.63510,0.05555
1496.70636,0.05602
1494.77761,0.05656
1492.84887,0.05705
1490.92012,0.05747
1488.99138,0.05752
1487.06263,0.05706
1485.13389,0.05641
1483.20514,0.05553
1481.27640,0.05419
1479.34765,0.05241
1477.41891,0.05008
1475.49016,0.04722
1473.56141,0.04464
1471.63267,0.04327
1469.70392,0.04280
1467.77518,0.04246
1465.84643,0.04223
1463.91769,0.04256
1461.98894,0.04365
1460.06020,0.04496
1458.13145,0.04592
1456.20271,0.04658
1454.27396,0.04732
1452.34522,0.04817
1450.41647,0.04895
1448.48773,0.04952
1446.55898,0.04986
1444.63024,0.05011
1442.70149,0.05033
1440.77274,0.05048
1438.84400,0.05052
1436.91525,0.05047
1434.98651,0.05044
1433.05776,0.05048
1431.12902,0.05045
1429.20027,0.05039
1427.27153,0.05050
1425.34278,0.05082
1423.41404,0.05124
1421.48529,0.05166
1419.55655,0.05197
1417.62780,0.05207
1415.69906,0.05210
1413.77031,0.05235
1411.84156,0.05280
1409.91282,0.05307
1407.98407,0.05302
1406.05533,0.05291
1404.12658,0.05296
1402.19784,0.05303
1400.26909,0.05301
1398.34035,0.05290
1396.41160,0.05261
1394.48286,0.05221
1392.55411,0.05191
1390.62537,0.05163
1388.69662,0.05121
1386.76788,0.05066
1384.83913,0.05002
1382.91039,0.04922
1380.98164,0.04841
1379.05289,0.04782
1377.12415,0.04754
1375.19540,0.04762
1373.26666,0.04795
1371.33791,0.04837
1369.40917,0.04882
1367.48042,0.04928
1365.55168,0.04973
1363.62293,0.04998
1361.69419,0.04995
1359.76544,0.04993
1357.83670,0.05008
1355.90795,0.05016
1353.97921,0.05002
1352.05046,0.04994
1350.12172,0.05005
1348.19297,0.05018
1346.26422,0.05022
1344.33548,0.05014
1342.40673,0.04999
1340.47799,0.04974
1338.54924,0.04943
1336.62050,0.04922
1334.69175,0.04921
1332.76301,0.04929
1330.83426,0.04935
1328.90552,0.04947
1326.97677,0.04961
1325.04803,0.04967
1323.11928,0.04965
1321.19054,0.04959
1319.26179,0.04952
1317.33304,0.04952
1315.40430,0.04963
1313.47555,0.04977
1311.54681,0.04994
1309.61806,0.05026
1307.68932,0.05055
1305.76057,0.05055
1303.83183,0.05037
1301.90308,0.05029
1299.97434,0.05041
1298.04559,0.05065
1296.11685,0.05083
1294.18810,0.05082
1292.25936,0.05057
1290.33061,0.05020
1288.40187,0.04983
1286.47312,0.04946
1284.54437,0.04912
1282.61563,0.04895
1280.68688,0.04897
1278.75814,0.04894
1276.82939,0.04857
1274.90065,0.04795
1272.97190,0.04737
1271.04316,0.04686
1269.11441,0.04635
1267.18567,0.04582
1265.25692,0.04520
1263.32818,0.04462
1261.39943,0.04435
1259.47069,0.04445
1257.54194,0.04481
1255.61320,0.04532
1253.68445,0.04584
1251.75570,0.04634
1249.82696,0.04682
1247.89821,0.04713
1245.96947,0.04704
1244.04072,0.04677
1242.11198,0.04668
1240.18323,0.04673
1238.25449,0.04673
1236.32574,0.04678
1234.39700,0.04697
1232.46825,0.04725
1230.53951,0.04756
1228.61076,0.04776
1226.68202,0.04786
1224.75327,0.04806
1222.82452,0.04841
1220.89578,0.04867
1218.96703,0.04875
1217.03829,0.04886
1215.10954,0.04917
1213.18080,0.04941
1211.25205,0.04940
1209.32331,0.04922
1207.39456,0.04906
1205.46582,0.04906
1203.53707,0.04911
1201.60833,0.04918
1199.67958,0.04933
1197.75084,0.04930
1195.82209,0.04902
1193.89335,0.04884
1191.96460,0.04878
1190.03585,0.04864
1188.10711,0.04841
1186.17836,0.04814
1184.24962,0.04773
1182.32087,0.04716
1180.39213,0.04672
1178.46338,0.04656
1176.53464,0.04644
1174.60589,0.04621
1172.67715,0.04595
1170.74840,0.04572
1168.81966,0.04558
1166.89091,0.04559
1164.96217,0.04576
1163.03342,0.04585
1161.10467,0.04576
1159.17593,0.04571
1157.24718,0.04567
1155.31844,0.04550
1153.38969,0.04532
1151.46095,0.04522
1149.53220,0.04508
1147.60346,0.04474
1145.67471,0.04435
1143.74597,0.04411
1141.81722,0.04388
1139.88848,0.04351
1137.95973,0.04308
1136.03099,0.04278
1134.10224,0.04263
1132.17350,0.04250
1130.24475,0.04254
1128.31600,0.04280
1126.38726,0.04306
1124.45851,0.04325
1122.52977,0.04335
1120.60102,0.04326
1118.67228,0.04320
1116.74353,0.04337
1114.81479,0.04357
1112.88604,0.04358
1110.95730,0.04358
1109.02855,0.04372
1107.09981,0.04383
1105.17106,0.04362
1103.24232,0.04313
1101.31357,0.04286
1099.38483,0.04294
1097.45608,0.04297
1095.52733,0.04287
1093.59859,0.04298
1091.66984,0.04339
1089.74110,0.04384
1087.81235,0.04417
1085.88361,0.04438
1083.95486,0.04453
1082.02612,0.04478
1080.09737,0.04516
1078.16863,0.04554
1076.23988,0.04592
1074.31114,0.04648
1072.38239,0.04718
1070.45365,0.04790
1068.52490,0.04853
1066.59615,0.04899
1064.66741,0.04955
1062.73866,0.05045
1060.80992,0.05136
1058.88117,0.05218
1056.95243,0.05303
1055.02368,0.05349
1053.09494,0.05336
1051.16619,0.05324
1049.23745,0.05341
1047.30870,0.05350
1045.37996,0.05351
1043.45121,0.05362
1041.52247,0.05363
1039.59372,0.05382
1037.66498,0.05458
1035.73623,0.05543
1033.80748,0.05596
1031.87874,0.05622
1029.94999,0.05632
1028.02125,0.05629
1026.09250,0.05622
1024.16376,0.05634
1022.23501,0.05665
1020.30627,0.05690
1018.37752,0.05726
1016.44878,0.05780
1014.52003,0.05808
1012.59129,0.05806
1010.66254,0.05806
1008.73380,0.05815
1006.80505,0.05846
1004.87631,0.05908
1002.94756,0.05965
1001.01881,0.05977
999.09007,0.05955
997.16132,0.05943
995.23258,0.05981
993.30383,0.06052
991.37509,0.06103
989.44634,0.06127
987.51760,0.06177
985.58885,0.06258
983.66011,0.06313
981.73136,0.06343
979.80262,0.06399
977.87387,0.06467
975.94513,0.06492
974.01638,0.06482
972.08763,0.06486
970.15889,0.06529
968.23014,0.06590
966.30140,0.06634
964.37265,0.06666
962.44391,0.06717
960.51516,0.06784
958.58642,0.06852
956.65767,0.06919
954.72893,0.06973
952.80018,0.07013
950.87144,0.07045
948.94269,0.07072
947.01395,0.07096
945.08520,0.07114
943.15646,0.07117
941.22771,0.07105
939.29896,0.07080
937.37022,0.07044
935.44147,0.06999
933.51273,0.06955
931.58398,0.06922
929.65524,0.06888
927.72649,0.06864
925.79775,0.06852
923.86900,0.06815
921.94026,0.06743
920.01151,0.06662
918.08277,0.06595
916.15402,0.06556
914.22528,0.06534
912.29653,0.06515
910.36779,0.06498
908.43904,0.06464
906.51029,0.06392
904.58155,0.06298
902.65280,0.06224
900.72406,0.06193
898.79531,0.06181
896.86657,0.06193
894.93782,0.06252
893.00908,0.06323
891.08033,0.06365
889.15159,0.06403
887.22284,0.06460
885.29410,0.06514
883.36535,0.06529
881.43661,0.06507
879.50786,0.06467
877.57911,0.06414
875.65037,0.06380
873.72162,0.06415
871.79288,0.06498
869.86413,0.06550
867.93539,0.06532
866.00664,0.06483
864.07790,0.06480
862.14915,0.06535
860.22041,0.06572
858.29166,0.06551
856.36292,0.06494
854.43417,0.06422
852.50543,0.06377
850.57668,0.06387
848.64794,0.06409
846.71919,0.06396
844.79044,0.06346
842.86170,0.06276
840.93295,0.06202
839.00421,0.06165
837.07546,0.06178
835.14672,0.06186
833.21797,0.06164
831.28923,0.06130
829.36048,0.06057
827.43174,0.05953
825.50299,0.05873
823.57425,0.05841
821.64550,0.05845
819.71676,0.05838
817.78801,0.05789
815.85926,0.05735
813.93052,0.05706
812.00177,0.05688
810.07303,0.05682
808.14428,0.05684
806.21554,0.05665
804.28679,0.05643
802.35805,0.05660
800.42930,0.05702
798.50056,0.05737
796.57181,0.05767
794.64307,0.05819
792.71432,0.05899
790.78558,0.05969
788.85683,0.05986
786.92809,0.05951
784.99934,0.05917
783.07059,0.05911
781.14185,0.05894
779.21310,0.05853
777.28436,0.05828
775.35561,0.05822
773.42687,0.05809
771.49812,0.05785
769.56938,0.05763
767.64063,0.05756
765.71189,0.05762
763.78314,0.05749
761.85440,0.05708
759.92565,0.05658
757.99691,0.05592
756.06816,0.05529
754.13942,0.05495
752.21067,0.05470
750.28192,0.05426
748.35318,0.05367
746.42443,0.05331
744.49569,0.05326
742.56694,0.05313
740.63820,0.05284
738.70945,0.05230
736.78071,0.05132
734.85196,0.05027
732.92322,0.04932
730.99447,0.04840
729.06573,0.04800
727.13698,0.04813
725.20824,0.04811
723.27949,0.04784
721.35074,0.04755
719.42200,0.04773
717.49325,0.04874
715.56451,0.05005
713.63576,0.05088
711.70702,0.05124
709.77827,0.05135
707.84953,0.05092
705.92078,0.05017
703.99204,0.04992
702.06329,0.05018
700.13455,0.05040
698.20580,0.05038
696.27706,0.05031
694.34831,0.05011
692.41957,0.04989
690.49082,0.05002
688.56207,0.05017
686.63333,0.04982
684.70458,0.04902
682.77584,0.04790
680.84709,0.04705
678.91835,0.04713
676.98960,0.04762
675.06086,0.04769
673.13211,0.04757
671.20337,0.04740
669.27462,0.04723
667.34588,0.04738
665.41713,0.04771
663.48839,0.04811
661.55964,0.04846
659.63090,0.04857
657.70215,0.04830
655.77340,0.04760
653.84466,0.04686
651.91591,0.04635
649.98717,0.04588
648.05842,0.04563
646.12968,0.04610
644.20093,0.04707
642.27219,0.04767
640.34344,0.04767
638.41470,0.04750
636.48595,0.04714
634.55721,0.04607
632.62846,0.04474
630.69972,0.04405
628.77097,0.04400
626.84222,0.04422
624.91348,0.04401
622.98473,0.04339
621.05599,0.04383
619.12724,0.04517
617.19850,0.04554
615.26975,0.04491
613.34101,0.04431
611.41226,0.04417
609.48352,0.04485
607.55477,0.04584
605.62603,0.04617
603.69728,0.04582
601.76854,0.04544
599.83979,0.04483
