7497.03301,0.40403
7495.10426,0.40021
7493.17552,0.40130
7491.24677,0.40333
7489.31803,0.40153
7487.38928,0.39731
7485.46054,0.39653
7483.53179,0.39962
7481.60305,0.39955
7479.67430,0.39493
7477.74556,0.39006
7475.81681,0.38731
7473.88807,0.38935
7471.95932,0.39574
7470.03057,0.40152
7468.10183,0.40482
7466.17308,0.40531
7464.24434,0.40042
7462.31559,0.39216
7460.38685,0.38796
7458.45810,0.38909
7456.52936,0.39151
7454.60061,0.39366
7452.67187,0.39337
7450.74312,0.38991
7448.81438,0.38964
7446.88563,0.39573
7444.95689,0.40069
7443.02814,0.39728
7441.09940,0.38950
7439.17065,0.38659
7437.24190,0.38746
7435.31316,0.38613
7433.38441,0.38640
7431.45567,0.38962
7429.52692,0.39116
7427.59818,0.39186
7425.66943,0.39293
7423.74069,0.39389
7421.81194,0.39545
7419.88320,0.39640
7417.95445,0.39478
7416.02571,0.39122
7414.09696,0.38946
7412.16822,0.39053
7410.23947,0.39044
7408.31073,0.38792
7406.38198,0.38695
7404.45323,0.39083
7402.52449,0.39744
7400.59574,0.40023
7398.66700,0.39745
7396.73825,0.39425
7394.80951,0.39232
7392.88076,0.39066
7390.95202,0.39059
7389.02327,0.39281
7387.09453,0.39659
7385.16578,0.39913
7383.23704,0.40006
7381.30829,0.40128
7379.37955,0.40018
7377.45080,0.39717
7375.52205,0.39511
7373.59331,0.39204
7371.66456,0.38809
7369.73582,0.38522
7367.80707,0.38430
7365.87833,0.38561
7363.94958,0.38632
7362.02084,0.38404
7360.09209,0.38093
7358.16335,0.38050
7356.23460,0.38254
7354.30586,0.38290
7352.37711,0.37958
7350.44837,0.37764
7348.51962,0.38143
7346.59088,0.38597
7344.66213,0.38794
7342.73338,0.39205
7340.80464,0.39693
7338.87589,0.39573
7336.94715,0.39265
7335.01840,0.39515
7333.08966,0.39900
7331.16091,0.39884
7329.23217,0.39622
7327.30342,0.39147
7325.37468,0.38739
7323.44593,0.38784
7321.51719,0.38854
7319.58844,0.38688
7317.65970,0.38739
7315.73095,0.39153
7313.80221,0.39410
7311.87346,0.39076
7309.94471,0.38623
7308.01597,0.38720
7306.08722,0.39201
7304.15848,0.39332
7302.22973,0.38864
7300.30099,0.38390
7298.37224,0.38399
7296.44350,0.38809
7294.51475,0.39175
7292.58601,0.39121
7290.65726,0.39005
7288.72852,0.39125
7286.79977,0.39178
7284.87103,0.39089
7282.94228,0.38952
7281.01353,0.38620
7279.08479,0.38218
7277.15604,0.38057
7275.22730,0.38096
7273.29855,0.38182
7271.36981,0.38197
7269.44106,0.38163
7267.51232,0.38269
7265.58357,0.38542
7263.65483,0.38790
7261.72608,0.38758
7259.79734,0.38565
7257.86859,0.38403
7255.93985,0.38186
7254.01110,0.38165
7252.08236,0.38465
7250.15361,0.38617
7248.22486,0.38386
7246.29612,0.38052
7244.36737,0.37826
7242.43863,0.37725
7240.50988,0.37918
7238.58114,0.38267
7236.65239,0.38365
7234.72365,0.38326
7232.79490,0.38348
7230.86616,0.38318
7228.93741,0.38318
7227.00867,0.38338
7225.07992,0.37986
7223.15118,0.37395
7221.22243,0.37324
7219.29369,0.37841
7217.36494,0.38183
7215.43619,0.38060
7213.50745,0.37831
7211.57870,0.37678
7209.64996,0.37645
7207.72121,0.37741
7205.79247,0.37785
7203.86372,0.37669
7201.93498,0.37439
7200.00623,0.37216
7198.07749,0.37219
7196.14874,0.37530
7194.22000,0.37948
7192.29125,0.38173
7190.36251,0.38065
7188.43376,0.37681
7186.50501,0.37128
7184.57627,0.36610
7182.64752,0.36298
7180.71878,0.36288
7178.79003,0.36621
7176.86129,0.36902
7174.93254,0.36931
7173.00380,0.37027
7171.07505,0.37018
7169.14631,0.36487
7167.21756,0.35857
7165.28882,0.36055
7163.36007,0.37073
7161.43133,0.37906
7159.50258,0.37940
7157.57384,0.37404
7155.64509,0.36860
7153.71634,0.36660
7151.78760,0.36916
7149.85885,0.37493
7147.93011,0.37843
7146.00136,0.37724
7144.07262,0.37493
7142.14387,0.37404
7140.21513,0.37253
7138.28638,0.36814
7136.35764,0.36440
7134.42889,0.36457
7132.50015,0.36675
7130.57140,0.36849
7128.64266,0.36824
7126.71391,0.36611
7124.78516,0.36351
7122.85642,0.36228
7120.92767,0.36421
7118.99893,0.36843
7117.07018,0.37182
7115.14144,0.37233
7113.21269,0.37088
7111.28395,0.36883
7109.35520,0.36628
7107.42646,0.36500
7105.49771,0.36601
7103.56897,0.36636
7101.64022,0.36449
7099.71148,0.36192
7097.78273,0.36082
7095.85399,0.36241
7093.92524,0.36444
7091.99649,0.36289
7090.06775,0.35837
7088.13900,0.35636
7086.21026,0.35885
7084.28151,0.36129
7082.35277,0.36012
7080.42402,0.35736
7078.49528,0.35696
7076.56653,0.35894
7074.63779,0.35947
7072.70904,0.35668
7070.78030,0.35229
7068.85155,0.34920
7066.92281,0.35059
7064.99406,0.35565
7063.06532,0.35715
7061.13657,0.35199
7059.20782,0.34628
7057.27908,0.34418
7055.35033,0.34332
7053.42159,0.34273
7051.49284,0.34339
7049.56410,0.34373
7047.63535,0.34372
7045.70661,0.34545
7043.77786,0.34770
7041.84912,0.34821
7039.92037,0.34685
7037.99163,0.34502
7036.06288,0.34470
7034.13414,0.34488
7032.20539,0.34199
7030.27664,0.33751
7028.34790,0.33615
7026.41915,0.33775
7024.49041,0.33947
7022.56166,0.33997
7020.63292,0.33996
7018.70417,0.34033
7016.77543,0.33986
7014.84668,0.33788
7012.91794,0.33633
7010.98919,0.33666
7009.06045,0.33858
7007.13170,0.34061
7005.20296,0.34088
7003.27421,0.33948
7001.34547,0.33768
6999.41672,0.33683
6997.48797,0.33807
6995.55923,0.33905
6993.63048,0.33735
6991.70174,0.33530
6989.77299,0.33489
6987.84425,0.33520
6985.91550,0.33557
6983.98676,0.33608
6982.05801,0.33595
6980.12927,0.33508
6978.20052,0.33459
6976.27178,0.33427
6974.34303,0.33448
6972.41429,0.33591
6970.48554,0.33741
6968.55680,0.33863
6966.62805,0.33908
6964.69930,0.33864
6962.77056,0.33956
6960.84181,0.33963
6958.91307,0.33550
6956.98432,0.33116
6955.05558,0.32962
6953.12683,0.32873
6951.19809,0.32771
6949.26934,0.32760
6947.34060,0.32887
6945.41185,0.33145
6943.48311,0.33414
6941.55436,0.33597
6939.62562,0.33744
6937.69687,0.33737
6935.76812,0.33417
6933.83938,0.33041
6931.91063,0.32932
6929.98189,0.32821
6928.05314,0.32370
6926.12440,0.32209
6924.19565,0.32880
6922.26691,0.33633
6920.33816,0.33755
6918.40942,0.33480
6916.48067,0.33244
6914.55193,0.33189
6912.62318,0.33167
6910.69444,0.32932
6908.76569,0.32609
6906.83695,0.32618
6904.90820,0.32938
6902.97945,0.33133
6901.05071,0.33108
6899.12196,0.33001
6897.19322,0.32849
6895.26447,0.32809
6893.33573,0.32913
6891.40698,0.33003
6889.47824,0.33212
6887.54949,0.33503
6885.62075,0.33502
6883.69200,0.33298
6881.76326,0.33261
6879.83451,0.33330
6877.90577,0.33275
6875.97702,0.33125
6874.04828,0.32973
6872.11953,0.32830
6870.19078,0.32687
6868.26204,0.32637
6866.33329,0.32793
6864.40455,0.32987
6862.47580,0.33094
6860.54706,0.33164
6858.61831,0.33148
6856.68957,0.33085
6854.76082,0.33072
6852.83208,0.33134
6850.90333,0.33258
6848.97459,0.33332
6847.04584,0.33358
6845.11710,0.33433
6843.18835,0.33467
6841.25960,0.33328
6839.33086,0.33034
6837.40211,0.32841
6835.47337,0.33027
6833.54462,0.33283
6831.61588,0.33113
6829.68713,0.32757
6827.75839,0.32743
6825.82964,0.33066
6823.90090,0.33371
6821.97215,0.33402
6820.04341,0.33132
6818.11466,0.32790
6816.18592,0.32628
6814.25717,0.32662
6812.32843,0.32856
6810.39968,0.33092
6808.47093,0.33231
6806.54219,0.33361
6804.61344,0.33445
6802.68470,0.33300
6800.75595,0.33062
6798.82721,0.32952
6796.89846,0.32991
6794.96972,0.33145
6793.04097,0.33269
6791.11223,0.33214
6789.18348,0.33112
6787.25474,0.33088
6785.32599,0.33154
6783.39725,0.33402
6781.46850,0.33679
6779.53975,0.33652
6777.61101,0.33413
6775.68226,0.33210
6773.75352,0.33093
6771.82477,0.33123
6769.89603,0.33163
6767.96728,0.33012
6766.03854,0.32945
6764.10979,0.33151
6762.18105,0.33399
6760.25230,0.33581
6758.32356,0.33687
6756.39481,0.33670
6754.46607,0.33659
6752.53732,0.33720
6750.60858,0.33642
6748.67983,0.33394
6746.75108,0.33315
6744.82234,0.33573
6742.89359,0.33930
6740.96485,0.34097
6739.03610,0.33997
6737.10736,0.33829
6735.17861,0.33787
6733.24987,0.33849
6731.32112,0.33841
6729.39238,0.33610
6727.46363,0.33385
6725.53489,0.33438
6723.60614,0.33608
6721.67740,0.33736
6719.74865,0.33785
6717.81991,0.33757
6715.89116,0.33782
6713.96241,0.33831
6712.03367,0.33791
6710.10492,0.33727
6708.17618,0.33731
6706.24743,0.33737
6704.31869,0.33702
6702.38994,0.33637
6700.46120,0.33434
6698.53245,0.33190
6696.60371,0.33247
6694.67496,0.33547
6692.74622,0.33768
6690.81747,0.33857
6688.88873,0.33861
6686.95998,0.33791
6685.03123,0.33701
6683.10249,0.33628
6681.17374,0.33559
6679.24500,0.33454
6677.31625,0.33412
6675.38751,0.33593
6673.45876,0.33886
6671.53002,0.34058
6669.60127,0.33971
6667.67253,0.33623
6665.74378,0.33336
6663.81504,0.33432
6661.88629,0.33718
6659.95755,0.33852
6658.02880,0.33919
6656.10006,0.34027
6654.17131,0.33913
6652.24256,0.33636
6650.31382,0.33585
6648.38507,0.33740
6646.45633,0.33962
6644.52758,0.34184
6642.59884,0.34172
6640.67009,0.33872
6638.74135,0.33610
6636.81260,0.33647
6634.88386,0.33818
6632.95511,0.33897
6631.02637,0.33955
6629.09762,0.34005
6627.16888,0.33906
6625.24013,0.33757
6623.31139,0.33753
6621.38264,0.33888
6619.45389,0.34182
6617.52515,0.34465
6615.59640,0.34394
6613.66766,0.34199
6611.73891,0.34269
6609.81017,0.34446
6607.88142,0.34485
6605.95268,0.34422
6604.02393,0.34343
6602.09519,0.34196
6600.16644,0.34012
6598.23770,0.33998
6596.30895,0.34227
6594.38021,0.34421
6592.45146,0.34331
6590.52271,0.34221
6588.59397,0.34385
6586.66522,0.34563
6584.73648,0.34467
6582.80773,0.34259
6580.87899,0.34206
6578.95024,0.34308
6577.02150,0.34397
6575.09275,0.34363
6573.16401,0.34192
6571.23526,0.33942
6569.30652,0.33793
6567.37777,0.33875
6565.44903,0.34062
6563.52028,0.34271
6561.59154,0.34569
6559.66279,0.34808
6557.73404,0.34889
6555.80530,0.34957
6553.87655,0.34935
6551.94781,0.34735
6550.01906,0.34519
6548.09032,0.34348
6546.16157,0.34228
6544.23283,0.34230
6542.30408,0.34280
6540.37534,0.34345
6538.44659,0.34547
6536.51785,0.34742
6534.58910,0.34708
6532.66036,0.34540
6530.73161,0.34400
6528.80287,0.34394
6526.87412,0.34418
6524.94537,0.34180
6523.01663,0.33784
6521.08788,0.33613
6519.15914,0.33744
6517.23039,0.33963
6515.30165,0.34177
6513.37290,0.34476
6511.44416,0.34736
6509.51541,0.34721
6507.58667,0.34558
6505.65792,0.34489
6503.72918,0.34517
6501.80043,0.34584
6499.87169,0.34641
6497.94294,0.34602
6496.01419,0.34507
6494.08545,0.34475
6492.15670,0.34490
6490.22796,0.34512
6488.29921,0.34609
6486.37047,0.34750
6484.44172,0.34776
6482.51298,0.34637
6480.58423,0.34490
6478.65549,0.34491
6476.72674,0.34554
6474.79800,0.34529
6472.86925,0.34413
6470.94051,0.34295
6469.01176,0.34291
6467.08302,0.34427
6465.15427,0.34591
6463.22552,0.34661
6461.29678,0.34719
6459.36803,0.34877
6457.43929,0.34955
6455.51054,0.34833
6453.58180,0.34637
6451.65305,0.34476
6449.72431,0.34492
6447.79556,0.34659
6445.86682,0.34661
6443.93807,0.34449
6442.00933,0.34369
6440.08058,0.34596
6438.15184,0.34904
6436.22309,0.35013
6434.29434,0.34992
6432.36560,0.35013
6430.43685,0.34908
6428.50811,0.34598
6426.57936,0.34370
6424.65062,0.34330
6422.72187,0.34414
6420.79313,0.34656
6418.86438,0.34947
6416.93564,0.35063
6415.00689,0.35060
6413.07815,0.35099
6411.14940,0.35082
6409.22066,0.34935
6407.29191,0.34843
6405.36317,0.34868
6403.43442,0.34811
6401.50567,0.34691
6399.57693,0.34775
6397.64818,0.34956
6395.71944,0.34970
6393.79069,0.34972
6391.86195,0.35106
6389.93320,0.35164
6388.00446,0.35028
6386.07571,0.34910
6384.14697,0.34944
6382.21822,0.34992
6380.28948,0.34998
6378.36073,0.34995
6376.43199,0.35006
6374.50324,0.35045
6372.57450,0.34997
6370.64575,0.34833
6368.71700,0.34776
6366.78826,0.34912
6364.85951,0.35075
6362.93077,0.35165
6361.00202,0.35179
6359.07328,0.35198
6357.14453,0.35280
6355.21579,0.35293
6353.28704,0.35191
6351.35830,0.35079
6349.42955,0.35029
6347.50081,0.35051
6345.57206,0.35029
6343.64332,0.34981
6341.71457,0.35043
6339.78582,0.35097
6337.85708,0.34977
6335.92833,0.34764
6333.99959,0.34656
6332.07084,0.34770
6330.14210,0.34986
6328.21335,0.35079
6326.28461,0.35069
6324.35586,0.35089
6322.42712,0.35043
6320.49837,0.34890
6318.56963,0.34829
6316.64088,0.34904
6314.71214,0.35015
6312.78339,0.35147
6310.85465,0.35228
6308.92590,0.35207
6306.99715,0.35174
6305.06841,0.35096
6303.13966,0.34948
6301.21092,0.34853
6299.28217,0.34817
6297.35343,0.34820
6295.42468,0.34956
6293.49594,0.35164
6291.56719,0.35217
6289.63845,0.35126
6287.70970,0.35146
6285.78096,0.35183
6283.85221,0.34993
6281.92347,0.34793
6279.99472,0.34847
6278.06598,0.35029
6276.13723,0.35137
6274.20848,0.35188
6272.27974,0.35261
6270.35099,0.35338
6268.42225,0.35375
6266.49350,0.35416
6264.56476,0.35507
6262.63601,0.35458
6260.70727,0.35219
6258.77852,0.35142
6256.84978,0.35254
6254.92103,0.35267
6252.99229,0.35218
6251.06354,0.35212
6249.13480,0.35194
6247.20605,0.35218
6245.27730,0.35330
6243.34856,0.35470
6241.41981,0.35589
6239.49107,0.35588
6237.56232,0.35390
6235.63358,0.35177
6233.70483,0.35256
6231.77609,0.35530
6229.84734,0.35656
6227.91860,0.35672
6225.98985,0.35786
6224.06111,0.35909
6222.13236,0.35868
6220.20362,0.35766
6218.27487,0.35766
6216.34613,0.35746
6214.41738,0.35616
6212.48863,0.35579
6210.55989,0.35734
6208.63114,0.35895
6206.70240,0.35928
6204.77365,0.35877
6202.84491,0.35789
6200.91616,0.35688
6198.98742,0.35588
6197.05867,0.35507
6195.12993,0.35501
6193.20118,0.35700
6191.27244,0.36026
6189.34369,0.36128
6187.41495,0.35973
6185.48620,0.35856
6183.55746,0.35910
6181.62871,0.36065
6179.69996,0.36168
6177.77122,0.36170
6175.84247,0.36141
6173.91373,0.36088
6171.98498,0.36022
6170.05624,0.35974
6168.12749,0.35956
6166.19875,0.36039
6164.27000,0.36195
6162.34126,0.36271
6160.41251,0.36327
6158.48377,0.36431
6156.55502,0.36407
6154.62628,0.36240
6152.69753,0.36091
6150.76878,0.36001
6148.84004,0.35996
6146.91129,0.36069
6144.98255,0.36148
6143.05380,0.36242
6141.12506,0.36330
6139.19631,0.36312
6137.26757,0.36196
6135.33882,0.36122
6133.41008,0.36196
6131.48133,0.36324
6129.55259,0.36355
6127.62384,0.36344
6125.69510,0.36434
6123.76635,0.36605
6121.83761,0.36678
6119.90886,0.36562
6117.98011,0.36376
6116.05137,0.36303
6114.12262,0.36394
6112.19388,0.36496
6110.26513,0.36499
6108.33639,0.36455
6106.40764,0.36452
6104.47890,0.36555
6102.55015,0.36686
6100.62141,0.36627
6098.69266,0.36357
6096.76392,0.36105
6094.83517,0.35996
6092.90643,0.35962
6090.97768,0.35953
6089.04893,0.36000
6087.12019,0.36101
6085.19144,0.36192
6083.26270,0.36195
6081.33395,0.36090
6079.40521,0.36014
6077.47646,0.36052
6075.54772,0.36114
6073.61897,0.36144
6071.69023,0.36124
6069.76148,0.36132
6067.83274,0.36271
6065.90399,0.36361
6063.97525,0.36222
6062.04650,0.36040
6060.11776,0.36046
6058.18901,0.36188
6056.26026,0.36276
6054.33152,0.36203
6052.40277,0.36023
6050.47403,0.35889
6048.54528,0.35897
6046.61654,0.36008
6044.68779,0.36077
6042.75905,0.36032
6040.83030,0.35992
6038.90156,0.36038
6036.97281,0.36066
6035.04407,0.36023
6033.11532,0.35981
6031.18658,0.35932
6029.25783,0.35875
6027.32909,0.35904
6025.40034,0.35983
6023.47159,0.36022
6021.54285,0.36068
6019.61410,0.36117
6017.68536,0.36060
6015.75661,0.35941
6013.82787,0.35881
6011.89912,0.35831
6009.97038,0.35773
6008.04163,0.35793
6006.11289,0.35791
6004.18414,0.35631
6002.25540,0.35449
6000.32665,0.35435
5998.39791,0.35508
5996.46916,0.35471
5994.54041,0.35334
5992.61167,0.35230
5990.68292,0.35196
5988.75418,0.35218
5986.82543,0.35253
5984.89669,0.35266
5982.96794,0.35295
5981.03920,0.35338
5979.11045,0.35315
5977.18171,0.35241
5975.25296,0.35259
5973.32422,0.35415
5971.39547,0.35532
5969.46673,0.35461
5967.53798,0.35326
5965.60924,0.35275
5963.68049,0.35253
5961.75174,0.35203
5959.82300,0.35158
5957.89425,0.35155
5955.96551,0.35213
5954.03676,0.35209
5952.10802,0.35079
5950.17927,0.35030
5948.25053,0.35184
5946.32178,0.35328
5944.39304,0.35269
5942.46429,0.35130
5940.53555,0.35040
5938.60680,0.34959
5936.67806,0.34893
5934.74931,0.34871
5932.82057,0.34866
5930.89182,0.34842
5928.96307,0.34786
5927.03433,0.34754
5925.10558,0.34761
5923.17684,0.34720
5921.24809,0.34601
5919.31935,0.34465
5917.39060,0.34374
5915.46186,0.34312
5913.53311,0.34226
5911.60437,0.34159
5909.67562,0.34161
5907.74688,0.34138
5905.81813,0.34072
5903.88939,0.34045
5901.96064,0.34041
5900.03189,0.34048
5898.10315,0.34116
5896.17440,0.34161
5894.24566,0.34045
5892.31691,0.33865
5890.38817,0.33778
5888.45942,0.33748
5886.53068,0.33754
5884.60193,0.33784
5882.67319,0.33709
5880.74444,0.33592
5878.81570,0.33558
5876.88695,0.33441
5874.95821,0.33215
5873.02946,0.33078
5871.10072,0.33024
5869.17197,0.32990
5867.24322,0.32994
5865.31448,0.33005
5863.38573,0.32969
5861.45699,0.32911
5859.52824,0.32884
5857.59950,0.32801
5855.67075,0.32549
5853.74201,0.32296
5851.81326,0.32215
5849.88452,0.32095
5847.95577,0.31797
5846.02703,0.31560
5844.09828,0.31478
5842.16954,0.31401
5840.24079,0.31304
5838.31205,0.31238
5836.38330,0.31187
5834.45455,0.31159
5832.52581,0.31181
5830.59706,0.31200
5828.66832,0.31127
5826.73957,0.30913
5824.81083,0.30626
5822.88208,0.30416
5820.95334,0.30347
5819.02459,0.30342
5817.09585,0.30301
5815.16710,0.30212
5813.23836,0.30109
5811.30961,0.30003
5809.38087,0.29924
5807.45212,0.29856
5805.52337,0.29732
5803.59463,0.29544
5801.66588,0.29350
5799.73714,0.29172
5797.80839,0.28994
5795.87965,0.28801
5793.95090,0.28647
5792.02216,0.28543
5790.09341,0.28373
5788.16467,0.28148
5786.23592,0.27940
5784.30718,0.27698
5782.37843,0.27481
5780.44969,0.27362
5778.52094,0.27243
5776.59220,0.27083
5774.66345,0.27005
5772.73470,0.27108
5770.80596,0.27356
5768.87721,0.27628
5766.94847,0.27848
5765.01972,0.28097
5763.09098,0.28457
5761.16223,0.28881
5759.23349,0.29321
5757.30474,0.29724
5755.37600,0.30011
5753.44725,0.30106
5751.51851,0.30070
5749.58976,0.30119
5747.66102,0.30304
5745.73227,0.30508
5743.80352,0.30702
5741.87478,0.30895
5739.94603,0.31048
5738.01729,0.31172
5736.08854,0.31295
5734.15980,0.31333
5732.23105,0.31253
5730.30231,0.31245
5728.37356,0.31426
5726.44482,0.31650
5724.51607,0.31810
5722.58733,0.31946
5720.65858,0.32025
5718.72984,0.31989
5716.80109,0.31944
5714.87235,0.31995
5712.94360,0.32036
5711.01485,0.31940
5709.08611,0.31817
5707.15736,0.31840
5705.22862,0.31911
5703.29987,0.31865
5701.37113,0.31778
5699.44238,0.31731
5697.51364,0.31658
5695.58489,0.31565
5693.65615,0.31502
5691.72740,0.31409
5689.79866,0.31238
5687.86991,0.31072
5685.94117,0.30998
5684.01242,0.30995
5682.08368,0.31002
5680.15493,0.30978
5678.22618,0.30895
5676.29744,0.30790
5674.36869,0.30696
5672.43995,0.30567
5670.51120,0.30357
5668.58246,0.30089
5666.65371,0.29889
5664.72497,0.29876
5662.79622,0.30001
5660.86748,0.30117
5658.93873,0.30200
5657.00999,0.30348
5655.08124,0.30549
5653.15250,0.30760
5651.22375,0.31021
5649.29500,0.31251
5647.36626,0.31369
5645.43751,0.31505
5643.50877,0.31715
5641.58002,0.31810
5639.65128,0.31709
5637.72253,0.31627
5635.79379,0.31667
5633.86504,0.31704
5631.93630,0.31726
5630.00755,0.31811
5628.07881,0.31921
5626.15006,0.31995
5624.22132,0.32021
5622.29257,0.32010
5620.36383,0.32007
5618.43508,0.32084
5616.50633,0.32222
5614.57759,0.32255
5612.64884,0.32139
5610.72010,0.32055
5608.79135,0.32091
5606.86261,0.32168
5604.93386,0.32266
5603.00512,0.32379
5601.07637,0.32413
5599.14763,0.32364
5597.21888,0.32330
5595.29014,0.32360
5593.36139,0.32449
5591.43265,0.32527
5589.50390,0.32514
5587.57516,0.32424
5585.64641,0.32352
5583.71766,0.32353
5581.78892,0.32360
5579.86017,0.32334
5577.93143,0.32351
5576.00268,0.32379
5574.07394,0.32304
5572.14519,0.32188
5570.21645,0.32173
5568.28770,0.32259
5566.35896,0.32347
5564.43021,0.32365
5562.50147,0.32332
5560.57272,0.32277
5558.64398,0.32207
5556.71523,0.32155
5554.78648,0.32142
5552.85774,0.32206
5550.92899,0.32319
5549.00025,0.32376
5547.07150,0.32403
5545.14276,0.32430
5543.21401,0.32406
5541.28527,0.32376
5539.35652,0.32418
5537.42778,0.32490
5535.49903,0.32490
5533.57029,0.32405
5531.64154,0.32293
5529.71280,0.32224
5527.78405,0.32238
5525.85531,0.32294
5523.92656,0.32338
5521.99781,0.32354
5520.06907,0.32375
5518.14032,0.32434
5516.21158,0.32444
5514.28283,0.32350
5512.35409,0.32250
5510.42534,0.32220
5508.49660,0.32236
5506.56785,0.32292
5504.63911,0.32358
5502.71036,0.32338
5500.78162,0.32254
5498.85287,0.32232
5496.92413,0.32288
5494.99538,0.32322
5493.06664,0.32291
5491.13789,0.32251
5489.20914,0.32231
5487.28040,0.32207
5485.35165,0.32215
5483.42291,0.32286
5481.49416,0.32365
5479.56542,0.32426
5477.63667,0.32463
5475.70793,0.32452
5473.77918,0.32477
5471.85044,0.32597
5469.92169,0.32711
5467.99295,0.32759
5466.06420,0.32742
5464.13546,0.32680
5462.20671,0.32623
5460.27796,0.32589
5458.34922,0.32575
5456.42047,0.32597
5454.49173,0.32629
5452.56298,0.32672
5450.63424,0.32748
5448.70549,0.32793
5446.77675,0.32774
5444.84800,0.32752
5442.91926,0.32706
5440.99051,0.32616
5439.06177,0.32593
5437.13302,0.32702
5435.20428,0.32865
5433.27553,0.32958
5431.34679,0.32951
5429.41804,0.32907
5427.48929,0.32892
5425.56055,0.32906
5423.63180,0.32925
5421.70306,0.32988
5419.77431,0.33080
5417.84557,0.33090
5415.91682,0.33025
5413.98808,0.32962
5412.05933,0.32945
5410.13059,0.33002
5408.20184,0.33086
5406.27310,0.33152
5404.34435,0.33227
5402.41561,0.33285
5400.48686,0.33264
5398.55811,0.33222
5396.62937,0.33237
5394.70062,0.33263
5392.77188,0.33287
5390.84313,0.33341
5388.91439,0.33404
5386.98564,0.33461
5385.05690,0.33486
5383.12815,0.33445
5381.19941,0.33410
5379.27066,0.33463
5377.34192,0.33543
5375.41317,0.33551
5373.48443,0.33509
5371.55568,0.33454
5369.62694,0.33417
5367.69819,0.33442
5365.76944,0.33494
5363.84070,0.33537
5361.91195,0.33580
5359.98321,0.33576
5358.05446,0.33509
5356.12572,0.33459
5354.19697,0.33484
5352.26823,0.33536
5350.33948,0.33532
5348.41074,0.33476
5346.48199,0.33464
5344.55325,0.33511
5342.62450,0.33548
5340.69576,0.33528
5338.76701,0.33451
5336.83827,0.33353
5334.90952,0.33276
5332.98077,0.33250
5331.05203,0.33262
5329.12328,0.33271
5327.19454,0.33262
5325.26579,0.33243
5323.33705,0.33209
5321.40830,0.33169
5319.47956,0.33151
5317.55081,0.33176
5315.62207,0.33231
5313.69332,0.33233
5311.76458,0.33093
5309.83583,0.32875
5307.90709,0.32711
5305.97834,0.32617
5304.04959,0.32555
5302.12085,0.32483
5300.19210,0.32360
5298.26336,0.32214
5296.33461,0.32114
5294.40587,0.32062
5292.47712,0.31999
5290.54838,0.31871
5288.61963,0.31692
5286.69089,0.31522
5284.76214,0.31391
5282.83340,0.31280
5280.90465,0.31148
5278.97591,0.30995
5277.04716,0.30854
5275.11842,0.30746
5273.18967,0.30649
5271.26092,0.30491
5269.33218,0.30249
5267.40343,0.29978
5265.47469,0.29753
5263.54594,0.29624
5261.61720,0.29543
5259.68845,0.29407
5257.75971,0.29200
5255.83096,0.28947
5253.90222,0.28710
5251.97347,0.28566
5250.04473,0.28456
5248.11598,0.28288
5246.18724,0.28098
5244.25849,0.27967
5242.32975,0.27887
5240.40100,0.27789
5238.47225,0.27665
5236.54351,0.27550
5234.61476,0.27436
5232.68602,0.27295
5230.75727,0.27137
5228.82853,0.27015
5226.89978,0.26946
5224.97104,0.26882
5223.04229,0.26795
5221.11355,0.26691
5219.18480,0.26614
5217.25606,0.26587
5215.32731,0.26577
5213.39857,0.26569
5211.46982,0.26548
5209.54107,0.26465
5207.61233,0.26363
5205.68358,0.26329
5203.75484,0.26358
5201.82609,0.26377
5199.89735,0.26368
5197.96860,0.26368
5196.03986,0.26374
5194.11111,0.26345
5192.18237,0.26300
5190.25362,0.26283
5188.32488,0.26301
5186.39613,0.26356
5184.46739,0.26430
5182.53864,0.26465
5180.60990,0.26455
5178.68115,0.26474
5176.75240,0.26545
5174.82366,0.26621
5172.89491,0.26634
5170.96617,0.26565
5169.03742,0.26536
5167.10868,0.26618
5165.17993,0.26690
5163.25119,0.26681
5161.32244,0.26691
5159.39370,0.26786
5157.46495,0.26905
5155.53621,0.26978
5153.60746,0.27008
5151.67872,0.27075
5149.74997,0.27225
5147.82123,0.27344
5145.89248,0.27348
5143.96373,0.27303
5142.03499,0.27289
5140.10624,0.27356
5138.17750,0.27473
5136.24875,0.27572
5134.32001,0.27626
5132.39126,0.27620
5130.46252,0.27607
5128.53377,0.27674
5126.60503,0.27793
5124.67628,0.27864
5122.74754,0.27870
5120.81879,0.27890
5118.89005,0.27951
5116.96130,0.28017
5115.03255,0.28085
5113.10381,0.28164
5111.17506,0.28210
5109.24632,0.28199
5107.31757,0.28200
5105.38883,0.28237
5103.46008,0.28262
5101.53134,0.28278
5099.60259,0.28293
5097.67385,0.28305
5095.74510,0.28328
5093.81636,0.28384
5091.88761,0.28461
5089.95887,0.28521
5088.03012,0.28596
5086.10138,0.28699
5084.17263,0.28766
5082.24388,0.28778
5080.31514,0.28784
5078.38639,0.28838
5076.45765,0.28924
5074.52890,0.28970
5072.60016,0.28985
5070.67141,0.29041
5068.74267,0.29119
5066.81392,0.29168
5064.88518,0.29202
5062.95643,0.29247
5061.02769,0.29274
5059.09894,0.29283
5057.17020,0.29334
5055.24145,0.29431
5053.31270,0.29509
5051.38396,0.29529
5049.45521,0.29509
5047.52647,0.29534
5045.59772,0.29650
5043.66898,0.29766
5041.74023,0.29788
5039.81149,0.29747
5037.88274,0.29734
5035.95400,0.29771
5034.02525,0.29811
5032.09651,0.29840
5030.16776,0.29882
5028.23902,0.29931
5026.31027,0.29962
5024.38153,0.29964
5022.45278,0.29932
5020.52403,0.29897
5018.59529,0.29937
5016.66654,0.30048
5014.73780,0.30122
5012.80905,0.30122
5010.88031,0.30111
5008.95156,0.30113
5007.02282,0.30078
5005.09407,0.30009
5003.16533,0.29974
5001.23658,0.29989
4999.30784,0.30011
4997.37909,0.29999
4995.45035,0.29966
4993.52160,0.29952
4991.59286,0.29953
4989.66411,0.29958
4987.73536,0.29967
4985.80662,0.29972
4983.87787,0.29981
4981.94913,0.29973
4980.02038,0.29922
4978.09164,0.29861
4976.16289,0.29817
4974.23415,0.29793
4972.30540,0.29798
4970.37666,0.29784
4968.44791,0.29718
4966.51917,0.29650
4964.59042,0.29603
4962.66168,0.29556
4960.73293,0.29529
4958.80418,0.29534
4956.87544,0.29541
4954.94669,0.29513
4953.01795,0.29441
4951.08920,0.29387
4949.16046,0.29411
4947.23171,0.29443
4945.30297,0.29389
4943.37422,0.29280
4941.44548,0.29198
4939.51673,0.29164
4937.58799,0.29131
4935.65924,0.29080
4933.73050,0.29028
4931.80175,0.28946
4929.87301,0.28826
4927.94426,0.28749
4926.01551,0.28738
4924.08677,0.28711
4922.15802,0.28618
4920.22928,0.28487
4918.30053,0.28370
4916.37179,0.28277
4914.44304,0.28204
4912.51430,0.28155
4910.58555,0.28088
4908.65681,0.27989
4906.72806,0.27921
4904.79932,0.27889
4902.87057,0.27814
4900.94183,0.27687
4899.01308,0.27577
4897.08434,0.27514
4895.15559,0.27514
4893.22684,0.27540
4891.29810,0.27494
4889.36935,0.27406
4887.44061,0.27349
4885.51186,0.27249
4883.58312,0.27099
4881.65437,0.27017
4879.72563,0.27001
4877.79688,0.26958
4875.86814,0.26867
4873.93939,0.26774
4872.01065,0.26722
4870.08190,0.26676
4868.15316,0.26580
4866.22441,0.26457
4864.29566,0.26364
4862.36692,0.26326
4860.43817,0.26296
4858.50943,0.26243
4856.58068,0.26182
4854.65194,0.26131
4852.72319,0.26106
4850.79445,0.26085
4848.86570,0.26020
4846.93696,0.25945
4845.00821,0.25928
4843.07947,0.25939
4841.15072,0.25920
4839.22198,0.25877
4837.29323,0.25808
4835.36449,0.25702
4833.43574,0.25605
4831.50699,0.25539
4829.57825,0.25473
4827.64950,0.25407
4825.72076,0.25375
4823.79201,0.25385
4821.86327,0.25407
4819.93452,0.25427
4818.00578,0.25429
4816.07703,0.25378
4814.14829,0.25321
4812.21954,0.25320
4810.29080,0.25322
4808.36205,0.25255
4806.43331,0.25165
4804.50456,0.25102
4802.57582,0.25048
4800.64707,0.25025
4798.71832,0.25029
4796.78958,0.25001
4794.86083,0.24960
4792.93209,0.24934
4791.00334,0.24923
4789.07460,0.24956
4787.14585,0.24995
4785.21711,0.24951
4783.28836,0.24852
4781.35962,0.24805
4779.43087,0.24840
4777.50213,0.24865
4775.57338,0.24810
4773.64464,0.24755
4771.71589,0.24775
4769.78714,0.24806
4767.85840,0.24791
4765.92965,0.24750
4764.00091,0.24719
4762.07216,0.24716
4760.14342,0.24717
4758.21467,0.24686
4756.28593,0.24631
4754.35718,0.24587
4752.42844,0.24583
4750.49969,0.24631
4748.57095,0.24706
4746.64220,0.24736
4744.71346,0.24698
4742.78471,0.24662
4740.85597,0.24669
4738.92722,0.24698
4736.99847,0.24745
4735.06973,0.24811
4733.14098,0.24852
4731.21224,0.24836
4729.28349,0.24809
4727.35475,0.24816
4725.42600,0.24853
4723.49726,0.24873
4721.56851,0.24868
4719.63977,0.24872
4717.71102,0.24867
4715.78228,0.24842
4713.85353,0.24833
4711.92479,0.24840
4709.99604,0.24839
4708.06729,0.24844
4706.13855,0.24886
4704.20980,0.24933
4702.28106,0.24925
4700.35231,0.24885
4698.42357,0.24875
4696.49482,0.24904
4694.56608,0.24929
4692.63733,0.24952
4690.70859,0.24974
4688.77984,0.24966
4686.85110,0.24966
4684.92235,0.25005
4682.99361,0.25041
4681.06486,0.25039
4679.13612,0.25035
4677.20737,0.25070
4675.27862,0.25114
4673.34988,0.25142
4671.42113,0.25184
4669.49239,0.25227
4667.56364,0.25250
4665.63490,0.25278
4663.70615,0.25303
4661.77741,0.25309
4659.84866,0.25324
4657.91992,0.25361
4655.99117,0.25424
4654.06243,0.25516
4652.13368,0.25593
4650.20494,0.25618
4648.27619,0.25616
4646.34745,0.25628
4644.41870,0.25683
4642.48995,0.25751
4640.56121,0.25782
4638.63246,0.25810
4636.70372,0.25860
4634.77497,0.25910
4632.84623,0.25956
4630.91748,0.25966
4628.98874,0.25926
4627.05999,0.25908
4625.13125,0.25946
4623.20250,0.25988
4621.27376,0.26019
4619.34501,0.26075
4617.41627,0.26154
4615.48752,0.26226
4613.55877,0.26268
4611.63003,0.26274
4609.70128,0.26256
4607.77254,0.26246
4605.84379,0.26283
4603.91505,0.26351
4601.98630,0.26400
4600.05756,0.26420
4598.12881,0.26440
4596.20007,0.26481
4594.27132,0.26516
4592.34258,0.26524
4590.41383,0.26521
4588.48509,0.26528
4586.55634,0.26554
4584.62760,0.26584
4582.69885,0.26600
4580.77010,0.26620
4578.84136,0.26659
4576.91261,0.26684
4574.98387,0.26661
4573.05512,0.26642
4571.12638,0.26661
4569.19763,0.26680
4567.26889,0.26680
4565.34014,0.26684
4563.41140,0.26689
4561.48265,0.26671
4559.55391,0.26654
4557.62516,0.26678
4555.69642,0.26727
4553.76767,0.26768
4551.83893,0.26779
4549.91018,0.26763
4547.98143,0.26748
4546.05269,0.26740
4544.12394,0.26747
4542.19520,0.26800
4540.26645,0.26864
4538.33771,0.26881
4536.40896,0.26855
4534.48022,0.26828
4532.55147,0.26829
4530.62273,0.26830
4528.69398,0.26797
4526.76524,0.26780
4524.83649,0.26823
4522.90775,0.26881
4520.97900,0.26892
4519.05025,0.26862
4517.12151,0.26833
4515.19276,0.26813
4513.26402,0.26774
4511.33527,0.26711
4509.40653,0.26651
4507.47778,0.26622
4505.54904,0.26609
4503.62029,0.26599
4501.69155,0.26584
4499.76280,0.26526
4497.83406,0.26430
4495.90531,0.26322
4493.97657,0.26219
4492.04782,0.26159
4490.11908,0.26141
4488.19033,0.26118
4486.26158,0.26041
4484.33284,0.25901
4482.40409,0.25760
4480.47535,0.25659
4478.54660,0.25563
4476.61786,0.25448
4474.68911,0.25308
4472.76037,0.25152
4470.83162,0.25025
4468.90288,0.24932
4466.97413,0.24827
4465.04539,0.24695
4463.11664,0.24563
4461.18790,0.24441
4459.25915,0.24309
4457.33041,0.24167
4455.40166,0.24019
4453.47291,0.23875
4451.54417,0.23765
4449.61542,0.23658
4447.68668,0.23505
4445.75793,0.23354
4443.82919,0.23253
4441.90044,0.23165
4439.97170,0.23048
4438.04295,0.22910
4436.11421,0.22766
4434.18546,0.22622
4432.25672,0.22503
4430.32797,0.22409
4428.39923,0.22309
4426.47048,0.22205
4424.54173,0.22111
4422.61299,0.21995
4420.68424,0.21843
4418.75550,0.21690
4416.82675,0.21550
4414.89801,0.21431
4412.96926,0.21366
4411.04052,0.21319
4409.11177,0.21231
4407.18303,0.21136
4405.25428,0.21075
4403.32554,0.21020
4401.39679,0.20945
4399.46805,0.20870
4397.53930,0.20816
4395.61056,0.20761
4393.68181,0.20679
4391.75306,0.20605
4389.82432,0.20568
4387.89557,0.20553
4385.96683,0.20531
4384.03808,0.20490
4382.10934,0.20448
4380.18059,0.20399
4378.25185,0.20321
4376.32310,0.20236
4374.39436,0.20207
4372.46561,0.20249
4370.53687,0.20269
4368.60812,0.20224
4366.67938,0.20160
4364.75063,0.20102
4362.82189,0.20046
4360.89314,0.19971
4358.96439,0.19834
4357.03565,0.19644
4355.10690,0.19456
4353.17816,0.19307
4351.24941,0.19176
4349.32067,0.19012
4347.39192,0.18820
4345.46318,0.18616
4343.53443,0.18396
4341.60569,0.18186
4339.67694,0.18003
4337.74820,0.17823
4335.81945,0.17639
4333.89071,0.17471
4331.96196,0.17308
4330.03321,0.17081
4328.10447,0.16776
4326.17572,0.16470
4324.24698,0.16237
4322.31823,0.16135
4320.38949,0.16249
4318.46074,0.16624
4316.53200,0.17147
4314.60325,0.17636
4312.67451,0.18019
4310.74576,0.18328
4308.81702,0.18598
4306.88827,0.18813
4304.95953,0.18944
4303.03078,0.18999
4301.10204,0.19046
4299.17329,0.19119
4297.24454,0.19158
4295.31580,0.19136
4293.38705,0.19088
4291.45831,0.19064
4289.52956,0.19056
4287.60082,0.19017
4285.67207,0.18961
4283.74333,0.18923
4281.81458,0.18893
4279.88584,0.18858
4277.95709,0.18802
4276.02835,0.18715
4274.09960,0.18628
4272.17086,0.18562
4270.24211,0.18494
4268.31336,0.18404
4266.38462,0.18292
4264.45587,0.18147
4262.52713,0.17959
4260.59838,0.17745
4258.66964,0.17525
4256.74089,0.17308
4254.81215,0.17117
4252.88340,0.16969
4250.95466,0.16896
4249.02591,0.16981
4247.09717,0.17253
4245.16842,0.17601
4243.23968,0.17896
4241.31093,0.18122
4239.38219,0.18293
4237.45344,0.18387
4235.52469,0.18415
4233.59595,0.18431
4231.66720,0.18434
4229.73846,0.18379
4227.80971,0.18294
4225.88097,0.18237
4223.95222,0.18184
4222.02348,0.18104
4220.09473,0.18047
4218.16599,0.18038
4216.23724,0.18059
4214.30850,0.18100
4212.37975,0.18134
4210.45101,0.18140
4208.52226,0.18130
4206.59352,0.18122
4204.66477,0.18110
4202.73602,0.18059
4200.80728,0.17945
4198.87853,0.17795
4196.94979,0.17682
4195.02104,0.17643
4193.09230,0.17651
4191.16355,0.17662
4189.23481,0.17656
4187.30606,0.17652
4185.37732,0.17665
4183.44857,0.17683
4181.51983,0.17699
4179.59108,0.17731
4177.66234,0.17774
4175.73359,0.17790
4173.80484,0.17789
4171.87610,0.17805
4169.94735,0.17840
4168.01861,0.17873
4166.08986,0.17877
4164.16112,0.17849
4162.23237,0.17825
4160.30363,0.17831
4158.37488,0.17845
4156.44614,0.17836
4154.51739,0.17826
4152.58865,0.17832
4150.65990,0.17830
4148.73116,0.17800
4146.80241,0.17761
4144.87367,0.17736
4142.94492,0.17734
4141.01617,0.17752
4139.08743,0.17759
4137.15868,0.17739
4135.22994,0.17717
4133.30119,0.17700
4131.37245,0.17684
4129.44370,0.17662
4127.51496,0.17624
4125.58621,0.17591
4123.65747,0.17581
4121.72872,0.17587
4119.79998,0.17605
4117.87123,0.17588
4115.94249,0.17505
4114.01374,0.17425
4112.08500,0.17400
4110.15625,0.17399
4108.22750,0.17367
4106.29876,0.17294
4104.37001,0.17233
4102.44127,0.17206
4100.51252,0.17164
4098.58378,0.17095
4096.65503,0.17031
4094.72629,0.16992
4092.79754,0.17004
4090.86880,0.17067
4088.94005,0.17137
4087.01131,0.17185
4085.08256,0.17198
4083.15382,0.17170
4081.22507,0.17140
4079.29632,0.17140
4077.36758,0.17176
4075.43883,0.17202
4073.51009,0.17147
4071.58134,0.17057
4069.65260,0.17009
4067.72385,0.16988
4065.79511,0.16953
4063.86636,0.16912
4061.93762,0.16881
4060.00887,0.16855
4058.08013,0.16822
4056.15138,0.16775
4054.22264,0.16744
4052.29389,0.16762
4050.36515,0.16774
4048.43640,0.16730
4046.50765,0.16687
4044.57891,0.16673
4042.65016,0.16655
4040.72142,0.16638
4038.79267,0.16619
4036.86393,0.16572
4034.93518,0.16507
4033.00644,0.16460
4031.07769,0.16439
4029.14895,0.16436
4027.22020,0.16435
4025.29146,0.16403
4023.36271,0.16346
4021.43397,0.16314
4019.50522,0.16333
4017.57648,0.16400
4015.64773,0.16464
4013.71898,0.16501
4011.79024,0.16531
4009.86149,0.16554
4007.93275,0.16566
4006.00400,0.16585
4004.07526,0.16614
4002.14651,0.16631
4000.21777,0.16640
3998.28902,0.16652
3996.36028,0.16660
3994.43153,0.16661
3992.50279,0.16666
3990.57404,0.16671
3988.64530,0.16671
3986.71655,0.16669
3984.78780,0.16668
3982.85906,0.16674
3980.93031,0.16691
3979.00157,0.16701
3977.07282,0.16706
3975.14408,0.16732
3973.21533,0.16779
3971.28659,0.16823
3969.35784,0.16857
3967.42910,0.16885
3965.50035,0.16916
3963.57161,0.16955
3961.64286,0.16981
3959.71412,0.16995
3957.78537,0.17026
3955.85663,0.17066
3953.92788,0.17095
3951.99913,0.17116
3950.07039,0.17141
3948.14164,0.17182
3946.21290,0.17234
3944.28415,0.17271
3942.35541,0.17281
3940.42666,0.17273
3938.49792,0.17256
3936.56917,0.17243
3934.64043,0.17252
3932.71168,0.17280
3930.78294,0.17304
3928.85419,0.17321
3926.92545,0.17337
3924.99670,0.17354
3923.06795,0.17383
3921.13921,0.17426
3919.21046,0.17459
3917.28172,0.17459
3915.35297,0.17451
3913.42423,0.17480
3911.49548,0.17523
3909.56674,0.17533
3907.63799,0.17528
3905.70925,0.17552
3903.78050,0.17603
3901.85176,0.17659
3899.92301,0.17697
3897.99427,0.17710
3896.06552,0.17723
3894.13678,0.17742
3892.20803,0.17752
3890.27928,0.17760
3888.35054,0.17804
3886.42179,0.17885
3884.49305,0.17940
3882.56430,0.17942
3880.63556,0.17933
3878.70681,0.17939
3876.77807,0.17964
3874.84932,0.18006
3872.92058,0.18043
3870.99183,0.18056
3869.06309,0.18072
3867.13434,0.18120
3865.20560,0.18184
3863.27685,0.18240
3861.34811,0.18288
3859.41936,0.18346
3857.49061,0.18419
3855.56187,0.18488
3853.63312,0.18533
3851.70438,0.18527
3849.77563,0.18503
3847.84689,0.18517
3845.91814,0.18565
3843.98940,0.18590
3842.06065,0.18565
3840.13191,0.18527
3838.20316,0.18525
3836.27442,0.18568
3834.34567,0.18625
3832.41693,0.18672
3830.48818,0.18692
3828.55943,0.18697
3826.63069,0.18687
3824.70194,0.18651
3822.77320,0.18635
3820.84445,0.18649
3818.91571,0.18644
3816.98696,0.18620
3815.05822,0.18600
3813.12947,0.18578
3811.20073,0.18565
3809.27198,0.18579
3807.34324,0.18626
3805.41449,0.18691
3803.48575,0.18730
3801.55700,0.18716
3799.62826,0.18677
3797.69951,0.18658
3795.77076,0.18664
3793.84202,0.18682
3791.91327,0.18684
3789.98453,0.18663
3788.05578,0.18638
3786.12704,0.18625
3784.19829,0.18618
3782.26955,0.18604
3780.34080,0.18577
3778.41206,0.18555
3776.48331,0.18555
3774.55457,0.18563
3772.62582,0.18560
3770.69708,0.18533
3768.76833,0.18489
3766.83959,0.18455
3764.91084,0.18440
3762.98209,0.18426
3761.05335,0.18387
3759.12460,0.18332
3757.19586,0.18301
3755.26711,0.18297
3753.33837,0.18293
3751.40962,0.18272
3749.48088,0.18236
3747.55213,0.18202
3745.62339,0.18159
3743.69464,0.18096
3741.76590,0.18044
3739.83715,0.18010
3737.90841,0.17985
3735.97966,0.17965
3734.05091,0.17929
3732.12217,0.17852
3730.19342,0.17755
3728.26468,0.17671
3726.33593,0.17598
3724.40719,0.17516
3722.47844,0.17427
3720.54970,0.17341
3718.62095,0.17252
3716.69221,0.17152
3714.76346,0.17048
3712.83472,0.16935
3710.90597,0.16817
3708.97723,0.16724
3707.04848,0.16636
3705.11974,0.16516
3703.19099,0.16366
3701.26224,0.16210
3699.33350,0.16068
3697.40475,0.15934
3695.47601,0.15775
3693.54726,0.15584
3691.61852,0.15397
3689.68977,0.15243
3687.76103,0.15078
3685.83228,0.14879
3683.90354,0.14682
3681.97479,0.14482
3680.04605,0.14271
3678.11730,0.14058
3676.18856,0.13819
3674.25981,0.13573
3672.33107,0.13365
3670.40232,0.13143
3668.47357,0.12888
3666.54483,0.12673
3664.61608,0.12505
3662.68734,0.12330
3660.75859,0.12139
3658.82985,0.11969
3656.90110,0.11788
3654.97236,0.11564
3653.04361,0.11363
3651.11487,0.11213
3649.18612,0.11073
3647.25738,0.10926
3645.32863,0.10788
3643.39989,0.10658
3641.47114,0.10525
3639.54239,0.10396
3637.61365,0.10284
3635.68490,0.10176
3633.75616,0.10045
3631.82741,0.09909
3629.89867,0.09791
3627.96992,0.09696
3626.04118,0.09631
3624.11243,0.09555
3622.18369,0.09432
3620.25494,0.09298
3618.32620,0.09180
3616.39745,0.09079
3614.46871,0.08999
3612.53996,0.08934
3610.61122,0.08873
3608.68247,0.08797
3606.75372,0.08691
3604.82498,0.08585
3602.89623,0.08502
3600.96749,0.08444
3599.03874,0.08402
3597.11000,0.08351
3595.18125,0.08275
3593.25251,0.08178
3591.32376,0.08091
3589.39502,0.08052
3587.46627,0.08028
3585.53753,0.07961
3583.60878,0.07868
3581.68004,0.07788
3579.75129,0.07733
3577.82254,0.07692
3575.89380,0.07634
3573.96505,0.07553
3572.03631,0.07485
3570.10756,0.07443
3568.17882,0.07406
3566.25007,0.07366
3564.32133,0.07313
3562.39258,0.07250
3560.46384,0.07193
3558.53509,0.07136
3556.60635,0.07073
3554.67760,0.07029
3552.74886,0.07019
3550.82011,0.07006
3548.89137,0.06958
3546.96262,0.06901
3545.03387,0.06863
3543.10513,0.06844
3541.17638,0.06822
3539.24764,0.06766
3537.31889,0.06695
3535.39015,0.06671
3533.46140,0.06698
3531.53266,0.06714
3529.60391,0.06681
3527.67517,0.06620
3525.74642,0.06562
3523.81768,0.06512
3521.88893,0.06471
3519.96019,0.06445
3518.03144,0.06430
3516.10270,0.06419
3514.17395,0.06412
3512.24520,0.06397
3510.31646,0.06357
3508.38771,0.06302
3506.45897,0.06255
3504.53022,0.06226
3502.60148,0.06208
3500.67273,0.06212
3498.74399,0.06241
3496.81524,0.06252
3494.88650,0.06204
3492.95775,0.06126
3491.02901,0.06071
3489.10026,0.06048
3487.17152,0.06035
3485.24277,0.06026
3483.31402,0.06028
3481.38528,0.06047
3479.45653,0.06063
3477.52779,0.06046
3475.59904,0.06007
3473.67030,0.05978
3471.74155,0.05980
3469.81281,0.06008
3467.88406,0.06023
3465.95532,0.06013
3464.02657,0.05988
3462.09783,0.05953
3460.16908,0.05895
3458.24034,0.05830
3456.31159,0.05809
3454.38285,0.05836
3452.45410,0.05862
3450.52535,0.05871
3448.59661,0.05875
3446.66786,0.05872
3444.73912,0.05855
3442.81037,0.05824
3440.88163,0.05783
3438.95288,0.05755
3437.02414,0.05764
3435.09539,0.05815
3433.16665,0.05866
3431.23790,0.05859
3429.30916,0.05797
3427.38041,0.05740
3425.45167,0.05715
3423.52292,0.05712
3421.59418,0.05719
3419.66543,0.05735
3417.73668,0.05742
3415.80794,0.05730
3413.87919,0.05716
3411.95045,0.05722
3410.02170,0.05744
3408.09296,0.05732
3406.16421,0.05679
3404.23547,0.05658
3402.30672,0.05688
3400.37798,0.05714
3398.44923,0.05707
3396.52049,0.05686
3394.59174,0.05673
3392.66300,0.05677
3390.73425,0.05688
3388.80550,0.05712
3386.87676,0.05765
3384.94801,0.05795
3383.01927,0.05757
3381.09052,0.05707
3379.16178,0.05698
3377.23303,0.05685
3375.30429,0.05641
3373.37554,0.05622
3371.44680,0.05656
3369.51805,0.05700
3367.58931,0.05722
3365.66056,0.05730
3363.73182,0.05728
3361.80307,0.05712
3359.87433,0.05722
3357.94558,0.05766
3356.01683,0.05778
3354.08809,0.05744
3352.15934,0.05707
3350.23060,0.05699
3348.30185,0.05715
3346.37311,0.05741
3344.44436,0.05778
3342.51562,0.05818
3340.58687,0.05830
3338.65813,0.05828
3336.72938,0.05846
3334.80064,0.05880
3332.87189,0.05915
3330.94315,0.05918
3329.01440,0.05887
3327.08566,0.05864
3325.15691,0.05857
3323.22816,0.05859
3321.29942,0.05891
3319.37067,0.05926
3317.44193,0.05933
3315.51318,0.05935
3313.58444,0.05948
3311.65569,0.05946
3309.72695,0.05926
3307.79820,0.05917
3305.86946,0.05929
3303.94071,0.05946
3302.01197,0.05953
3300.08322,0.05968
3298.15448,0.06003
3296.22573,0.06032
3294.29698,0.06030
3292.36824,0.06017
3290.43949,0.06035
3288.51075,0.06091
3286.58200,0.06145
3284.65326,0.06154
3282.72451,0.06136
3280.79577,0.06151
3278.86702,0.06204
3276.93828,0.06239
3275.00953,0.06221
3273.08079,0.06176
3271.15204,0.06157
3269.22330,0.06183
3267.29455,0.06226
3265.36581,0.06254
3263.43706,0.06276
3261.50831,0.06302
3259.57957,0.06330
3257.65082,0.06351
3255.72208,0.06352
3253.79333,0.06354
3251.86459,0.06390
3249.93584,0.06437
3248.00710,0.06457
3246.07835,0.06477
3244.14961,0.06525
3242.22086,0.06577
3240.29212,0.06603
3238.36337,0.06595
3236.43463,0.06573
3234.50588,0.06561
3232.57713,0.06565
3230.64839,0.06586
3228.71964,0.06612
3226.79090,0.06624
3224.86215,0.06623
3222.93341,0.06651
3221.00466,0.06720
3219.07592,0.06804
3217.14717,0.06856
3215.21843,0.06858
3213.28968,0.06869
3211.36094,0.06904
3209.43219,0.06924
3207.50345,0.06924
3205.57470,0.06918
3203.64596,0.06922
3201.71721,0.06930
3199.78846,0.06947
3197.85972,0.06987
3195.93097,0.07037
3194.00223,0.07091
3192.07348,0.07142
3190.14474,0.07167
3188.21599,0.07171
3186.28725,0.07176
3184.35850,0.07193
3182.42976,0.07234
3180.50101,0.07273
3178.57227,0.07297
3176.64352,0.07321
3174.71478,0.07346
3172.78603,0.07358
3170.85729,0.07368
3168.92854,0.07387
3166.99979,0.07405
3165.07105,0.07411
3163.14230,0.07416
3161.21356,0.07437
3159.28481,0.07477
3157.35607,0.07514
3155.42732,0.07534
3153.49858,0.07557
3151.56983,0.07598
3149.64109,0.07638
3147.71234,0.07666
3145.78360,0.07706
3143.85485,0.07769
3141.92611,0.07818
3139.99736,0.07821
3138.06861,0.07808
3136.13987,0.07806
3134.21112,0.07812
3132.28238,0.07828
3130.35363,0.07856
3128.42489,0.07894
3126.49614,0.07932
3124.56740,0.07951
3122.63865,0.07964
3120.70991,0.07986
3118.78116,0.08002
3116.85242,0.08003
3114.92367,0.08001
3112.99493,0.08014
3111.06618,0.08048
3109.13744,0.08084
3107.20869,0.08091
3105.27994,0.08081
3103.35120,0.08096
3101.42245,0.08128
3099.49371,0.08129
3097.56496,0.08119
3095.63622,0.08147
3093.70747,0.08195
3091.77873,0.08214
3089.84998,0.08202
3087.92124,0.08173
3085.99249,0.08139
3084.06375,0.08138
3082.13500,0.08187
3080.20626,0.08225
3078.27751,0.08201
3076.34877,0.08157
3074.42002,0.08153
3072.49127,0.08179
3070.56253,0.08195
3068.63378,0.08215
3066.70504,0.08256
3064.77629,0.08292
3062.84755,0.08309
3060.91880,0.08330
3058.99006,0.08368
3057.06131,0.08397
3055.13257,0.08393
3053.20382,0.08375
3051.27508,0.08382
3049.34633,0.08411
3047.41759,0.08419
3045.48884,0.08408
3043.56009,0.08407
3041.63135,0.08406
3039.70260,0.08384
3037.77386,0.08361
3035.84511,0.08360
3033.91637,0.08363
3031.98762,0.08349
3030.05888,0.08320
3028.13013,0.08274
3026.20139,0.08225
3024.27264,0.08190
3022.34390,0.08154
3020.41515,0.08102
3018.48641,0.08051
3016.55766,0.08014
3014.62892,0.07969
3012.70017,0.07911
3010.77142,0.07863
3008.84268,0.07822
3006.91393,0.07775
3004.98519,0.07721
3003.05644,0.07664
3001.12770,0.07613
2999.19895,0.07564
2997.27021,0.07506
2995.34146,0.07455
2993.41272,0.07419
2991.48397,0.07363
2989.55523,0.07265
2987.62648,0.07154
2985.69774,0.07051
2983.76899,0.06946
2981.84025,0.06834
2979.91150,0.06712
2977.98275,0.06563
2976.05401,0.06388
2974.12526,0.06212
2972.19652,0.06050
2970.26777,0.05902
2968.33903,0.05761
2966.41028,0.05617
2964.48154,0.05491
2962.55279,0.05408
2960.62405,0.05342
2958.69530,0.05259
2956.76656,0.05170
2954.83781,0.05103
2952.90907,0.05056
2950.98032,0.05007
2949.05157,0.04938
2947.12283,0.04846
2945.19408,0.04747
2943.26534,0.04639
2941.33659,0.04509
2939.40785,0.04376
2937.47910,0.04272
2935.55036,0.04195
2933.62161,0.04129
2931.69287,0.04079
2929.76412,0.04070
2927.83538,0.04110
2925.90663,0.04187
2923.97789,0.04315
2922.04914,0.04516
2920.12040,0.04761
2918.19165,0.04993
2916.26290,0.05170
2914.33416,0.05273
2912.40541,0.05311
2910.47667,0.05307
2908.54792,0.05291
2906.61918,0.05293
2904.69043,0.05296
2902.76169,0.05281
2900.83294,0.05279
2898.90420,0.05304
2896.97545,0.05333
2895.04671,0.05364
2893.11796,0.05428
2891.18922,0.05502
2889.26047,0.05550
2887.33172,0.05582
2885.40298,0.05616
2883.47423,0.05641
2881.54549,0.05663
2879.61674,0.05695
2877.68800,0.05718
2875.75925,0.05708
2873.83051,0.05671
2871.90176,0.05637
2869.97302,0.05626
2868.04427,0.05608
2866.11553,0.05541
2864.18678,0.05418
2862.25804,0.05265
2860.32929,0.05119
2858.40055,0.04992
2856.47180,0.04892
2854.54305,0.04850
2852.61431,0.04917
2850.68556,0.05119
2848.75682,0.05422
2846.82807,0.05741
2844.89933,0.06021
2842.97058,0.06268
2841.04184,0.06501
2839.11309,0.06707
2837.18435,0.06882
2835.25560,0.07039
2833.32686,0.07189
2831.39811,0.07333
2829.46937,0.07475
2827.54062,0.07614
2825.61188,0.07742
2823.68313,0.07861
2821.75438,0.07970
2819.82564,0.08069
2817.89689,0.08158
2815.96815,0.08234
2814.03940,0.08303
2812.11066,0.08376
2810.18191,0.08452
2808.25317,0.08514
2806.32442,0.08557
2804.39568,0.08606
2802.46693,0.08668
2800.53819,0.08720
2798.60944,0.08759
2796.68070,0.08802
2794.75195,0.08851
2792.82320,0.08890
2790.89446,0.08921
2788.96571,0.08968
2787.03697,0.09022
2785.10822,0.09059
2783.17948,0.09087
2781.25073,0.09126
2779.32199,0.09168
2777.39324,0.09203
2775.46450,0.09236
2773.53575,0.09261
2771.60701,0.09268
2769.67826,0.09275
2767.74952,0.09291
2765.82077,0.09306
2763.89203,0.09317
2761.96328,0.09323
2760.03453,0.09333
2758.10579,0.09348
2756.17704,0.09375
2754.24830,0.09421
2752.31955,0.09460
2750.39081,0.09461
2748.46206,0.09437
2746.53332,0.09425
2744.60457,0.09434
2742.67583,0.09438
2740.74708,0.09435
2738.81834,0.09440
2736.88959,0.09443
2734.96085,0.09436
2733.03210,0.09434
2731.10336,0.09432
2729.17461,0.09435
2727.24586,0.09457
2725.31712,0.09483
2723.38837,0.09491
2721.45963,0.09494
2719.53088,0.09509
2717.60214,0.09531
2715.67339,0.09546
2713.74465,0.09553
2711.81590,0.09566
2709.88716,0.09596
2707.95841,0.09640
2706.02967,0.09687
2704.10092,0.09716
2702.17218,0.09730
2700.24343,0.09760
2698.31468,0.09792
2696.38594,0.09799
2694.45719,0.09795
2692.52845,0.09801
2690.59970,0.09824
2688.67096,0.09851
2686.74221,0.09862
2684.81347,0.09860
2682.88472,0.09858
2680.95598,0.09864
2679.02723,0.09877
2677.09849,0.09894
2675.16974,0.09903
2673.24100,0.09903
2671.31225,0.09905
2669.38351,0.09904
2667.45476,0.09889
2665.52601,0.09871
2663.59727,0.09864
2661.66852,0.09872
2659.73978,0.09905
2657.81103,0.09952
2655.88229,0.09992
2653.95354,0.10016
2652.02480,0.10019
2650.09605,0.10015
2648.16731,0.10022
2646.23856,0.10033
2644.30982,0.10035
2642.38107,0.10046
2640.45233,0.10075
2638.52358,0.10103
2636.59484,0.10115
2634.66609,0.10125
2632.73734,0.10146
2630.80860,0.10172
2628.87985,0.10202
2626.95111,0.10232
2625.02236,0.10248
2623.09362,0.10260
2621.16487,0.10293
2619.23613,0.10329
2617.30738,0.10351
2615.37864,0.10375
2613.44989,0.10404
2611.52115,0.10421
2609.59240,0.10435
2607.66366,0.10464
2605.73491,0.10499
2603.80616,0.10529
2601.87742,0.10553
2599.94867,0.10576
2598.01993,0.10600
2596.09118,0.10629
2594.16244,0.10659
2592.23369,0.10678
2590.30495,0.10700
2588.37620,0.10745
2586.44746,0.10786
2584.51871,0.10786
2582.58997,0.10767
2580.66122,0.10767
2578.73248,0.10786
2576.80373,0.10806
2574.87499,0.10816
2572.94624,0.10817
2571.01749,0.10820
2569.08875,0.10837
2567.16000,0.10880
2565.23126,0.10926
2563.30251,0.10945
2561.37377,0.10946
2559.44502,0.10953
2557.51628,0.10966
2555.58753,0.10968
2553.65879,0.10962
2551.73004,0.10962
2549.80130,0.10973
2547.87255,0.10981
2545.94381,0.10980
2544.01506,0.10989
2542.08631,0.11022
2540.15757,0.11065
2538.22882,0.11101
2536.30008,0.11121
2534.37133,0.11120
2532.44259,0.11114
2530.51384,0.11126
2528.58510,0.11147
2526.65635,0.11166
2524.72761,0.11179
2522.79886,0.11197
2520.87012,0.11220
2518.94137,0.11233
2517.01263,0.11230
2515.08388,0.11232
2513.15514,0.11263
2511.22639,0.11309
2509.29764,0.11347
2507.36890,0.11375
2505.44015,0.11405
2503.51141,0.11432
2501.58266,0.11443
2499.65392,0.11443
2497.72517,0.11463
2495.79643,0.11509
2493.86768,0.11561
2491.93894,0.11606
2490.01019,0.11639
2488.08145,0.11655
2486.15270,0.11654
2484.22396,0.11647
2482.29521,0.11658
2480.36647,0.11691
2478.43772,0.11733
2476.50897,0.11765
2474.58023,0.11773
2472.65148,0.11778
2470.72274,0.11802
2468.79399,0.11832
2466.86525,0.11851
2464.93650,0.11874
2463.00776,0.11911
2461.07901,0.11947
2459.15027,0.11962
2457.22152,0.11957
2455.29278,0.11957
2453.36403,0.11975
2451.43529,0.12002
2449.50654,0.12024
2447.57779,0.12038
2445.64905,0.12062
2443.72030,0.12111
2441.79156,0.12165
2439.86281,0.12195
2437.93407,0.12196
2436.00532,0.12194
2434.07658,0.12207
2432.14783,0.12228
2430.21909,0.12236
2428.29034,0.12237
2426.36160,0.12260
2424.43285,0.12297
2422.50411,0.12328
2420.57536,0.12352
2418.64662,0.12375
2416.71787,0.12401
2414.78912,0.12432
2412.86038,0.12462
2410.93163,0.12492
2409.00289,0.12519
2407.07414,0.12538
2405.14540,0.12564
2403.21665,0.12608
2401.28791,0.12658
2399.35916,0.12698
2397.43042,0.12730
2395.50167,0.12761
2393.57293,0.12788
2391.64418,0.12805
2389.71544,0.12811
2387.78669,0.12817
2385.85795,0.12838
2383.92920,0.12868
2382.00045,0.12893
2380.07171,0.12907
2378.14296,0.12910
2376.21422,0.12906
2374.28547,0.12908
2372.35673,0.12930
2370.42798,0.12978
2368.49924,0.13023
2366.57049,0.13040
2364.64175,0.13039
2362.71300,0.13045
2360.78426,0.13058
2358.85551,0.13058
2356.92677,0.13035
2354.99802,0.12997
2353.06927,0.12957
2351.14053,0.12928
2349.21178,0.12914
2347.28304,0.12900
2345.35429,0.12889
2343.42555,0.12893
2341.49680,0.12913
2339.56806,0.12933
2337.63931,0.12933
2335.71057,0.12921
2333.78182,0.12919
2331.85308,0.12938
2329.92433,0.12960
2327.99559,0.12965
2326.06684,0.12962
2324.13810,0.12975
2322.20935,0.13003
2320.28060,0.13036
2318.35186,0.13055
2316.42311,0.13060
2314.49437,0.13077
2312.56562,0.13099
2310.63688,0.13106
2308.70813,0.13106
2306.77939,0.13104
2304.85064,0.13107
2302.92190,0.13118
2300.99315,0.13132
2299.06441,0.13131
2297.13566,0.13102
2295.20692,0.13075
2293.27817,0.13079
2291.34943,0.13091
2289.42068,0.13086
2287.49193,0.13085
2285.56319,0.13100
2283.63444,0.13116
2281.70570,0.13126
2279.77695,0.13123
2277.84821,0.13102
2275.91946,0.13071
2273.99072,0.13043
2272.06197,0.13036
2270.13323,0.13042
2268.20448,0.13036
2266.27574,0.13027
2264.34699,0.13015
2262.41825,0.12997
2260.48950,0.12973
2258.56075,0.12946
2256.63201,0.12926
2254.70326,0.12913
2252.77452,0.12887
2250.84577,0.12850
2248.91703,0.12812
2246.98828,0.12783
2245.05954,0.12772
2243.13079,0.12774
2241.20205,0.12776
2239.27330,0.12778
2237.34456,0.12783
2235.41581,0.12785
2233.48707,0.12789
2231.55832,0.12799
2229.62958,0.12803
2227.70083,0.12793
2225.77208,0.12781
2223.84334,0.12778
2221.91459,0.12785
2219.98585,0.12802
2218.05710,0.12819
2216.12836,0.12831
2214.19961,0.12841
2212.27087,0.12838
2210.34212,0.12817
2208.41338,0.12790
2206.48463,0.12766
2204.55589,0.12752
2202.62714,0.12744
2200.69840,0.12731
2198.76965,0.12702
2196.84090,0.12655
2194.91216,0.12602
2192.98341,0.12563
2191.05467,0.12544
2189.12592,0.12525
2187.19718,0.12492
2185.26843,0.12450
2183.33969,0.12405
2181.41094,0.12349
2179.48220,0.12286
2177.55345,0.12232
2175.62471,0.12183
2173.69596,0.12134
2171.76722,0.12085
2169.83847,0.12039
2167.90973,0.11994
2165.98098,0.11939
2164.05223,0.11878
2162.12349,0.11825
2160.19474,0.11781
2158.26600,0.11747
2156.33725,0.11729
2154.40851,0.11725
2152.47976,0.11714
2150.55102,0.11687
2148.62227,0.11664
2146.69353,0.11650
2144.76478,0.11636
2142.83604,0.11622
2140.90729,0.11619
2138.97855,0.11622
2137.04980,0.11613
2135.12106,0.11596
2133.19231,0.11591
2131.26356,0.11603
2129.33482,0.11621
2127.40607,0.11641
2125.47733,0.11660
2123.54858,0.11670
2121.61984,0.11674
2119.69109,0.11683
2117.76235,0.11700
2115.83360,0.11716
2113.90486,0.11720
2111.97611,0.11716
2110.04737,0.11715
2108.11862,0.11720
2106.18988,0.11733
2104.26113,0.11745
2102.33238,0.11743
2100.40364,0.11731
2098.47489,0.11725
2096.54615,0.11739
2094.61740,0.11767
2092.68866,0.11784
2090.75991,0.11784
2088.83117,0.11789
2086.90242,0.11804
2084.97368,0.11809
2083.04493,0.11804
2081.11619,0.11793
2079.18744,0.11774
2077.25870,0.11754
2075.32995,0.11736
2073.40121,0.11720
2071.47246,0.11721
2069.54371,0.11729
2067.61497,0.11720
2065.68622,0.11691
2063.75748,0.11669
2061.82873,0.11670
2059.89999,0.11670
2057.97124,0.11655
2056.04250,0.11639
2054.11375,0.11632
2052.18501,0.11626
2050.25626,0.11623
2048.32752,0.11637
2046.39877,0.11660
2044.47003,0.11671
2042.54128,0.11668
2040.61254,0.11663
2038.68379,0.11661
2036.75504,0.11655
2034.82630,0.11657
2032.89755,0.11670
2030.96881,0.11683
2029.04006,0.11693
2027.11132,0.11699
2025.18257,0.11709
2023.25383,0.11726
2021.32508,0.11739
2019.39634,0.11752
2017.46759,0.11789
2015.53885,0.11844
2013.61010,0.11903
2011.68136,0.11966
2009.75261,0.12044
2007.82386,0.12123
2005.89512,0.12185
2003.96637,0.12228
2002.03763,0.12260
2000.10888,0.12289
1998.18014,0.12326
1996.25139,0.12359
1994.32265,0.12371
1992.39390,0.12367
1990.46516,0.12367
1988.53641,0.12384
1986.60767,0.12417
1984.67892,0.12448
1982.75018,0.12463
1980.82143,0.12463
1978.89269,0.12453
1976.96394,0.12442
1975.03519,0.12440
1973.10645,0.12441
1971.17770,0.12433
1969.24896,0.12412
1967.32021,0.12382
1965.39147,0.12349
1963.46272,0.12318
1961.53398,0.12297
1959.60523,0.12283
1957.67649,0.12276
1955.74774,0.12285
1953.81900,0.12300
1951.89025,0.12305
1949.96151,0.12307
1948.03276,0.12313
1946.10402,0.12324
1944.17527,0.12349
1942.24652,0.12380
1940.31778,0.12412
1938.38903,0.12453
1936.46029,0.12484
1934.53154,0.12492
1932.60280,0.12507
1930.67405,0.12543
1928.74531,0.12576
1926.81656,0.12596
1924.88782,0.12618
1922.95907,0.12638
1921.03033,0.12651
1919.10158,0.12667
1917.17284,0.12689
1915.24409,0.12697
1913.31534,0.12686
1911.38660,0.12671
1909.45785,0.12656
1907.52911,0.12640
1905.60036,0.12629
1903.67162,0.12619
1901.74287,0.12601
1899.81413,0.12584
1897.88538,0.12575
1895.95664,0.12566
1894.02789,0.12564
1892.09915,0.12580
1890.17040,0.12610
1888.24166,0.12645
1886.31291,0.12682
1884.38417,0.12715
1882.45542,0.12734
1880.52667,0.12745
1878.59793,0.12752
1876.66918,0.12745
1874.74044,0.12715
1872.81169,0.12680
1870.88295,0.12663
1868.95420,0.12662
1867.02546,0.12653
1865.09671,0.12625
1863.16797,0.12590
1861.23922,0.12570
1859.31048,0.12559
1857.38173,0.12541
1855.45299,0.12509
1853.52424,0.12463
1851.59549,0.12410
1849.66675,0.12368
1847.73800,0.12336
1845.80926,0.12300
1843.88051,0.12255
1841.95177,0.12204
1840.02302,0.12151
1838.09428,0.12103
1836.16553,0.12061
1834.23679,0.12012
1832.30804,0.11951
1830.37930,0.11881
1828.45055,0.11810
1826.52181,0.11731
1824.59306,0.11632
1822.66432,0.11539
1820.73557,0.11475
1818.80682,0.11409
1816.87808,0.11323
1814.94933,0.11234
1813.02059,0.11151
1811.09184,0.11059
1809.16310,0.10954
1807.23435,0.10859
1805.30561,0.10782
1803.37686,0.10698
1801.44812,0.10585
1799.51937,0.10461
1797.59063,0.10331
1795.66188,0.10190
1793.73314,0.10043
1791.80439,0.09898
1789.87565,0.09770
1787.94690,0.09655
1786.01815,0.09533
1784.08941,0.09392
1782.16066,0.09230
1780.23192,0.09044
1778.30317,0.08838
1776.37443,0.08623
1774.44568,0.08400
1772.51694,0.08150
1770.58819,0.07883
1768.65945,0.07624
1766.73070,0.07368
1764.80196,0.07125
1762.87321,0.06902
1760.94447,0.06698
1759.01572,0.06512
1757.08697,0.06341
1755.15823,0.06196
1753.22948,0.06076
1751.30074,0.05964
1749.37199,0.05865
1747.44325,0.05785
1745.51450,0.05720
1743.58576,0.05675
1741.65701,0.05659
1739.72827,0.05665
1737.79952,0.05691
1735.87078,0.05741
1733.94203,0.05801
1732.01329,0.05842
1730.08454,0.05885
1728.15580,0.05946
1726.22705,0.06011
1724.29830,0.06079
1722.36956,0.06151
1720.44081,0.06217
1718.51207,0.06289
1716.58332,0.06364
1714.65458,0.06423
1712.72583,0.06475
1710.79709,0.06545
1708.86834,0.06633
1706.93960,0.06718
1705.01085,0.06787
1703.08211,0.06847
1701.15336,0.06908
1699.22462,0.06940
1697.29587,0.06933
1695.36713,0.06923
1693.43838,0.06920
1691.50963,0.06917
1689.58089,0.06903
1687.65214,0.06871
1685.72340,0.06820
1683.79465,0.06744
1681.86591,0.06670
1679.93716,0.06625
1678.00842,0.06587
1676.07967,0.06519
1674.15093,0.06436
1672.22218,0.06383
1670.29344,0.06342
1668.36469,0.06286
1666.43595,0.06237
1664.50720,0.06208
1662.57845,0.06190
1660.64971,0.06183
1658.72096,0.06183
1656.79222,0.06176
1654.86347,0.06176
1652.93473,0.06181
1651.00598,0.06178
1649.07724,0.06182
1647.14849,0.06179
1645.21975,0.06156
1643.29100,0.06140
1641.36226,0.06143
1639.43351,0.06163
1637.50477,0.06190
1635.57602,0.06191
1633.64728,0.06165
1631.71853,0.06146
1629.78978,0.06138
1627.86104,0.06123
1625.93229,0.06095
1624.00355,0.06062
1622.07480,0.06033
1620.14606,0.06013
1618.21731,0.05992
1616.28857,0.05949
1614.35982,0.05906
1612.43108,0.05882
1610.50233,0.05865
1608.57359,0.05847
1606.64484,0.05826
1604.71610,0.05796
1602.78735,0.05756
1600.85861,0.05711
1598.92986,0.05668
1597.00111,0.05645
1595.07237,0.05646
1593.14362,0.05670
1591.21488,0.05713
1589.28613,0.05775
1587.35739,0.05860
1585.42864,0.05967
1583.49990,0.06089
1581.57115,0.06205
1579.64241,0.06312
1577.71366,0.06433
1575.78492,0.06585
1573.85617,0.06733
1571.92743,0.06852
1569.99868,0.06938
1568.06993,0.06984
1566.14119,0.07007
1564.21244,0.07033
1562.28370,0.07072
1560.35495,0.07113
1558.42621,0.07128
1556.49746,0.07132
1554.56872,0.07140
1552.63997,0.07138
1550.71123,0.07121
1548.78248,0.07091
1546.85374,0.07062
1544.92499,0.07050
1542.99625,0.07049
1541.06750,0.07036
1539.13876,0.06975
1537.21001,0.06898
1535.28126,0.06850
1533.35252,0.06808
1531.42377,0.06747
1529.49503,0.06677
1527.56628,0.06585
1525.63754,0.06456
1523.70879,0.06324
1521.78005,0.06182
1519.85130,0.06009
1517.92256,0.05850
1515.99381,0.05730
1514.06507,0.05643
1512.13632,0.05592
1510.20758,0.05567
1508.27883,0.05536
1506.35008,0.05482
1504.42134,0.05453
1502.49259,0.05474
1500.56385,0.05522
1498.63510,0.05571
1496.70636,0.05611
1494.77761,0.05658
1492.84887,0.05711
1490.92012,0.05749
1488.99138,0.05742
1487.06263,0.05692
1485.13389,0.05627
1483.20514,0.05542
1481.27640,0.05421
1479.34765,0.05261
1477.41891,0.05032
1475.49016,0.04728
1473.56141,0.04456
1471.63267,0.04332
1469.70392,0.04308
1467.77518,0.04295
1465.84643,0.04285
1463.91769,0.04313
1461.98894,0.04404
1460.06020,0.04530
1458.13145,0.04643
1456.20271,0.04723
1454.27396,0.04783
1452.34522,0.04841
1450.41647,0.04889
1448.48773,0.04925
1446.55898,0.04960
1444.63024,0.04993
1442.70149,0.05021
1440.77274,0.05048
1438.84400,0.05056
1436.91525,0.05027
1434.98651,0.04992
1433.05776,0.04986
1431.12902,0.04998
1429.20027,0.05012
1427.27153,0.05029
1425.34278,0.05064
1423.41404,0.05122
1421.48529,0.05178
1419.55655,0.05210
1417.62780,0.05217
1415.69906,0.05223
1413.77031,0.05244
1411.84156,0.05279
1409.91282,0.05318
1407.98407,0.05340
1406.05533,0.05332
1404.12658,0.05315
1402.19784,0.05315
1400.26909,0.05315
1398.34035,0.05304
1396.41160,0.05288
1394.48286,0.05261
1392.55411,0.05224
1390.62537,0.05193
1388.69662,0.05157
1386.76788,0.05091
1384.83913,0.05006
1382.91039,0.04921
1380.98164,0.04845
1379.05289,0.04788
1377.12415,0.04768
1375.19540,0.04795
1373.26666,0.04843
1371.33791,0.04876
1369.40917,0.04894
1367.48042,0.04906
1365.55168,0.04918
1363.62293,0.04941
1361.69419,0.04974
1359.76544,0.05000
1357.83670,0.05012
1355.90795,0.05014
1353.97921,0.05014
1352.05046,0.05016
1350.12172,0.05021
1348.19297,0.05031
1346.26422,0.05035
1344.33548,0.05025
1342.40673,0.05011
1340.47799,0.05000
1338.54924,0.04988
1336.62050,0.04979
1334.69175,0.04971
1332.76301,0.04969
1330.83426,0.04982
1328.90552,0.04987
1326.97677,0.04963
1325.04803,0.04941
1323.11928,0.04944
1321.19054,0.04955
1319.26179,0.04960
1317.33304,0.04958
1315.40430,0.04958
1313.47555,0.04971
1311.54681,0.04994
1309.61806,0.05022
1307.68932,0.05049
1305.76057,0.05076
1303.83183,0.05095
1301.90308,0.05097
1299.97434,0.05084
1298.04559,0.05066
1296.11685,0.05044
1294.18810,0.05029
1292.25936,0.05031
1290.33061,0.05027
1288.40187,0.05004
1286.47312,0.04981
1284.54437,0.04950
1282.61563,0.04904
1280.68688,0.04860
1278.75814,0.04828
1276.82939,0.04803
1274.90065,0.04778
1272.97190,0.04749
1271.04316,0.04715
1269.11441,0.04660
1267.18567,0.04574
1265.25692,0.04487
1263.32818,0.04441
1261.39943,0.04452
1259.47069,0.04501
1257.54194,0.04550
1255.61320,0.04575
1253.68445,0.04582
1251.75570,0.04599
1249.82696,0.04643
1247.89821,0.04696
1245.96947,0.04720
1244.04072,0.04710
1242.11198,0.04706
1240.18323,0.04724
1238.25449,0.04745
1236.32574,0.04755
1234.39700,0.04766
1232.46825,0.04786
1230.53951,0.04807
1228.61076,0.04829
1226.68202,0.04849
1224.75327,0.04851
1222.82452,0.04844
1220.89578,0.04857
1218.96703,0.04892
1217.03829,0.04922
1215.10954,0.04927
1213.18080,0.04924
1211.25205,0.04938
1209.32331,0.04964
1207.39456,0.04976
1205.46582,0.04965
1203.53707,0.04946
1201.60833,0.04938
1199.67958,0.04943
1197.75084,0.04948
1195.82209,0.04949
1193.89335,0.04942
1191.96460,0.04917
1190.03585,0.04880
1188.10711,0.04846
1186.17836,0.04808
1184.24962,0.04764
1182.32087,0.04726
1180.39213,0.04685
1178.46338,0.04636
1176.53464,0.04599
1174.60589,0.04570
1172.67715,0.04547
1170.74840,0.04547
1168.81966,0.04561
1166.89091,0.04565
1164.96217,0.04565
1163.03342,0.04580
1161.10467,0.04596
1159.17593,0.04593
1157.24718,0.04586
1155.31844,0.04586
1153.38969,0.04571
1151.46095,0.04543
1149.53220,0.04522
1147.60346,0.04506
1145.67471,0.04479
1143.74597,0.04434
1141.81722,0.04383
1139.88848,0.04332
1137.95973,0.04267
1136.03099,0.04212
1134.10224,0.04209
1132.17350,0.04240
1130.24475,0.04255
1128.31600,0.04260
1126.38726,0.04282
1124.45851,0.04306
1122.52977,0.04313
1120.60102,0.04313
1118.67228,0.04319
1116.74353,0.04318
1114.81479,0.04307
1112.88604,0.04321
1110.95730,0.04354
1109.02855,0.04359
1107.09981,0.04336
1105.17106,0.04333
1103.24232,0.04339
1101.31357,0.04331
1099.38483,0.04334
1097.45608,0.04346
1095.52733,0.04346
1093.59859,0.04337
1091.66984,0.04322
1089.74110,0.04324
1087.81235,0.04357
1085.88361,0.04407
1083.95486,0.04453
1082.02612,0.04495
1080.09737,0.04521
1078.16863,0.04537
1076.23988,0.04586
1074.31114,0.04661
1072.38239,0.04722
1070.45365,0.04775
1068.52490,0.04831
1066.59615,0.04891
1064.66741,0.04961
1062.73866,0.05038
1060.80992,0.05124
1058.88117,0.05206
1056.95243,0.05258
1055.02368,0.05284
1053.09494,0.05307
1051.16619,0.05321
1049.23745,0.05316
1047.30870,0.05305
1045.37996,0.05315
1043.45121,0.05362
1041.52247,0.05425
1039.59372,0.05480
1037.66498,0.05539
1035.73623,0.05594
1033.80748,0.05627
1031.87874,0.05631
1029.94999,0.05623
1028.02125,0.05637
1026.09250,0.05661
1024.16376,0.05656
1022.23501,0.05639
1020.30627,0.05658
1018.37752,0.05703
1016.44878,0.05738
1014.52003,0.05777
1012.59129,0.05837
1010.66254,0.05887
1008.73380,0.05897
1006.80505,0.05902
1004.87631,0.05930
1002.94756,0.05962
1001.01881,0.05976
999.09007,0.05967
997.16132,0.05954
995.23258,0.05975
993.30383,0.06032
991.37509,0.06094
989.44634,0.06140
987.51760,0.06184
985.58885,0.06250
983.66011,0.06323
981.73136,0.06381
979.80262,0.06416
977.87387,0.06426
975.94513,0.06434
974.01638,0.06460
972.08763,0.06491
970.15889,0.06506
968.23014,0.06521
966.30140,0.06585
964.37265,0.06699
962.44391,0.06784
960.51516,0.06823
958.58642,0.06882
956.65767,0.06959
954.72893,0.07015
952.80018,0.07051
950.87144,0.07077
948.94269,0.07091
947.01395,0.07087
945.08520,0.07081
943.15646,0.07080
941.22771,0.07062
939.29896,0.07028
937.37022,0.07006
935.44147,0.06980
933.51273,0.06933
931.58398,0.06899
929.65524,0.06889
927.72649,0.06883
925.79775,0.06862
923.86900,0.06811
921.94026,0.06745
920.01151,0.06697
918.08277,0.06676
916.15402,0.06649
914.22528,0.06609
912.29653,0.06561
910.36779,0.06493
908.43904,0.06414
906.51029,0.06339
904.58155,0.06264
902.65280,0.06207
900.72406,0.06181
898.79531,0.06164
896.86657,0.06155
894.93782,0.06179
893.00908,0.06241
891.08033,0.06316
889.15159,0.06365
887.22284,0.06370
885.29410,0.06364
883.36535,0.06372
881.43661,0.06394
879.50786,0.06428
877.57911,0.06458
875.65037,0.06452
873.72162,0.06421
871.79288,0.06417
869.86413,0.06442
867.93539,0.06458
866.00664,0.06438
864.07790,0.06406
862.14915,0.06391
860.22041,0.06386
858.29166,0.06375
856.36292,0.06373
854.43417,0.06394
852.50543,0.06407
850.57668,0.06383
848.64794,0.06349
846.71919,0.06311
844.79044,0.06256
842.86170,0.06184
840.93295,0.06124
839.00421,0.06095
837.07546,0.06075
835.14672,0.06039
833.21797,0.06014
831.28923,0.06013
829.36048,0.05996
827.43174,0.05949
825.50299,0.05878
823.57425,0.05789
821.64550,0.05723
819.71676,0.05706
817.78801,0.05706
815.85926,0.05680
813.93052,0.05631
812.00177,0.05596
810.07303,0.05589
808.14428,0.05587
806.21554,0.05583
804.28679,0.05578
802.35805,0.05576
800.42930,0.05605
798.50056,0.05649
796.57181,0.05679
794.64307,0.05714
792.71432,0.05757
790.78558,0.05791
788.85683,0.05820
786.92809,0.05850
784.99934,0.05875
783.07059,0.05890
781.14185,0.05897
779.21310,0.05885
777.28436,0.05847
775.35561,0.05803
773.42687,0.05768
771.49812,0.05742
769.56938,0.05721
767.64063,0.05697
765.71189,0.05661
763.78314,0.05621
761.85440,0.05593
759.92565,0.05578
757.99691,0.05568
756.06816,0.05540
754.13942,0.05469
752.21067,0.05378
750.28192,0.05311
748.35318,0.05283
746.42443,0.05259
744.49569,0.05214
742.56694,0.05179
740.63820,0.05166
738.70945,0.05143
736.78071,0.05071
734.85196,0.04948
732.92322,0.04820
730.99447,0.04753
729.06573,0.04751
727.13698,0.04745
725.20824,0.04708
723.27949,0.04670
721.35074,0.04676
719.42200,0.04733
717.49325,0.04800
715.56451,0.04863
713.63576,0.04918
711.70702,0.04951
709.77827,0.04971
707.84953,0.04972
705.92078,0.04943
703.99204,0.04904
702.06329,0.04885
700.13455,0.04912
698.20580,0.04961
696.27706,0.04965
694.34831,0.04901
692.41957,0.04814
690.49082,0.04760
688.56207,0.04773
686.63333,0.04852
684.70458,0.04926
682.77584,0.04926
680.84709,0.04857
678.91835,0.04766
676.98960,0.04686
675.06086,0.04637
673.13211,0.04620
671.20337,0.04632
669.27462,0.04641
667.34588,0.04613
665.41713,0.04613
663.48839,0.04699
661.55964,0.04753
659.63090,0.04685
657.70215,0.04622
655.77340,0.04657
653.84466,0.04693
651.91591,0.04667
649.98717,0.04637
648.05842,0.04647
646.12968,0.04656
644.20093,0.04621
642.27219,0.04569
640.34344,0.04508
638.41470,0.04435
636.48595,0.04352
634.55721,0.04267
632.62846,0.04268
630.69972,0.04368
628.77097,0.04503
626.84222,0.04608
624.91348,0.04608
622.98473,0.04524
621.05599,0.04464
619.12724,0.04456
617.19850,0.04438
615.26975,0.04449
613.34101,0.04551
611.41226,0.04619
609.48352,0.04541
607.55477,0.04401
605.62603,0.04340
603.69728,0.04358
601.76854,0.04376
599.83979,0.04405
