7497.03301,0.39729
7495.10426,0.39852
7493.17552,0.39943
7491.24677,0.40150
7489.31803,0.40477
7487.38928,0.40471
7485.46054,0.40161
7483.53179,0.39935
7481.60305,0.39849
7479.67430,0.39905
7477.74556,0.40174
7475.81681,0.40392
7473.88807,0.40270
7471.95932,0.39935
7470.03057,0.39574
7468.10183,0.39404
7466.17308,0.39498
7464.24434,0.39492
7462.31559,0.39317
7460.38685,0.39194
7458.45810,0.39051
7456.52936,0.39108
7454.60061,0.39709
7452.67187,0.40295
7450.74312,0.40254
7448.81438,0.39973
7446.88563,0.39841
7444.95689,0.39703
7443.02814,0.39377
7441.09940,0.39009
7439.17065,0.39013
7437.24190,0.39434
7435.31316,0.39762
7433.38441,0.39745
7431.45567,0.39552
7429.52692,0.39256
7427.59818,0.38965
7425.66943,0.38878
7423.74069,0.39106
7421.81194,0.39706
7419.88320,0.40372
7417.95445,0.40558
7416.02571,0.40213
7414.09696,0.39768
7412.16822,0.39504
7410.23947,0.39430
7408.31073,0.39523
7406.38198,0.39593
7404.45323,0.39513
7402.52449,0.39449
7400.59574,0.39397
7398.66700,0.39242
7396.73825,0.39020
7394.80951,0.38957
7392.88076,0.39078
7390.95202,0.39048
7389.02327,0.39045
7387.09453,0.39409
7385.16578,0.39713
7383.23704,0.39472
7381.30829,0.38901
7379.37955,0.38651
7377.45080,0.38897
7375.52205,0.39276
7373.59331,0.39562
7371.66456,0.39709
7369.73582,0.39761
7367.80707,0.39683
7365.87833,0.39428
7363.94958,0.39081
7362.02084,0.38776
7360.09209,0.38819
7358.16335,0.39046
7356.23460,0.38996
7354.30586,0.38997
7352.37711,0.39340
7350.44837,0.39648
7348.51962,0.39827
7346.59088,0.40050
7344.66213,0.40161
7342.73338,0.39980
7340.80464,0.39731
7338.87589,0.39577
7336.94715,0.39270
7335.01840,0.38880
7333.08966,0.38716
7331.16091,0.38623
7329.23217,0.38637
7327.30342,0.39007
7325.37468,0.39325
7323.44593,0.39226
7321.51719,0.38976
7319.58844,0.38755
7317.65970,0.38566
7315.73095,0.38656
7313.80221,0.39035
7311.87346,0.39223
7309.94471,0.39065
7308.01597,0.38896
7306.08722,0.38951
7304.15848,0.39141
7302.22973,0.39304
7300.30099,0.39357
7298.37224,0.39254
7296.44350,0.39152
7294.51475,0.39165
7292.58601,0.39189
7290.65726,0.39195
7288.72852,0.39233
7286.79977,0.39384
7284.87103,0.39520
7282.94228,0.39466
7281.01353,0.39326
7279.08479,0.39036
7277.15604,0.38647
7275.22730,0.38506
7273.29855,0.38545
7271.36981,0.38413
7269.44106,0.37954
7267.51232,0.37499
7265.58357,0.37575
7263.65483,0.38099
7261.72608,0.38527
7259.79734,0.38725
7257.86859,0.38995
7255.93985,0.39176
7254.01110,0.38963
7252.08236,0.38686
7250.15361,0.38658
7248.22486,0.38832
7246.29612,0.39001
7244.36737,0.38955
7242.43863,0.38712
7240.50988,0.38522
7238.58114,0.38622
7236.65239,0.38775
7234.72365,0.38727
7232.79490,0.38593
7230.86616,0.38373
7228.93741,0.38157
7227.00867,0.38129
7225.07992,0.38118
7223.15118,0.38014
7221.22243,0.38060
7219.29369,0.38356
7217.36494,0.38667
7215.43619,0.38807
7213.50745,0.38808
7211.57870,0.38798
7209.64996,0.38730
7207.72121,0.38449
7205.79247,0.38158
7203.86372,0.38063
7201.93498,0.37890
7200.00623,0.37670
7198.07749,0.37867
7196.14874,0.38316
7194.22000,0.38406
7192.29125,0.38011
7190.36251,0.37471
7188.43376,0.37169
7186.50501,0.37182
7184.57627,0.37387
7182.64752,0.37718
7180.71878,0.37991
7178.79003,0.38055
7176.86129,0.38095
7174.93254,0.38191
7173.00380,0.38102
7171.07505,0.37826
7169.14631,0.37604
7167.21756,0.37561
7165.28882,0.37590
7163.36007,0.37353
7161.43133,0.36899
7159.50258,0.36780
7157.57384,0.37037
7155.64509,0.37193
7153.71634,0.37129
7151.78760,0.37129
7149.85885,0.37259
7147.93011,0.37341
7146.00136,0.37426
7144.07262,0.37616
7142.14387,0.37719
7140.21513,0.37581
7138.28638,0.37294
7136.35764,0.37023
7134.42889,0.36921
7132.50015,0.37012
7130.57140,0.37155
7128.64266,0.37332
7126.71391,0.37505
7124.78516,0.37444
7122.85642,0.37231
7120.92767,0.37122
7118.99893,0.37043
7117.07018,0.36844
7115.14144,0.36611
7113.21269,0.36639
7111.28395,0.36818
7109.35520,0.36670
7107.42646,0.36481
7105.49771,0.36803
7103.56897,0.37241
7101.64022,0.37244
7099.71148,0.36847
7097.78273,0.36326
7095.85399,0.36191
7093.92524,0.36635
7091.99649,0.36976
7090.06775,0.36837
7088.13900,0.36566
7086.21026,0.36335
7084.28151,0.36237
7082.35277,0.36432
7080.42402,0.36666
7078.49528,0.36406
7076.56653,0.35784
7074.63779,0.35426
7072.70904,0.35353
7070.78030,0.35437
7068.85155,0.35809
7066.92281,0.36035
7064.99406,0.35727
7063.06532,0.35374
7061.13657,0.35276
7059.20782,0.35126
7057.27908,0.34978
7055.35033,0.35034
7053.42159,0.35113
7051.49284,0.35227
7049.56410,0.35453
7047.63535,0.35477
7045.70661,0.35164
7043.77786,0.34831
7041.84912,0.34774
7039.92037,0.34796
7037.99163,0.34597
7036.06288,0.34495
7034.13414,0.34713
7032.20539,0.34954
7030.27664,0.35066
7028.34790,0.34997
7026.41915,0.34824
7024.49041,0.34781
7022.56166,0.34770
7020.63292,0.34657
7018.70417,0.34447
7016.77543,0.34196
7014.84668,0.34232
7012.91794,0.34592
7010.98919,0.34826
7009.06045,0.34731
7007.13170,0.34502
7005.20296,0.34356
7003.27421,0.34291
7001.34547,0.34221
6999.41672,0.34160
6997.48797,0.34168
6995.55923,0.34199
6993.63048,0.34130
6991.70174,0.34010
6989.77299,0.33915
6987.84425,0.33879
6985.91550,0.33981
6983.98676,0.34040
6982.05801,0.33912
6980.12927,0.33839
6978.20052,0.33888
6976.27178,0.33779
6974.34303,0.33467
6972.41429,0.33302
6970.48554,0.33448
6968.55680,0.33690
6966.62805,0.33809
6964.69930,0.33648
6962.77056,0.33309
6960.84181,0.33189
6958.91307,0.33377
6956.98432,0.33645
6955.05558,0.33826
6953.12683,0.33898
6951.19809,0.33886
6949.26934,0.33695
6947.34060,0.33456
6945.41185,0.33412
6943.48311,0.33438
6941.55436,0.33450
6939.62562,0.33443
6937.69687,0.33363
6935.76812,0.33366
6933.83938,0.33475
6931.91063,0.33572
6929.98189,0.33631
6928.05314,0.33628
6926.12440,0.33693
6924.19565,0.33899
6922.26691,0.33965
6920.33816,0.33800
6918.40942,0.33612
6916.48067,0.33388
6914.55193,0.33088
6912.62318,0.32956
6910.69444,0.33099
6908.76569,0.33314
6906.83695,0.33455
6904.90820,0.33473
6902.97945,0.33324
6901.05071,0.33186
6899.12196,0.33257
6897.19322,0.33348
6895.26447,0.33325
6893.33573,0.33354
6891.40698,0.33388
6889.47824,0.33453
6887.54949,0.33699
6885.62075,0.33835
6883.69200,0.33739
6881.76326,0.33655
6879.83451,0.33609
6877.90577,0.33596
6875.97702,0.33612
6874.04828,0.33573
6872.11953,0.33512
6870.19078,0.33383
6868.26204,0.33126
6866.33329,0.32899
6864.40455,0.32860
6862.47580,0.33028
6860.54706,0.33298
6858.61831,0.33499
6856.68957,0.33581
6854.76082,0.33611
6852.83208,0.33558
6850.90333,0.33367
6848.97459,0.33082
6847.04584,0.32935
6845.11710,0.33174
6843.18835,0.33569
6841.25960,0.33671
6839.33086,0.33527
6837.40211,0.33558
6835.47337,0.33797
6833.54462,0.33771
6831.61588,0.33533
6829.68713,0.33594
6827.75839,0.33720
6825.82964,0.33558
6823.90090,0.33424
6821.97215,0.33470
6820.04341,0.33620
6818.11466,0.33900
6816.18592,0.34160
6814.25717,0.34146
6812.32843,0.33799
6810.39968,0.33441
6808.47093,0.33400
6806.54219,0.33560
6804.61344,0.33778
6802.68470,0.34006
6800.75595,0.34022
6798.82721,0.33826
6796.89846,0.33668
6794.96972,0.33538
6793.04097,0.33327
6791.11223,0.33163
6789.18348,0.33248
6787.25474,0.33480
6785.32599,0.33536
6783.39725,0.33376
6781.46850,0.33253
6779.53975,0.33361
6777.61101,0.33577
6775.68226,0.33621
6773.75352,0.33554
6771.82477,0.33490
6769.89603,0.33468
6767.96728,0.33649
6766.03854,0.33925
6764.10979,0.34097
6762.18105,0.34060
6760.25230,0.33722
6758.32356,0.33417
6756.39481,0.33501
6754.46607,0.33811
6752.53732,0.34085
6750.60858,0.34183
6748.67983,0.34092
6746.75108,0.34019
6744.82234,0.34060
6742.89359,0.34120
6740.96485,0.34145
6739.03610,0.33980
6737.10736,0.33618
6735.17861,0.33460
6733.24987,0.33657
6731.32112,0.33813
6729.39238,0.33649
6727.46363,0.33444
6725.53489,0.33524
6723.60614,0.33717
6721.67740,0.33761
6719.74865,0.33750
6717.81991,0.33861
6715.89116,0.34103
6713.96241,0.34286
6712.03367,0.34160
6710.10492,0.33863
6708.17618,0.33741
6706.24743,0.33719
6704.31869,0.33718
6702.38994,0.33864
6700.46120,0.33965
6698.53245,0.33869
6696.60371,0.33819
6694.67496,0.33902
6692.74622,0.33932
6690.81747,0.33896
6688.88873,0.33870
6686.95998,0.33931
6685.03123,0.34202
6683.10249,0.34430
6681.17374,0.34294
6679.24500,0.34035
6677.31625,0.33979
6675.38751,0.34155
6673.45876,0.34376
6671.53002,0.34389
6669.60127,0.34227
6667.67253,0.34113
6665.74378,0.34145
6663.81504,0.34323
6661.88629,0.34462
6659.95755,0.34390
6658.02880,0.34227
6656.10006,0.34116
6654.17131,0.34106
6652.24256,0.34126
6650.31382,0.34060
6648.38507,0.33992
6646.45633,0.33908
6644.52758,0.33811
6642.59884,0.33949
6640.67009,0.34206
6638.74135,0.34238
6636.81260,0.34160
6634.88386,0.34194
6632.95511,0.34302
6631.02637,0.34450
6629.09762,0.34606
6627.16888,0.34668
6625.24013,0.34594
6623.31139,0.34479
6621.38264,0.34529
6619.45389,0.34707
6617.52515,0.34726
6615.59640,0.34583
6613.66766,0.34499
6611.73891,0.34437
6609.81017,0.34333
6607.88142,0.34352
6605.95268,0.34418
6604.02393,0.34307
6602.09519,0.34211
6600.16644,0.34394
6598.23770,0.34734
6596.30895,0.34971
6594.38021,0.35027
6592.45146,0.34991
6590.52271,0.34954
6588.59397,0.34974
6586.66522,0.35032
6584.73648,0.35021
6582.80773,0.34895
6580.87899,0.34791
6578.95024,0.34784
6577.02150,0.34754
6575.09275,0.34712
6573.16401,0.34815
6571.23526,0.34953
6569.30652,0.34909
6567.37777,0.34849
6565.44903,0.34961
6563.52028,0.35025
6561.59154,0.34896
6559.66279,0.34787
6557.73404,0.34794
6555.80530,0.34736
6553.87655,0.34612
6551.94781,0.34588
6550.01906,0.34698
6548.09032,0.34935
6546.16157,0.35121
6544.23283,0.35047
6542.30408,0.34886
6540.37534,0.34794
6538.44659,0.34732
6536.51785,0.34799
6534.58910,0.34970
6532.66036,0.35002
6530.73161,0.34889
6528.80287,0.34831
6526.87412,0.34908
6524.94537,0.35020
6523.01663,0.35053
6521.08788,0.35094
6519.15914,0.35168
6517.23039,0.35156
6515.30165,0.35063
6513.37290,0.34953
6511.44416,0.34954
6509.51541,0.35053
6507.58667,0.35050
6505.65792,0.34902
6503.72918,0.34699
6501.80043,0.34620
6499.87169,0.34668
6497.94294,0.34664
6496.01419,0.34662
6494.08545,0.34749
6492.15670,0.34912
6490.22796,0.35101
6488.29921,0.35268
6486.37047,0.35375
6484.44172,0.35233
6482.51298,0.34926
6480.58423,0.34861
6478.65549,0.34955
6476.72674,0.34879
6474.79800,0.34786
6472.86925,0.34900
6470.94051,0.35111
6469.01176,0.35229
6467.08302,0.35235
6465.15427,0.35216
6463.22552,0.35101
6461.29678,0.34894
6459.36803,0.34905
6457.43929,0.35161
6455.51054,0.35315
6453.58180,0.35342
6451.65305,0.35502
6449.72431,0.35661
6447.79556,0.35467
6445.86682,0.35122
6443.93807,0.35041
6442.00933,0.35141
6440.08058,0.35209
6438.15184,0.35224
6436.22309,0.35103
6434.29434,0.34940
6432.36560,0.35003
6430.43685,0.35237
6428.50811,0.35352
6426.57936,0.35223
6424.65062,0.34988
6422.72187,0.34944
6420.79313,0.35198
6418.86438,0.35402
6416.93564,0.35322
6415.00689,0.35263
6413.07815,0.35352
6411.14940,0.35357
6409.22066,0.35254
6407.29191,0.35141
6405.36317,0.35034
6403.43442,0.35022
6401.50567,0.35079
6399.57693,0.35052
6397.64818,0.35065
6395.71944,0.35239
6393.79069,0.35348
6391.86195,0.35304
6389.93320,0.35279
6388.00446,0.35232
6386.07571,0.35033
6384.14697,0.34886
6382.21822,0.35005
6380.28948,0.35235
6378.36073,0.35316
6376.43199,0.35222
6374.50324,0.35165
6372.57450,0.35232
6370.64575,0.35267
6368.71700,0.35233
6366.78826,0.35208
6364.85951,0.35193
6362.93077,0.35192
6361.00202,0.35206
6359.07328,0.35255
6357.14453,0.35361
6355.21579,0.35370
6353.28704,0.35213
6351.35830,0.35137
6349.42955,0.35275
6347.50081,0.35407
6345.57206,0.35368
6343.64332,0.35179
6341.71457,0.34999
6339.78582,0.35030
6337.85708,0.35135
6335.92833,0.35141
6333.99959,0.35203
6332.07084,0.35275
6330.14210,0.35215
6328.21335,0.35240
6326.28461,0.35438
6324.35586,0.35516
6322.42712,0.35364
6320.49837,0.35234
6318.56963,0.35301
6316.64088,0.35437
6314.71214,0.35477
6312.78339,0.35444
6310.85465,0.35431
6308.92590,0.35461
6306.99715,0.35520
6305.06841,0.35628
6303.13966,0.35749
6301.21092,0.35831
6299.28217,0.35915
6297.35343,0.35869
6295.42468,0.35638
6293.49594,0.35517
6291.56719,0.35586
6289.63845,0.35637
6287.70970,0.35587
6285.78096,0.35487
6283.85221,0.35412
6281.92347,0.35354
6279.99472,0.35310
6278.06598,0.35360
6276.13723,0.35448
6274.20848,0.35481
6272.27974,0.35554
6270.35099,0.35643
6268.42225,0.35633
6266.49350,0.35622
6264.56476,0.35700
6262.63601,0.35766
6260.70727,0.35708
6258.77852,0.35560
6256.84978,0.35466
6254.92103,0.35509
6252.99229,0.35637
6251.06354,0.35743
6249.13480,0.35803
6247.20605,0.35829
6245.27730,0.35825
6243.34856,0.35853
6241.41981,0.35909
6239.49107,0.35978
6237.56232,0.36143
6235.63358,0.36282
6233.70483,0.36228
6231.77609,0.36145
6229.84734,0.36167
6227.91860,0.36145
6225.98985,0.36017
6224.06111,0.35944
6222.13236,0.36036
6220.20362,0.36180
6218.27487,0.36246
6216.34613,0.36240
6214.41738,0.36206
6212.48863,0.36167
6210.55989,0.36146
6208.63114,0.36262
6206.70240,0.36530
6204.77365,0.36655
6202.84491,0.36503
6200.91616,0.36388
6198.98742,0.36504
6197.05867,0.36530
6195.12993,0.36305
6193.20118,0.36155
6191.27244,0.36222
6189.34369,0.36323
6187.41495,0.36355
6185.48620,0.36379
6183.55746,0.36391
6181.62871,0.36295
6179.69996,0.36165
6177.77122,0.36147
6175.84247,0.36228
6173.91373,0.36300
6171.98498,0.36352
6170.05624,0.36460
6168.12749,0.36581
6166.19875,0.36558
6164.27000,0.36327
6162.34126,0.36144
6160.41251,0.36265
6158.48377,0.36527
6156.55502,0.36710
6154.62628,0.36781
6152.69753,0.36794
6150.76878,0.36723
6148.84004,0.36448
6146.91129,0.36172
6144.98255,0.36206
6143.05380,0.36364
6141.12506,0.36324
6139.19631,0.36178
6137.26757,0.36133
6135.33882,0.36201
6133.41008,0.36337
6131.48133,0.36437
6129.55259,0.36361
6127.62384,0.36184
6125.69510,0.36124
6123.76635,0.36231
6121.83761,0.36385
6119.90886,0.36525
6117.98011,0.36728
6116.05137,0.36941
6114.12262,0.36944
6112.19388,0.36742
6110.26513,0.36548
6108.33639,0.36481
6106.40764,0.36495
6104.47890,0.36522
6102.55015,0.36626
6100.62141,0.36773
6098.69266,0.36794
6096.76392,0.36706
6094.83517,0.36585
6092.90643,0.36414
6090.97768,0.36262
6089.04893,0.36226
6087.12019,0.36294
6085.19144,0.36459
6083.26270,0.36639
6081.33395,0.36647
6079.40521,0.36541
6077.47646,0.36534
6075.54772,0.36603
6073.61897,0.36656
6071.69023,0.36741
6069.76148,0.36863
6067.83274,0.36904
6065.90399,0.36788
6063.97525,0.36618
6062.04650,0.36537
6060.11776,0.36543
6058.18901,0.36572
6056.26026,0.36534
6054.33152,0.36387
6052.40277,0.36296
6050.47403,0.36367
6048.54528,0.36413
6046.61654,0.36312
6044.68779,0.36216
6042.75905,0.36242
6040.83030,0.36296
6038.90156,0.36240
6036.97281,0.36134
6035.04407,0.36191
6033.11532,0.36385
6031.18658,0.36475
6029.25783,0.36454
6027.32909,0.36450
6025.40034,0.36407
6023.47159,0.36275
6021.54285,0.36145
6019.61410,0.36118
6017.68536,0.36144
6015.75661,0.36052
6013.82787,0.35903
6011.89912,0.35920
6009.97038,0.36035
6008.04163,0.36121
6006.11289,0.36236
6004.18414,0.36315
6002.25540,0.36217
6000.32665,0.36034
5998.39791,0.35974
5996.46916,0.36015
5994.54041,0.35997
5992.61167,0.35886
5990.68292,0.35765
5988.75418,0.35733
5986.82543,0.35793
5984.89669,0.35857
5982.96794,0.35895
5981.03920,0.35888
5979.11045,0.35813
5977.18171,0.35701
5975.25296,0.35630
5973.32422,0.35657
5971.39547,0.35712
5969.46673,0.35659
5967.53798,0.35532
5965.60924,0.35511
5963.68049,0.35579
5961.75174,0.35552
5959.82300,0.35442
5957.89425,0.35378
5955.96551,0.35335
5954.03676,0.35249
5952.10802,0.35234
5950.17927,0.35380
5948.25053,0.35505
5946.32178,0.35481
5944.39304,0.35428
5942.46429,0.35381
5940.53555,0.35308
5938.60680,0.35291
5936.67806,0.35297
5934.74931,0.35204
5932.82057,0.35065
5930.89182,0.34971
5928.96307,0.34930
5927.03433,0.34948
5925.10558,0.34974
5923.17684,0.34943
5921.24809,0.34909
5919.31935,0.34874
5917.39060,0.34740
5915.46186,0.34617
5913.53311,0.34635
5911.60437,0.34652
5909.67562,0.34605
5907.74688,0.34532
5905.81813,0.34449
5903.88939,0.34425
5901.96064,0.34440
5900.03189,0.34451
5898.10315,0.34433
5896.17440,0.34363
5894.24566,0.34323
5892.31691,0.34349
5890.38817,0.34334
5888.45942,0.34225
5886.53068,0.34117
5884.60193,0.34072
5882.67319,0.34041
5880.74444,0.34012
5878.81570,0.33976
5876.88695,0.33892
5874.95821,0.33721
5873.02946,0.33498
5871.10072,0.33390
5869.17197,0.33416
5867.24322,0.33403
5865.31448,0.33315
5863.38573,0.33186
5861.45699,0.33040
5859.52824,0.32956
5857.59950,0.32911
5855.67075,0.32784
5853.74201,0.32568
5851.81326,0.32387
5849.88452,0.32295
5847.95577,0.32238
5846.02703,0.32186
5844.09828,0.32149
5842.16954,0.32097
5840.24079,0.32001
5838.31205,0.31867
5836.38330,0.31725
5834.45455,0.31587
5832.52581,0.31452
5830.59706,0.31352
5828.66832,0.31336
5826.73957,0.31349
5824.81083,0.31249
5822.88208,0.31013
5820.95334,0.30786
5819.02459,0.30649
5817.09585,0.30544
5815.16710,0.30426
5813.23836,0.30305
5811.30961,0.30200
5809.38087,0.30087
5807.45212,0.29891
5805.52337,0.29663
5803.59463,0.29562
5801.66588,0.29582
5799.73714,0.29549
5797.80839,0.29425
5795.87965,0.29322
5793.95090,0.29238
5792.02216,0.29108
5790.09341,0.28920
5788.16467,0.28628
5786.23592,0.28254
5784.30718,0.27906
5782.37843,0.27605
5780.44969,0.27378
5778.52094,0.27263
5776.59220,0.27201
5774.66345,0.27181
5772.73470,0.27270
5770.80596,0.27508
5768.87721,0.27871
5766.94847,0.28294
5765.01972,0.28734
5763.09098,0.29136
5761.16223,0.29436
5759.23349,0.29682
5757.30474,0.29977
5755.37600,0.30235
5753.44725,0.30341
5751.51851,0.30436
5749.58976,0.30606
5747.66102,0.30738
5745.73227,0.30883
5743.80352,0.31159
5741.87478,0.31442
5739.94603,0.31572
5738.01729,0.31567
5736.08854,0.31519
5734.15980,0.31490
5732.23105,0.31516
5730.30231,0.31609
5728.37356,0.31764
5726.44482,0.31956
5724.51607,0.32145
5722.58733,0.32254
5720.65858,0.32241
5718.72984,0.32209
5716.80109,0.32247
5714.87235,0.32274
5712.94360,0.32221
5711.01485,0.32160
5709.08611,0.32154
5707.15736,0.32190
5705.22862,0.32185
5703.29987,0.32163
5701.37113,0.32231
5699.44238,0.32227
5697.51364,0.31979
5695.58489,0.31708
5693.65615,0.31640
5691.72740,0.31655
5689.79866,0.31606
5687.86991,0.31547
5685.94117,0.31480
5684.01242,0.31352
5682.08368,0.31218
5680.15493,0.31129
5678.22618,0.31089
5676.29744,0.31043
5674.36869,0.30945
5672.43995,0.30810
5670.51120,0.30627
5668.58246,0.30434
5666.65371,0.30293
5664.72497,0.30190
5662.79622,0.30142
5660.86748,0.30173
5658.93873,0.30307
5657.00999,0.30583
5655.08124,0.30896
5653.15250,0.31119
5651.22375,0.31271
5649.29500,0.31419
5647.36626,0.31619
5645.43751,0.31840
5643.50877,0.31964
5641.58002,0.32029
5639.65128,0.32108
5637.72253,0.32144
5635.79379,0.32193
5633.86504,0.32324
5631.93630,0.32420
5630.00755,0.32417
5628.07881,0.32376
5626.15006,0.32360
5624.22132,0.32378
5622.29257,0.32384
5620.36383,0.32401
5618.43508,0.32493
5616.50633,0.32591
5614.57759,0.32651
5612.64884,0.32699
5610.72010,0.32674
5608.79135,0.32572
5606.86261,0.32522
5604.93386,0.32629
5603.00512,0.32792
5601.07637,0.32837
5599.14763,0.32799
5597.21888,0.32839
5595.29014,0.32970
5593.36139,0.33056
5591.43265,0.33046
5589.50390,0.33001
5587.57516,0.32928
5585.64641,0.32848
5583.71766,0.32843
5581.78892,0.32885
5579.86017,0.32874
5577.93143,0.32822
5576.00268,0.32800
5574.07394,0.32804
5572.14519,0.32782
5570.21645,0.32726
5568.28770,0.32668
5566.35896,0.32628
5564.43021,0.32602
5562.50147,0.32598
5560.57272,0.32618
5558.64398,0.32624
5556.71523,0.32632
5554.78648,0.32679
5552.85774,0.32731
5550.92899,0.32739
5549.00025,0.32685
5547.07150,0.32614
5545.14276,0.32583
5543.21401,0.32543
5541.28527,0.32485
5539.35652,0.32481
5537.42778,0.32512
5535.49903,0.32572
5533.57029,0.32676
5531.64154,0.32721
5529.71280,0.32673
5527.78405,0.32659
5525.85531,0.32738
5523.92656,0.32790
5521.99781,0.32753
5520.06907,0.32693
5518.14032,0.32625
5516.21158,0.32607
5514.28283,0.32684
5512.35409,0.32723
5510.42534,0.32681
5508.49660,0.32617
5506.56785,0.32539
5504.63911,0.32496
5502.71036,0.32531
5500.78162,0.32602
5498.85287,0.32638
5496.92413,0.32605
5494.99538,0.32560
5493.06664,0.32556
5491.13789,0.32549
5489.20914,0.32544
5487.28040,0.32605
5485.35165,0.32690
5483.42291,0.32667
5481.49416,0.32563
5479.56542,0.32538
5477.63667,0.32597
5475.70793,0.32667
5473.77918,0.32755
5471.85044,0.32823
5469.92169,0.32823
5467.99295,0.32788
5466.06420,0.32792
5464.13546,0.32852
5462.20671,0.32908
5460.27796,0.32931
5458.34922,0.32926
5456.42047,0.32921
5454.49173,0.32968
5452.56298,0.33022
5450.63424,0.32989
5448.70549,0.32918
5446.77675,0.32898
5444.84800,0.32896
5442.91926,0.32887
5440.99051,0.32952
5439.06177,0.33098
5437.13302,0.33226
5435.20428,0.33304
5433.27553,0.33314
5431.34679,0.33241
5429.41804,0.33176
5427.48929,0.33187
5425.56055,0.33211
5423.63180,0.33193
5421.70306,0.33205
5419.77431,0.33322
5417.84557,0.33472
5415.91682,0.33573
5413.98808,0.33642
5412.05933,0.33671
5410.13059,0.33630
5408.20184,0.33572
5406.27310,0.33566
5404.34435,0.33623
5402.41561,0.33694
5400.48686,0.33719
5398.55811,0.33685
5396.62937,0.33680
5394.70062,0.33749
5392.77188,0.33811
5390.84313,0.33838
5388.91439,0.33866
5386.98564,0.33867
5385.05690,0.33812
5383.12815,0.33731
5381.19941,0.33676
5379.27066,0.33667
5377.34192,0.33709
5375.41317,0.33774
5373.48443,0.33819
5371.55568,0.33849
5369.62694,0.33900
5367.69819,0.34007
5365.76944,0.34111
5363.84070,0.34108
5361.91195,0.34027
5359.98321,0.33950
5358.05446,0.33904
5356.12572,0.33912
5354.19697,0.33941
5352.26823,0.33893
5350.33948,0.33808
5348.41074,0.33788
5346.48199,0.33809
5344.55325,0.33852
5342.62450,0.33928
5340.69576,0.33989
5338.76701,0.34006
5336.83827,0.33977
5334.90952,0.33913
5332.98077,0.33849
5331.05203,0.33810
5329.12328,0.33818
5327.19454,0.33863
5325.26579,0.33884
5323.33705,0.33837
5321.40830,0.33738
5319.47956,0.33621
5317.55081,0.33539
5315.62207,0.33533
5313.69332,0.33529
5311.76458,0.33445
5309.83583,0.33322
5307.90709,0.33206
5305.97834,0.33098
5304.04959,0.33016
5302.12085,0.32946
5300.19210,0.32835
5298.26336,0.32720
5296.33461,0.32673
5294.40587,0.32655
5292.47712,0.32590
5290.54838,0.32481
5288.61963,0.32370
5286.69089,0.32271
5284.76214,0.32189
5282.83340,0.32108
5280.90465,0.31995
5278.97591,0.31885
5277.04716,0.31794
5275.11842,0.31640
5273.18967,0.31414
5271.26092,0.31180
5269.33218,0.30941
5267.40343,0.30729
5265.47469,0.30574
5263.54594,0.30431
5261.61720,0.30291
5259.68845,0.30158
5257.75971,0.30020
5255.83096,0.29919
5253.90222,0.29855
5251.97347,0.29727
5250.04473,0.29498
5248.11598,0.29270
5246.18724,0.29099
5244.25849,0.28919
5242.32975,0.28732
5240.40100,0.28596
5238.47225,0.28519
5236.54351,0.28454
5234.61476,0.28343
5232.68602,0.28224
5230.75727,0.28160
5228.82853,0.28091
5226.89978,0.27950
5224.97104,0.27813
5223.04229,0.27790
5221.11355,0.27843
5219.18480,0.27828
5217.25606,0.27717
5215.32731,0.27616
5213.39857,0.27556
5211.46982,0.27511
5209.54107,0.27496
5207.61233,0.27490
5205.68358,0.27454
5203.75484,0.27424
5201.82609,0.27418
5199.89735,0.27391
5197.96860,0.27307
5196.03986,0.27227
5194.11111,0.27248
5192.18237,0.27337
5190.25362,0.27374
5188.32488,0.27386
5186.39613,0.27452
5184.46739,0.27500
5182.53864,0.27491
5180.60990,0.27494
5178.68115,0.27531
5176.75240,0.27581
5174.82366,0.27612
5172.89491,0.27592
5170.96617,0.27548
5169.03742,0.27564
5167.10868,0.27670
5165.17993,0.27801
5163.25119,0.27895
5161.32244,0.27943
5159.39370,0.27963
5157.46495,0.27978
5155.53621,0.28023
5153.60746,0.28117
5151.67872,0.28202
5149.74997,0.28216
5147.82123,0.28194
5145.89248,0.28214
5143.96373,0.28291
5142.03499,0.28382
5140.10624,0.28452
5138.17750,0.28516
5136.24875,0.28583
5134.32001,0.28644
5132.39126,0.28690
5130.46252,0.28671
5128.53377,0.28599
5126.60503,0.28598
5124.67628,0.28693
5122.74754,0.28811
5120.81879,0.28909
5118.89005,0.28990
5116.96130,0.29069
5115.03255,0.29122
5113.10381,0.29117
5111.17506,0.29062
5109.24632,0.29008
5107.31757,0.29031
5105.38883,0.29153
5103.46008,0.29277
5101.53134,0.29306
5099.60259,0.29266
5097.67385,0.29224
5095.74510,0.29233
5093.81636,0.29321
5091.88761,0.29439
5089.95887,0.29520
5088.03012,0.29585
5086.10138,0.29656
5084.17263,0.29710
5082.24388,0.29747
5080.31514,0.29740
5078.38639,0.29691
5076.45765,0.29682
5074.52890,0.29744
5072.60016,0.29825
5070.67141,0.29900
5068.74267,0.30000
5066.81392,0.30102
5064.88518,0.30162
5062.95643,0.30173
5061.02769,0.30148
5059.09894,0.30144
5057.17020,0.30204
5055.24145,0.30285
5053.31270,0.30330
5051.38396,0.30316
5049.45521,0.30300
5047.52647,0.30359
5045.59772,0.30424
5043.66898,0.30387
5041.74023,0.30326
5039.81149,0.30353
5037.88274,0.30439
5035.95400,0.30501
5034.02525,0.30478
5032.09651,0.30432
5030.16776,0.30456
5028.23902,0.30537
5026.31027,0.30626
5024.38153,0.30701
5022.45278,0.30748
5020.52403,0.30766
5018.59529,0.30768
5016.66654,0.30769
5014.73780,0.30758
5012.80905,0.30715
5010.88031,0.30653
5008.95156,0.30622
5007.02282,0.30642
5005.09407,0.30661
5003.16533,0.30661
5001.23658,0.30657
4999.30784,0.30669
4997.37909,0.30713
4995.45035,0.30735
4993.52160,0.30695
4991.59286,0.30633
4989.66411,0.30580
4987.73536,0.30551
4985.80662,0.30547
4983.87787,0.30580
4981.94913,0.30605
4980.02038,0.30531
4978.09164,0.30432
4976.16289,0.30429
4974.23415,0.30473
4972.30540,0.30460
4970.37666,0.30370
4968.44791,0.30264
4966.51917,0.30195
4964.59042,0.30154
4962.66168,0.30121
4960.73293,0.30124
4958.80418,0.30135
4956.87544,0.30088
4954.94669,0.30042
4953.01795,0.30010
4951.08920,0.29898
4949.16046,0.29788
4947.23171,0.29814
4945.30297,0.29875
4943.37422,0.29835
4941.44548,0.29727
4939.51673,0.29619
4937.58799,0.29533
4935.65924,0.29459
4933.73050,0.29374
4931.80175,0.29295
4929.87301,0.29253
4927.94426,0.29224
4926.01551,0.29173
4924.08677,0.29098
4922.15802,0.29012
4920.22928,0.28892
4918.30053,0.28736
4916.37179,0.28615
4914.44304,0.28553
4912.51430,0.28519
4910.58555,0.28494
4908.65681,0.28435
4906.72806,0.28351
4904.79932,0.28296
4902.87057,0.28257
4900.94183,0.28208
4899.01308,0.28104
4897.08434,0.27939
4895.15559,0.27834
4893.22684,0.27859
4891.29810,0.27889
4889.36935,0.27816
4887.44061,0.27700
4885.51186,0.27622
4883.58312,0.27549
4881.65437,0.27434
4879.72563,0.27320
4877.79688,0.27239
4875.86814,0.27153
4873.93939,0.27070
4872.01065,0.27021
4870.08190,0.26977
4868.15316,0.26905
4866.22441,0.26814
4864.29566,0.26738
4862.36692,0.26674
4860.43817,0.26595
4858.50943,0.26543
4856.58068,0.26551
4854.65194,0.26550
4852.72319,0.26491
4850.79445,0.26408
4848.86570,0.26351
4846.93696,0.26315
4845.00821,0.26275
4843.07947,0.26226
4841.15072,0.26162
4839.22198,0.26091
4837.29323,0.26064
4835.36449,0.26084
4833.43574,0.26059
4831.50699,0.25948
4829.57825,0.25823
4827.64950,0.25741
4825.72076,0.25704
4823.79201,0.25713
4821.86327,0.25734
4819.93452,0.25722
4818.00578,0.25658
4816.07703,0.25572
4814.14829,0.25504
4812.21954,0.25451
4810.29080,0.25429
4808.36205,0.25455
4806.43331,0.25466
4804.50456,0.25438
4802.57582,0.25403
4800.64707,0.25373
4798.71832,0.25344
4796.78958,0.25299
4794.86083,0.25267
4792.93209,0.25315
4791.00334,0.25389
4789.07460,0.25367
4787.14585,0.25277
4785.21711,0.25247
4783.28836,0.25283
4781.35962,0.25294
4779.43087,0.25250
4777.50213,0.25190
4775.57338,0.25140
4773.64464,0.25104
4771.71589,0.25106
4769.78714,0.25153
4767.85840,0.25190
4765.92965,0.25177
4764.00091,0.25123
4762.07216,0.25054
4760.14342,0.25023
4758.21467,0.25054
4756.28593,0.25095
4754.35718,0.25103
4752.42844,0.25087
4750.49969,0.25067
4748.57095,0.25055
4746.64220,0.25042
4744.71346,0.25022
4742.78471,0.25018
4740.85597,0.25032
4738.92722,0.25041
4736.99847,0.25060
4735.06973,0.25105
4733.14098,0.25141
4731.21224,0.25147
4729.28349,0.25150
4727.35475,0.25169
4725.42600,0.25164
4723.49726,0.25105
4721.56851,0.25046
4719.63977,0.25036
4717.71102,0.25061
4715.78228,0.25124
4713.85353,0.25208
4711.92479,0.25235
4709.99604,0.25199
4708.06729,0.25197
4706.13855,0.25241
4704.20980,0.25254
4702.28106,0.25228
4700.35231,0.25208
4698.42357,0.25195
4696.49482,0.25209
4694.56608,0.25278
4692.63733,0.25341
4690.70859,0.25337
4688.77984,0.25302
4686.85110,0.25277
4684.92235,0.25258
4682.99361,0.25290
4681.06486,0.25398
4679.13612,0.25484
4677.20737,0.25493
4675.27862,0.25487
4673.34988,0.25518
4671.42113,0.25568
4669.49239,0.25583
4667.56364,0.25566
4665.63490,0.25590
4663.70615,0.25663
4661.77741,0.25732
4659.84866,0.25760
4657.91992,0.25775
4655.99117,0.25823
4654.06243,0.25891
4652.13368,0.25944
4650.20494,0.25977
4648.27619,0.25985
4646.34745,0.25992
4644.41870,0.26036
4642.48995,0.26107
4640.56121,0.26199
4638.63246,0.26285
4636.70372,0.26306
4634.77497,0.26289
4632.84623,0.26306
4630.91748,0.26352
4628.98874,0.26381
4627.05999,0.26379
4625.13125,0.26365
4623.20250,0.26359
4621.27376,0.26384
4619.34501,0.26443
4617.41627,0.26493
4615.48752,0.26521
4613.55877,0.26550
4611.63003,0.26586
4609.70128,0.26630
4607.77254,0.26685
4605.84379,0.26741
4603.91505,0.26779
4601.98630,0.26816
4600.05756,0.26864
4598.12881,0.26885
4596.20007,0.26872
4594.27132,0.26892
4592.34258,0.26954
4590.41383,0.26988
4588.48509,0.26987
4586.55634,0.27000
4584.62760,0.27017
4582.69885,0.27013
4580.77010,0.27022
4578.84136,0.27063
4576.91261,0.27088
4574.98387,0.27081
4573.05512,0.27079
4571.12638,0.27092
4569.19763,0.27102
4567.26889,0.27116
4565.34014,0.27133
4563.41140,0.27129
4561.48265,0.27116
4559.55391,0.27109
4557.62516,0.27111
4555.69642,0.27146
4553.76767,0.27195
4551.83893,0.27220
4549.91018,0.27231
4547.98143,0.27259
4546.05269,0.27296
4544.12394,0.27297
4542.19520,0.27253
4540.26645,0.27193
4538.33771,0.27147
4536.40896,0.27149
4534.48022,0.27190
4532.55147,0.27204
4530.62273,0.27192
4528.69398,0.27198
4526.76524,0.27209
4524.83649,0.27186
4522.90775,0.27145
4520.97900,0.27121
4519.05025,0.27128
4517.12151,0.27169
4515.19276,0.27200
4513.26402,0.27159
4511.33527,0.27076
4509.40653,0.27043
4507.47778,0.27054
4505.54904,0.27031
4503.62029,0.26959
4501.69155,0.26883
4499.76280,0.26816
4497.83406,0.26735
4495.90531,0.26648
4493.97657,0.26600
4492.04782,0.26570
4490.11908,0.26502
4488.19033,0.26397
4486.26158,0.26315
4484.33284,0.26256
4482.40409,0.26159
4480.47535,0.26042
4478.54660,0.25952
4476.61786,0.25870
4474.68911,0.25763
4472.76037,0.25622
4470.83162,0.25471
4468.90288,0.25322
4466.97413,0.25169
4465.04539,0.25032
4463.11664,0.24912
4461.18790,0.24779
4459.25915,0.24625
4457.33041,0.24477
4455.40166,0.24355
4453.47291,0.24249
4451.54417,0.24138
4449.61542,0.23999
4447.68668,0.23856
4445.75793,0.23747
4443.82919,0.23638
4441.90044,0.23499
4439.97170,0.23354
4438.04295,0.23218
4436.11421,0.23082
4434.18546,0.22937
4432.25672,0.22790
4430.32797,0.22659
4428.39923,0.22555
4426.47048,0.22485
4424.54173,0.22413
4422.61299,0.22287
4420.68424,0.22123
4418.75550,0.21981
4416.82675,0.21890
4414.89801,0.21834
4412.96926,0.21765
4411.04052,0.21678
4409.11177,0.21585
4407.18303,0.21465
4405.25428,0.21341
4403.32554,0.21258
4401.39679,0.21194
4399.46805,0.21126
4397.53930,0.21077
4395.61056,0.21038
4393.68181,0.20983
4391.75306,0.20925
4389.82432,0.20869
4387.89557,0.20808
4385.96683,0.20741
4384.03808,0.20683
4382.10934,0.20678
4380.18059,0.20713
4378.25185,0.20697
4376.32310,0.20612
4374.39436,0.20524
4372.46561,0.20468
4370.53687,0.20431
4368.60812,0.20406
4366.67938,0.20373
4364.75063,0.20294
4362.82189,0.20184
4360.89314,0.20093
4358.96439,0.19999
4357.03565,0.19866
4355.10690,0.19735
4353.17816,0.19634
4351.24941,0.19513
4349.32067,0.19308
4347.39192,0.19033
4345.46318,0.18770
4343.53443,0.18558
4341.60569,0.18383
4339.67694,0.18227
4337.74820,0.18062
4335.81945,0.17876
4333.89071,0.17685
4331.96196,0.17486
4330.03321,0.17257
4328.10447,0.16982
4326.17572,0.16687
4324.24698,0.16452
4322.31823,0.16365
4320.38949,0.16507
4318.46074,0.16906
4316.53200,0.17434
4314.60325,0.17919
4312.67451,0.18309
4310.74576,0.18624
4308.81702,0.18877
4306.88827,0.19081
4304.95953,0.19237
4303.03078,0.19346
4301.10204,0.19419
4299.17329,0.19461
4297.24454,0.19461
4295.31580,0.19427
4293.38705,0.19397
4291.45831,0.19366
4289.52956,0.19297
4287.60082,0.19205
4285.67207,0.19131
4283.74333,0.19077
4281.81458,0.19036
4279.88584,0.19012
4277.95709,0.19001
4276.02835,0.18985
4274.09960,0.18940
4272.17086,0.18868
4270.24211,0.18781
4268.31336,0.18677
4266.38462,0.18552
4264.45587,0.18394
4262.52713,0.18201
4260.59838,0.17985
4258.66964,0.17761
4256.74089,0.17552
4254.81215,0.17370
4252.88340,0.17229
4250.95466,0.17186
4249.02591,0.17288
4247.09717,0.17524
4245.16842,0.17839
4243.23968,0.18153
4241.31093,0.18401
4239.38219,0.18549
4237.45344,0.18615
4235.52469,0.18662
4233.59595,0.18685
4231.66720,0.18659
4229.73846,0.18621
4227.80971,0.18574
4225.88097,0.18496
4223.95222,0.18424
4222.02348,0.18393
4220.09473,0.18388
4218.16599,0.18398
4216.23724,0.18424
4214.30850,0.18458
4212.37975,0.18466
4210.45101,0.18421
4208.52226,0.18364
4206.59352,0.18353
4204.66477,0.18350
4202.73602,0.18292
4200.80728,0.18177
4198.87853,0.18048
4196.94979,0.17953
4195.02104,0.17920
4193.09230,0.17938
4191.16355,0.17953
4189.23481,0.17958
4187.30606,0.17982
4185.37732,0.17998
4183.44857,0.17973
4181.51983,0.17962
4179.59108,0.18001
4177.66234,0.18041
4175.73359,0.18063
4173.80484,0.18088
4171.87610,0.18095
4169.94735,0.18070
4168.01861,0.18060
4166.08986,0.18095
4164.16112,0.18141
4162.23237,0.18158
4160.30363,0.18150
4158.37488,0.18135
4156.44614,0.18108
4154.51739,0.18072
4152.58865,0.18038
4150.65990,0.18014
4148.73116,0.18028
4146.80241,0.18083
4144.87367,0.18130
4142.94492,0.18147
4141.01617,0.18157
4139.08743,0.18139
4137.15868,0.18072
4135.22994,0.18007
4133.30119,0.17974
4131.37245,0.17940
4129.44370,0.17902
4127.51496,0.17903
4125.58621,0.17932
4123.65747,0.17922
4121.72872,0.17864
4119.79998,0.17813
4117.87123,0.17777
4115.94249,0.17743
4114.01374,0.17725
4112.08500,0.17720
4110.15625,0.17687
4108.22750,0.17615
4106.29876,0.17542
4104.37001,0.17492
4102.44127,0.17439
4100.51252,0.17381
4098.58378,0.17347
4096.65503,0.17339
4094.72629,0.17323
4092.79754,0.17312
4090.86880,0.17352
4088.94005,0.17415
4087.01131,0.17455
4085.08256,0.17489
4083.15382,0.17523
4081.22507,0.17540
4079.29632,0.17544
4077.36758,0.17531
4075.43883,0.17493
4073.51009,0.17460
4071.58134,0.17447
4069.65260,0.17410
4067.72385,0.17344
4065.79511,0.17290
4063.86636,0.17253
4061.93762,0.17221
4060.00887,0.17201
4058.08013,0.17184
4056.15138,0.17151
4054.22264,0.17098
4052.29389,0.17052
4050.36515,0.17039
4048.43640,0.17033
4046.50765,0.16988
4044.57891,0.16930
4042.65016,0.16897
4040.72142,0.16878
4038.79267,0.16855
4036.86393,0.16839
4034.93518,0.16827
4033.00644,0.16803
4031.07769,0.16773
4029.14895,0.16743
4027.22020,0.16714
4025.29146,0.16689
4023.36271,0.16655
4021.43397,0.16604
4019.50522,0.16576
4017.57648,0.16620
4015.64773,0.16709
4013.71898,0.16782
4011.79024,0.16819
4009.86149,0.16835
4007.93275,0.16849
4006.00400,0.16872
4004.07526,0.16890
4002.14651,0.16899
4000.21777,0.16914
3998.28902,0.16920
3996.36028,0.16921
3994.43153,0.16952
3992.50279,0.16998
3990.57404,0.17016
3988.64530,0.17017
3986.71655,0.17025
3984.78780,0.17022
3982.85906,0.17016
3980.93031,0.17033
3979.00157,0.17052
3977.07282,0.17055
3975.14408,0.17045
3973.21533,0.17044
3971.28659,0.17081
3969.35784,0.17146
3967.42910,0.17198
3965.50035,0.17239
3963.57161,0.17299
3961.64286,0.17360
3959.71412,0.17388
3957.78537,0.17399
3955.85663,0.17423
3953.92788,0.17447
3951.99913,0.17463
3950.07039,0.17488
3948.14164,0.17517
3946.21290,0.17537
3944.28415,0.17571
3942.35541,0.17618
3940.42666,0.17640
3938.49792,0.17628
3936.56917,0.17605
3934.64043,0.17588
3932.71168,0.17586
3930.78294,0.17608
3928.85419,0.17644
3926.92545,0.17680
3924.99670,0.17699
3923.06795,0.17702
3921.13921,0.17720
3919.21046,0.17766
3917.28172,0.17804
3915.35297,0.17813
3913.42423,0.17813
3911.49548,0.17819
3909.56674,0.17838
3907.63799,0.17873
3905.70925,0.17915
3903.78050,0.17941
3901.85176,0.17953
3899.92301,0.17983
3897.99427,0.18024
3896.06552,0.18052
3894.13678,0.18078
3892.20803,0.18113
3890.27928,0.18142
3888.35054,0.18146
3886.42179,0.18133
3884.49305,0.18135
3882.56430,0.18184
3880.63556,0.18247
3878.70681,0.18263
3876.77807,0.18250
3874.84932,0.18277
3872.92058,0.18339
3870.99183,0.18383
3869.06309,0.18411
3867.13434,0.18466
3865.20560,0.18544
3863.27685,0.18608
3861.34811,0.18669
3859.41936,0.18734
3857.49061,0.18770
3855.56187,0.18773
3853.63312,0.18793
3851.70438,0.18848
3849.77563,0.18894
3847.84689,0.18915
3845.91814,0.18911
3843.98940,0.18889
3842.06065,0.18889
3840.13191,0.18931
3838.20316,0.18991
3836.27442,0.19040
3834.34567,0.19062
3832.41693,0.19050
3830.48818,0.19011
3828.55943,0.18983
3826.63069,0.18996
3824.70194,0.19037
3822.77320,0.19080
3820.84445,0.19075
3818.91571,0.19022
3816.98696,0.18993
3815.05822,0.19002
3813.12947,0.19013
3811.20073,0.19027
3809.27198,0.19054
3807.34324,0.19084
3805.41449,0.19094
3803.48575,0.19094
3801.55700,0.19112
3799.62826,0.19141
3797.69951,0.19152
3795.77076,0.19149
3793.84202,0.19146
3791.91327,0.19147
3789.98453,0.19144
3788.05578,0.19138
3786.12704,0.19144
3784.19829,0.19153
3782.26955,0.19128
3780.34080,0.19077
3778.41206,0.19046
3776.48331,0.19042
3774.55457,0.19039
3772.62582,0.19021
3770.69708,0.18996
3768.76833,0.18978
3766.83959,0.18972
3764.91084,0.18969
3762.98209,0.18955
3761.05335,0.18931
3759.12460,0.18900
3757.19586,0.18867
3755.26711,0.18843
3753.33837,0.18844
3751.40962,0.18849
3749.48088,0.18827
3747.55213,0.18791
3745.62339,0.18746
3743.69464,0.18685
3741.76590,0.18636
3739.83715,0.18605
3737.90841,0.18560
3735.97966,0.18485
3734.05091,0.18423
3732.12217,0.18392
3730.19342,0.18351
3728.26468,0.18286
3726.33593,0.18201
3724.40719,0.18102
3722.47844,0.18018
3720.54970,0.17969
3718.62095,0.17929
3716.69221,0.17860
3714.76346,0.17751
3712.83472,0.17619
3710.90597,0.17497
3708.97723,0.17380
3707.04848,0.17249
3705.11974,0.17124
3703.19099,0.16998
3701.26224,0.16850
3699.33350,0.16704
3697.40475,0.16570
3695.47601,0.16428
3693.54726,0.16288
3691.61852,0.16152
3689.68977,0.15992
3687.76103,0.15814
3685.83228,0.15642
3683.90354,0.15472
3681.97479,0.15283
3680.04605,0.15058
3678.11730,0.14808
3676.18856,0.14575
3674.25981,0.14390
3672.33107,0.14214
3670.40232,0.13985
3668.47357,0.13745
3666.54483,0.13552
3664.61608,0.13353
3662.68734,0.13122
3660.75859,0.12907
3658.82985,0.12733
3656.90110,0.12564
3654.97236,0.12376
3653.04361,0.12216
3651.11487,0.12084
3649.18612,0.11929
3647.25738,0.11738
3645.32863,0.11556
3643.39989,0.11411
3641.47114,0.11287
3639.54239,0.11161
3637.61365,0.11035
3635.68490,0.10914
3633.75616,0.10793
3631.82741,0.10677
3629.89867,0.10560
3627.96992,0.10428
3626.04118,0.10295
3624.11243,0.10164
3622.18369,0.10044
3620.25494,0.09952
3618.32620,0.09857
3616.39745,0.09744
3614.46871,0.09636
3612.53996,0.09528
3610.61122,0.09411
3608.68247,0.09292
3606.75372,0.09183
3604.82498,0.09083
3602.89623,0.08978
3600.96749,0.08888
3599.03874,0.08820
3597.11000,0.08745
3595.18125,0.08659
3593.25251,0.08583
3591.32376,0.08499
3589.39502,0.08393
3587.46627,0.08285
3585.53753,0.08207
3583.60878,0.08168
3581.68004,0.08146
3579.75129,0.08096
3577.82254,0.07994
3575.89380,0.07879
3573.96505,0.07803
3572.03631,0.07775
3570.10756,0.07760
3568.17882,0.07726
3566.25007,0.07672
3564.32133,0.07611
3562.39258,0.07532
3560.46384,0.07431
3558.53509,0.07348
3556.60635,0.07294
3554.67760,0.07236
3552.74886,0.07180
3550.82011,0.07143
3548.89137,0.07107
3546.96262,0.07066
3545.03387,0.07031
3543.10513,0.06993
3541.17638,0.06950
3539.24764,0.06926
3537.31889,0.06905
3535.39015,0.06849
3533.46140,0.06785
3531.53266,0.06746
3529.60391,0.06721
3527.67517,0.06720
3525.74642,0.06729
3523.81768,0.06701
3521.88893,0.06634
3519.96019,0.06581
3518.03144,0.06554
3516.10270,0.06523
3514.17395,0.06488
3512.24520,0.06464
3510.31646,0.06447
3508.38771,0.06438
3506.45897,0.06440
3504.53022,0.06425
3502.60148,0.06389
3500.67273,0.06349
3498.74399,0.06308
3496.81524,0.06275
3494.88650,0.06246
3492.95775,0.06229
3491.02901,0.06231
3489.10026,0.06210
3487.17152,0.06156
3485.24277,0.06122
3483.31402,0.06127
3481.38528,0.06126
3479.45653,0.06102
3477.52779,0.06092
3475.59904,0.06100
3473.67030,0.06085
3471.74155,0.06049
3469.81281,0.06024
3467.88406,0.06017
3465.95532,0.06012
3464.02657,0.05994
3462.09783,0.05958
3460.16908,0.05907
3458.24034,0.05851
3456.31159,0.05814
3454.38285,0.05813
3452.45410,0.05844
3450.52535,0.05879
3448.59661,0.05889
3446.66786,0.05886
3444.73912,0.05880
3442.81037,0.05871
3440.88163,0.05881
3438.95288,0.05913
3437.02414,0.05924
3435.09539,0.05887
3433.16665,0.05849
3431.23790,0.05862
3429.30916,0.05889
3427.38041,0.05873
3425.45167,0.05848
3423.52292,0.05859
3421.59418,0.05868
3419.66543,0.05846
3417.73668,0.05826
3415.80794,0.05825
3413.87919,0.05817
3411.95045,0.05794
3410.02170,0.05780
3408.09296,0.05793
3406.16421,0.05815
3404.23547,0.05815
3402.30672,0.05793
3400.37798,0.05796
3398.44923,0.05854
3396.52049,0.05907
3394.59174,0.05878
3392.66300,0.05808
3390.73425,0.05783
3388.80550,0.05794
3386.87676,0.05781
3384.94801,0.05742
3383.01927,0.05735
3381.09052,0.05762
3379.16178,0.05777
3377.23303,0.05787
3375.30429,0.05795
3373.37554,0.05781
3371.44680,0.05771
3369.51805,0.05783
3367.58931,0.05796
3365.66056,0.05821
3363.73182,0.05842
3361.80307,0.05825
3359.87433,0.05802
3357.94558,0.05789
3356.01683,0.05775
3354.08809,0.05771
3352.15934,0.05783
3350.23060,0.05806
3348.30185,0.05829
3346.37311,0.05836
3344.44436,0.05842
3342.51562,0.05862
3340.58687,0.05892
3338.65813,0.05916
3336.72938,0.05911
3334.80064,0.05880
3332.87189,0.05846
3330.94315,0.05835
3329.01440,0.05873
3327.08566,0.05938
3325.15691,0.05966
3323.22816,0.05946
3321.29942,0.05932
3319.37067,0.05952
3317.44193,0.05993
3315.51318,0.06020
3313.58444,0.06026
3311.65569,0.06031
3309.72695,0.06030
3307.79820,0.06020
3305.86946,0.06033
3303.94071,0.06069
3302.01197,0.06087
3300.08322,0.06090
3298.15448,0.06108
3296.22573,0.06137
3294.29698,0.06148
3292.36824,0.06142
3290.43949,0.06137
3288.51075,0.06139
3286.58200,0.06153
3284.65326,0.06182
3282.72451,0.06227
3280.79577,0.06273
3278.86702,0.06313
3276.93828,0.06354
3275.00953,0.06373
3273.08079,0.06351
3271.15204,0.06322
3269.22330,0.06306
3267.29455,0.06281
3265.36581,0.06268
3263.43706,0.06322
3261.50831,0.06412
3259.57957,0.06454
3257.65082,0.06452
3255.72208,0.06471
3253.79333,0.06513
3251.86459,0.06537
3249.93584,0.06550
3248.00710,0.06584
3246.07835,0.06637
3244.14961,0.06675
3242.22086,0.06672
3240.29212,0.06652
3238.36337,0.06674
3236.43463,0.06735
3234.50588,0.06777
3232.57713,0.06798
3230.64839,0.06821
3228.71964,0.06845
3226.79090,0.06868
3224.86215,0.06882
3222.93341,0.06906
3221.00466,0.06957
3219.07592,0.07009
3217.14717,0.07055
3215.21843,0.07082
3213.28968,0.07061
3211.36094,0.07018
3209.43219,0.07004
3207.50345,0.07017
3205.57470,0.07042
3203.64596,0.07089
3201.71721,0.07154
3199.78846,0.07205
3197.85972,0.07232
3195.93097,0.07249
3194.00223,0.07259
3192.07348,0.07265
3190.14474,0.07280
3188.21599,0.07291
3186.28725,0.07276
3184.35850,0.07270
3182.42976,0.07316
3180.50101,0.07395
3178.57227,0.07469
3176.64352,0.07513
3174.71478,0.07520
3172.78603,0.07526
3170.85729,0.07576
3168.92854,0.07650
3166.99979,0.07681
3165.07105,0.07664
3163.14230,0.07662
3161.21356,0.07694
3159.28481,0.07743
3157.35607,0.07790
3155.42732,0.07814
3153.49858,0.07818
3151.56983,0.07824
3149.64109,0.07842
3147.71234,0.07870
3145.78360,0.07897
3143.85485,0.07912
3141.92611,0.07916
3139.99736,0.07921
3138.06861,0.07962
3136.13987,0.08045
3134.21112,0.08120
3132.28238,0.08162
3130.35363,0.08179
3128.42489,0.08183
3126.49614,0.08196
3124.56740,0.08216
3122.63865,0.08213
3120.70991,0.08194
3118.78116,0.08200
3116.85242,0.08237
3114.92367,0.08270
3112.99493,0.08283
3111.06618,0.08297
3109.13744,0.08331
3107.20869,0.08365
3105.27994,0.08379
3103.35120,0.08381
3101.42245,0.08375
3099.49371,0.08366
3097.56496,0.08362
3095.63622,0.08370
3093.70747,0.08384
3091.77873,0.08399
3089.84998,0.08426
3087.92124,0.08451
3085.99249,0.08456
3084.06375,0.08455
3082.13500,0.08456
3080.20626,0.08466
3078.27751,0.08495
3076.34877,0.08511
3074.42002,0.08507
3072.49127,0.08521
3070.56253,0.08549
3068.63378,0.08550
3066.70504,0.08527
3064.77629,0.08517
3062.84755,0.08540
3060.91880,0.08580
3058.99006,0.08607
3057.06131,0.08604
3055.13257,0.08597
3053.20382,0.08615
3051.27508,0.08628
3049.34633,0.08614
3047.41759,0.08599
3045.48884,0.08602
3043.56009,0.08606
3041.63135,0.08592
3039.70260,0.08577
3037.77386,0.08580
3035.84511,0.08598
3033.91637,0.08597
3031.98762,0.08562
3030.05888,0.08527
3028.13013,0.08504
3026.20139,0.08472
3024.27264,0.08433
3022.34390,0.08403
3020.41515,0.08365
3018.48641,0.08305
3016.55766,0.08244
3014.62892,0.08194
3012.70017,0.08131
3010.77142,0.08046
3008.84268,0.07968
3006.91393,0.07906
3004.98519,0.07848
3003.05644,0.07794
3001.12770,0.07743
2999.19895,0.07689
2997.27021,0.07636
2995.34146,0.07605
2993.41272,0.07577
2991.48397,0.07502
2989.55523,0.07381
2987.62648,0.07259
2985.69774,0.07162
2983.76899,0.07069
2981.84025,0.06952
2979.91150,0.06814
2977.98275,0.06661
2976.05401,0.06490
2974.12526,0.06308
2972.19652,0.06138
2970.26777,0.05997
2968.33903,0.05858
2966.41028,0.05697
2964.48154,0.05544
2962.55279,0.05428
2960.62405,0.05335
2958.69530,0.05261
2956.76656,0.05205
2954.83781,0.05141
2952.90907,0.05067
2950.98032,0.05014
2949.05157,0.04970
2947.12283,0.04878
2945.19408,0.04733
2943.26534,0.04596
2941.33659,0.04485
2939.40785,0.04383
2937.47910,0.04307
2935.55036,0.04263
2933.62161,0.04219
2931.69287,0.04153
2929.76412,0.04099
2927.83538,0.04117
2925.90663,0.04207
2923.97789,0.04349
2922.04914,0.04548
2920.12040,0.04792
2918.19165,0.05033
2916.26290,0.05231
2914.33416,0.05350
2912.40541,0.05375
2910.47667,0.05356
2908.54792,0.05352
2906.61918,0.05351
2904.69043,0.05332
2902.76169,0.05305
2900.83294,0.05286
2898.90420,0.05284
2896.97545,0.05308
2895.04671,0.05370
2893.11796,0.05447
2891.18922,0.05503
2889.26047,0.05542
2887.33172,0.05585
2885.40298,0.05637
2883.47423,0.05681
2881.54549,0.05721
2879.61674,0.05768
2877.68800,0.05791
2875.75925,0.05774
2873.83051,0.05751
2871.90176,0.05723
2869.97302,0.05674
2868.04427,0.05612
2866.11553,0.05534
2864.18678,0.05429
2862.25804,0.05311
2860.32929,0.05190
2858.40055,0.05069
2856.47180,0.04962
2854.54305,0.04904
2852.61431,0.04953
2850.68556,0.05155
2848.75682,0.05467
2846.82807,0.05795
2844.89933,0.06087
2842.97058,0.06341
2841.04184,0.06553
2839.11309,0.06735
2837.18435,0.06913
2835.25560,0.07084
2833.32686,0.07239
2831.39811,0.07400
2829.46937,0.07580
2827.54062,0.07756
2825.61188,0.07900
2823.68313,0.08003
2821.75438,0.08078
2819.82564,0.08148
2817.89689,0.08233
2815.96815,0.08319
2814.03940,0.08388
2812.11066,0.08460
2810.18191,0.08532
2808.25317,0.08578
2806.32442,0.08614
2804.39568,0.08674
2802.46693,0.08754
2800.53819,0.08835
2798.60944,0.08905
2796.68070,0.08962
2794.75195,0.09015
2792.82320,0.09061
2790.89446,0.09081
2788.96571,0.09094
2787.03697,0.09132
2785.10822,0.09195
2783.17948,0.09252
2781.25073,0.09276
2779.32199,0.09286
2777.39324,0.09310
2775.46450,0.09343
2773.53575,0.09371
2771.60701,0.09386
2769.67826,0.09391
2767.74952,0.09402
2765.82077,0.09427
2763.89203,0.09463
2761.96328,0.09504
2760.03453,0.09540
2758.10579,0.09553
2756.17704,0.09544
2754.24830,0.09539
2752.31955,0.09554
2750.39081,0.09567
2748.46206,0.09557
2746.53332,0.09534
2744.60457,0.09524
2742.67583,0.09538
2740.74708,0.09551
2738.81834,0.09550
2736.88959,0.09551
2734.96085,0.09556
2733.03210,0.09564
2731.10336,0.09582
2729.17461,0.09602
2727.24586,0.09624
2725.31712,0.09644
2723.38837,0.09648
2721.45963,0.09647
2719.53088,0.09661
2717.60214,0.09689
2715.67339,0.09726
2713.74465,0.09754
2711.81590,0.09765
2709.88716,0.09775
2707.95841,0.09796
2706.02967,0.09824
2704.10092,0.09860
2702.17218,0.09887
2700.24343,0.09893
2698.31468,0.09904
2696.38594,0.09931
2694.45719,0.09959
2692.52845,0.09973
2690.59970,0.09970
2688.67096,0.09967
2686.74221,0.09975
2684.81347,0.09988
2682.88472,0.10011
2680.95598,0.10043
2679.02723,0.10056
2677.09849,0.10049
2675.16974,0.10047
2673.24100,0.10053
2671.31225,0.10053
2669.38351,0.10046
2667.45476,0.10045
2665.52601,0.10057
2663.59727,0.10074
2661.66852,0.10089
2659.73978,0.10101
2657.81103,0.10105
2655.88229,0.10111
2653.95354,0.10125
2652.02480,0.10145
2650.09605,0.10152
2648.16731,0.10145
2646.23856,0.10149
2644.30982,0.10169
2642.38107,0.10182
2640.45233,0.10188
2638.52358,0.10203
2636.59484,0.10225
2634.66609,0.10236
2632.73734,0.10244
2630.80860,0.10262
2628.87985,0.10296
2626.95111,0.10352
2625.02236,0.10419
2623.09362,0.10485
2621.16487,0.10537
2619.23613,0.10550
2617.30738,0.10540
2615.37864,0.10542
2613.44989,0.10569
2611.52115,0.10608
2609.59240,0.10635
2607.66366,0.10646
2605.73491,0.10663
2603.80616,0.10685
2601.87742,0.10705
2599.94867,0.10716
2598.01993,0.10724
2596.09118,0.10751
2594.16244,0.10796
2592.23369,0.10834
2590.30495,0.10861
2588.37620,0.10891
2586.44746,0.10929
2584.51871,0.10954
2582.58997,0.10955
2580.66122,0.10953
2578.73248,0.10962
2576.80373,0.10986
2574.87499,0.11027
2572.94624,0.11067
2571.01749,0.11087
2569.08875,0.11090
2567.16000,0.11082
2565.23126,0.11081
2563.30251,0.11084
2561.37377,0.11075
2559.44502,0.11073
2557.51628,0.11100
2555.58753,0.11131
2553.65879,0.11144
2551.73004,0.11156
2549.80130,0.11173
2547.87255,0.11181
2545.94381,0.11181
2544.01506,0.11182
2542.08631,0.11175
2540.15757,0.11166
2538.22882,0.11184
2536.30008,0.11224
2534.37133,0.11252
2532.44259,0.11260
2530.51384,0.11264
2528.58510,0.11275
2526.65635,0.11303
2524.72761,0.11333
2522.79886,0.11354
2520.87012,0.11376
2518.94137,0.11393
2517.01263,0.11397
2515.08388,0.11405
2513.15514,0.11438
2511.22639,0.11492
2509.29764,0.11542
2507.36890,0.11560
2505.44015,0.11556
2503.51141,0.11571
2501.58266,0.11612
2499.65392,0.11653
2497.72517,0.11686
2495.79643,0.11706
2493.86768,0.11708
2491.93894,0.11708
2490.01019,0.11725
2488.08145,0.11750
2486.15270,0.11775
2484.22396,0.11813
2482.29521,0.11864
2480.36647,0.11894
2478.43772,0.11904
2476.50897,0.11919
2474.58023,0.11939
2472.65148,0.11959
2470.72274,0.11979
2468.79399,0.11999
2466.86525,0.12023
2464.93650,0.12047
2463.00776,0.12058
2461.07901,0.12070
2459.15027,0.12107
2457.22152,0.12148
2455.29278,0.12172
2453.36403,0.12185
2451.43529,0.12189
2449.50654,0.12189
2447.57779,0.12207
2445.64905,0.12236
2443.72030,0.12258
2441.79156,0.12288
2439.86281,0.12342
2437.93407,0.12383
2436.00532,0.12388
2434.07658,0.12396
2432.14783,0.12410
2430.21909,0.12406
2428.29034,0.12411
2426.36160,0.12445
2424.43285,0.12468
2422.50411,0.12461
2420.57536,0.12460
2418.64662,0.12485
2416.71787,0.12521
2414.78912,0.12560
2412.86038,0.12608
2410.93163,0.12666
2409.00289,0.12722
2407.07414,0.12770
2405.14540,0.12807
2403.21665,0.12834
2401.28791,0.12858
2399.35916,0.12888
2397.43042,0.12917
2395.50167,0.12940
2393.57293,0.12970
2391.64418,0.12999
2389.71544,0.13013
2387.78669,0.13024
2385.85795,0.13044
2383.92920,0.13063
2382.00045,0.13075
2380.07171,0.13088
2378.14296,0.13105
2376.21422,0.13129
2374.28547,0.13153
2372.35673,0.13170
2370.42798,0.13176
2368.49924,0.13172
2366.57049,0.13175
2364.64175,0.13184
2362.71300,0.13194
2360.78426,0.13210
2358.85551,0.13216
2356.92677,0.13193
2354.99802,0.13159
2353.06927,0.13135
2351.14053,0.13117
2349.21178,0.13106
2347.28304,0.13100
2345.35429,0.13094
2343.42555,0.13083
2341.49680,0.13076
2339.56806,0.13090
2337.63931,0.13122
2335.71057,0.13147
2333.78182,0.13156
2331.85308,0.13160
2329.92433,0.13175
2327.99559,0.13208
2326.06684,0.13237
2324.13810,0.13243
2322.20935,0.13243
2320.28060,0.13247
2318.35186,0.13260
2316.42311,0.13290
2314.49437,0.13317
2312.56562,0.13329
2310.63688,0.13342
2308.70813,0.13352
2306.77939,0.13353
2304.85064,0.13358
2302.92190,0.13370
2300.99315,0.13381
2299.06441,0.13387
2297.13566,0.13390
2295.20692,0.13386
2293.27817,0.13369
2291.34943,0.13354
2289.42068,0.13357
2287.49193,0.13370
2285.56319,0.13381
2283.63444,0.13386
2281.70570,0.13381
2279.77695,0.13362
2277.84821,0.13342
2275.91946,0.13344
2273.99072,0.13352
2272.06197,0.13338
2270.13323,0.13307
2268.20448,0.13284
2266.27574,0.13269
2264.34699,0.13258
2262.41825,0.13261
2260.48950,0.13261
2258.56075,0.13245
2256.63201,0.13227
2254.70326,0.13197
2252.77452,0.13155
2250.84577,0.13125
2248.91703,0.13099
2246.98828,0.13067
2245.05954,0.13033
2243.13079,0.13010
2241.20205,0.13015
2239.27330,0.13043
2237.34456,0.13074
2235.41581,0.13097
2233.48707,0.13106
2231.55832,0.13098
2229.62958,0.13093
2227.70083,0.13109
2225.77208,0.13130
2223.84334,0.13135
2221.91459,0.13132
2219.98585,0.13125
2218.05710,0.13116
2216.12836,0.13117
2214.19961,0.13128
2212.27087,0.13135
2210.34212,0.13132
2208.41338,0.13123
2206.48463,0.13105
2204.55589,0.13084
2202.62714,0.13069
2200.69840,0.13052
2198.76965,0.13023
2196.84090,0.12991
2194.91216,0.12958
2192.98341,0.12915
2191.05467,0.12867
2189.12592,0.12825
2187.19718,0.12776
2185.26843,0.12714
2183.33969,0.12657
2181.41094,0.12612
2179.48220,0.12570
2177.55345,0.12527
2175.62471,0.12476
2173.69596,0.12415
2171.76722,0.12368
2169.83847,0.12336
2167.90973,0.12301
2165.98098,0.12258
2164.05223,0.12212
2162.12349,0.12167
2160.19474,0.12118
2158.26600,0.12068
2156.33725,0.12024
2154.40851,0.11989
2152.47976,0.11962
2150.55102,0.11948
2148.62227,0.11942
2146.69353,0.11934
2144.76478,0.11931
2142.83604,0.11930
2140.90729,0.11911
2138.97855,0.11885
2137.04980,0.11881
2135.12106,0.11897
2133.19231,0.11902
2131.26356,0.11897
2129.33482,0.11906
2127.40607,0.11922
2125.47733,0.11930
2123.54858,0.11936
2121.61984,0.11948
2119.69109,0.11950
2117.76235,0.11936
2115.83360,0.11924
2113.90486,0.11938
2111.97611,0.11976
2110.04737,0.12012
2108.11862,0.12032
2106.18988,0.12041
2104.26113,0.12044
2102.33238,0.12043
2100.40364,0.12052
2098.47489,0.12075
2096.54615,0.12092
2094.61740,0.12095
2092.68866,0.12098
2090.75991,0.12102
2088.83117,0.12101
2086.90242,0.12100
2084.97368,0.12097
2083.04493,0.12088
2081.11619,0.12079
2079.18744,0.12073
2077.25870,0.12070
2075.32995,0.12064
2073.40121,0.12047
2071.47246,0.12027
2069.54371,0.12009
2067.61497,0.11980
2065.68622,0.11945
2063.75748,0.11933
2061.82873,0.11943
2059.89999,0.11954
2057.97124,0.11958
2056.04250,0.11954
2054.11375,0.11948
2052.18501,0.11952
2050.25626,0.11967
2048.32752,0.11981
2046.39877,0.11976
2044.47003,0.11952
2042.54128,0.11940
2040.61254,0.11956
2038.68379,0.11972
2036.75504,0.11974
2034.82630,0.11979
2032.89755,0.11991
2030.96881,0.12001
2029.04006,0.12002
2027.11132,0.11996
2025.18257,0.11992
2023.25383,0.12000
2021.32508,0.12017
2019.39634,0.12036
2017.46759,0.12075
2015.53885,0.12141
2013.61010,0.12217
2011.68136,0.12292
2009.75261,0.12361
2007.82386,0.12419
2005.89512,0.12464
2003.96637,0.12507
2002.03763,0.12551
2000.10888,0.12592
1998.18014,0.12627
1996.25139,0.12654
1994.32265,0.12675
1992.39390,0.12697
1990.46516,0.12722
1988.53641,0.12748
1986.60767,0.12772
1984.67892,0.12794
1982.75018,0.12805
1980.82143,0.12796
1978.89269,0.12784
1976.96394,0.12771
1975.03519,0.12748
1973.10645,0.12725
1971.17770,0.12713
1969.24896,0.12703
1967.32021,0.12680
1965.39147,0.12644
1963.46272,0.12614
1961.53398,0.12601
1959.60523,0.12594
1957.67649,0.12583
1955.74774,0.12573
1953.81900,0.12570
1951.89025,0.12581
1949.96151,0.12595
1948.03276,0.12608
1946.10402,0.12628
1944.17527,0.12654
1942.24652,0.12680
1940.31778,0.12709
1938.38903,0.12731
1936.46029,0.12747
1934.53154,0.12772
1932.60280,0.12809
1930.67405,0.12847
1928.74531,0.12868
1926.81656,0.12876
1924.88782,0.12897
1922.95907,0.12939
1921.03033,0.12974
1919.10158,0.12997
1917.17284,0.13009
1915.24409,0.13006
1913.31534,0.12997
1911.38660,0.12989
1909.45785,0.12980
1907.52911,0.12961
1905.60036,0.12931
1903.67162,0.12900
1901.74287,0.12867
1899.81413,0.12839
1897.88538,0.12832
1895.95664,0.12831
1894.02789,0.12833
1892.09915,0.12862
1890.17040,0.12913
1888.24166,0.12954
1886.31291,0.12985
1884.38417,0.13016
1882.45542,0.13038
1880.52667,0.13044
1878.59793,0.13031
1876.66918,0.13013
1874.74044,0.13011
1872.81169,0.13013
1870.88295,0.12992
1868.95420,0.12954
1867.02546,0.12926
1865.09671,0.12908
1863.16797,0.12889
1861.23922,0.12869
1859.31048,0.12849
1857.38173,0.12827
1855.45299,0.12790
1853.52424,0.12743
1851.59549,0.12696
1849.66675,0.12650
1847.73800,0.12601
1845.80926,0.12546
1843.88051,0.12485
1841.95177,0.12431
1840.02302,0.12389
1838.09428,0.12344
1836.16553,0.12280
1834.23679,0.12203
1832.30804,0.12135
1830.37930,0.12071
1828.45055,0.12007
1826.52181,0.11944
1824.59306,0.11862
1822.66432,0.11762
1820.73557,0.11675
1818.80682,0.11605
1816.87808,0.11534
1814.94933,0.11449
1813.02059,0.11354
1811.09184,0.11260
1809.16310,0.11169
1807.23435,0.11072
1805.30561,0.10964
1803.37686,0.10848
1801.44812,0.10720
1799.51937,0.10581
1797.59063,0.10443
1795.66188,0.10317
1793.73314,0.10193
1791.80439,0.10055
1789.87565,0.09916
1787.94690,0.09788
1786.01815,0.09647
1784.08941,0.09475
1782.16066,0.09293
1780.23192,0.09111
1778.30317,0.08916
1776.37443,0.08698
1774.44568,0.08446
1772.51694,0.08151
1770.58819,0.07858
1768.65945,0.07601
1766.73070,0.07368
1764.80196,0.07150
1762.87321,0.06931
1760.94447,0.06717
1759.01572,0.06524
1757.08697,0.06342
1755.15823,0.06190
1753.22948,0.06086
1751.30074,0.05995
1749.37199,0.05891
1747.44325,0.05804
1745.51450,0.05748
1743.58576,0.05704
1741.65701,0.05673
1739.72827,0.05675
1737.79952,0.05717
1735.87078,0.05780
1733.94203,0.05840
1732.01329,0.05883
1730.08454,0.05930
1728.15580,0.05989
1726.22705,0.06053
1724.29830,0.06111
1722.36956,0.06168
1720.44081,0.06242
1718.51207,0.06334
1716.58332,0.06415
1714.65458,0.06480
1712.72583,0.06548
1710.79709,0.06632
1708.86834,0.06726
1706.93960,0.06811
1705.01085,0.06871
1703.08211,0.06920
1701.15336,0.06976
1699.22462,0.07015
1697.29587,0.07026
1695.36713,0.07023
1693.43838,0.07015
1691.50963,0.07012
1689.58089,0.07007
1687.65214,0.06990
1685.72340,0.06967
1683.79465,0.06929
1681.86591,0.06868
1679.93716,0.06792
1678.00842,0.06722
1676.07967,0.06668
1674.15093,0.06616
1672.22218,0.06555
1670.29344,0.06479
1668.36469,0.06410
1666.43595,0.06378
1664.50720,0.06361
1662.57845,0.06341
1660.64971,0.06323
1658.72096,0.06312
1656.79222,0.06311
1654.86347,0.06312
1652.93473,0.06303
1651.00598,0.06316
1649.07724,0.06354
1647.14849,0.06389
1645.21975,0.06396
1643.29100,0.06376
1641.36226,0.06354
1639.43351,0.06339
1637.50477,0.06318
1635.57602,0.06295
1633.64728,0.06288
1631.71853,0.06281
1629.78978,0.06264
1627.86104,0.06240
1625.93229,0.06208
1624.00355,0.06170
1622.07480,0.06143
1620.14606,0.06126
1618.21731,0.06101
1616.28857,0.06079
1614.35982,0.06065
1612.43108,0.06033
1610.50233,0.05975
1608.57359,0.05916
1606.64484,0.05869
1604.71610,0.05824
1602.78735,0.05779
1600.85861,0.05740
1598.92986,0.05702
1597.00111,0.05660
1595.07237,0.05632
1593.14362,0.05640
1591.21488,0.05688
1589.28613,0.05766
1587.35739,0.05857
1585.42864,0.05949
1583.49990,0.06055
1581.57115,0.06190
1579.64241,0.06355
1577.71366,0.06536
1575.78492,0.06693
1573.85617,0.06792
1571.92743,0.06874
1569.99868,0.06963
1568.06993,0.07037
1566.14119,0.07093
1564.21244,0.07138
1562.28370,0.07164
1560.35495,0.07173
1558.42621,0.07185
1556.49746,0.07211
1554.56872,0.07235
1552.63997,0.07232
1550.71123,0.07206
1548.78248,0.07184
1546.85374,0.07163
1544.92499,0.07128
1542.99625,0.07089
1541.06750,0.07055
1539.13876,0.07014
1537.21001,0.06977
1535.28126,0.06944
1533.35252,0.06881
1531.42377,0.06783
1529.49503,0.06685
1527.56628,0.06583
1525.63754,0.06454
1523.70879,0.06311
1521.78005,0.06163
1519.85130,0.06016
1517.92256,0.05883
1515.99381,0.05768
1514.06507,0.05679
1512.13632,0.05606
1510.20758,0.05535
1508.27883,0.05470
1506.35008,0.05425
1504.42134,0.05425
1502.49259,0.05464
1500.56385,0.05520
1498.63510,0.05586
1496.70636,0.05653
1494.77761,0.05704
1492.84887,0.05737
1490.92012,0.05753
1488.99138,0.05750
1487.06263,0.05728
1485.13389,0.05675
1483.20514,0.05581
1481.27640,0.05450
1479.34765,0.05269
1477.41891,0.05004
1475.49016,0.04684
1473.56141,0.04448
1471.63267,0.04372
1469.70392,0.04354
1467.77518,0.04314
1465.84643,0.04274
1463.91769,0.04290
1461.98894,0.04396
1460.06020,0.04545
1458.13145,0.04661
1456.20271,0.04729
1454.27396,0.04787
1452.34522,0.04851
1450.41647,0.04914
1448.48773,0.04969
1446.55898,0.05000
1444.63024,0.05013
1442.70149,0.05023
1440.77274,0.05023
1438.84400,0.05012
1436.91525,0.05009
1434.98651,0.05023
1433.05776,0.05035
1431.12902,0.05039
1429.20027,0.05047
1427.27153,0.05069
1425.34278,0.05098
1423.41404,0.05127
1421.48529,0.05154
1419.55655,0.05180
1417.62780,0.05205
1415.69906,0.05233
1413.77031,0.05267
1411.84156,0.05297
1409.91282,0.05321
1407.98407,0.05347
1406.05533,0.05367
1404.12658,0.05369
1402.19784,0.05355
1400.26909,0.05340
1398.34035,0.05329
1396.41160,0.05311
1394.48286,0.05286
1392.55411,0.05257
1390.62537,0.05218
1388.69662,0.05165
1386.76788,0.05101
1384.83913,0.05034
1382.91039,0.04961
1380.98164,0.04870
1379.05289,0.04783
1377.12415,0.04745
1375.19540,0.04759
1373.26666,0.04798
1371.33791,0.04835
1369.40917,0.04867
1367.48042,0.04912
1365.55168,0.04963
1363.62293,0.04998
1361.69419,0.05018
1359.76544,0.05032
1357.83670,0.05046
1355.90795,0.05056
1353.97921,0.05040
1352.05046,0.05007
1350.12172,0.04993
1348.19297,0.05000
1346.26422,0.05002
1344.33548,0.04999
1342.40673,0.05000
1340.47799,0.05005
1338.54924,0.05004
1336.62050,0.04989
1334.69175,0.04975
1332.76301,0.04974
1330.83426,0.04976
1328.90552,0.04977
1326.97677,0.04979
1325.04803,0.04977
1323.11928,0.04976
1321.19054,0.04980
1319.26179,0.04975
1317.33304,0.04963
1315.40430,0.04968
1313.47555,0.04991
1311.54681,0.05020
1309.61806,0.05040
1307.68932,0.05052
1305.76057,0.05065
1303.83183,0.05075
1301.90308,0.05076
1299.97434,0.05076
1298.04559,0.05079
1296.11685,0.05067
1294.18810,0.05038
1292.25936,0.05013
1290.33061,0.04996
1288.40187,0.04989
1286.47312,0.04988
1284.54437,0.04966
1282.61563,0.04925
1280.68688,0.04891
1278.75814,0.04858
1276.82939,0.04819
1274.90065,0.04783
1272.97190,0.04750
1271.04316,0.04709
1269.11441,0.04652
1267.18567,0.04577
1265.25692,0.04505
1263.32818,0.04466
1261.39943,0.04475
1259.47069,0.04514
1257.54194,0.04550
1255.61320,0.04587
1253.68445,0.04635
1251.75570,0.04668
1249.82696,0.04679
1247.89821,0.04696
1245.96947,0.04720
1244.04072,0.04735
1242.11198,0.04746
1240.18323,0.04742
1238.25449,0.04727
1236.32574,0.04733
1234.39700,0.04758
1232.46825,0.04781
1230.53951,0.04796
1228.61076,0.04804
1226.68202,0.04814
1224.75327,0.04839
1222.82452,0.04865
1220.89578,0.04871
1218.96703,0.04865
1217.03829,0.04881
1215.10954,0.04913
1213.18080,0.04925
1211.25205,0.04921
1209.32331,0.04922
1207.39456,0.04934
1205.46582,0.04940
1203.53707,0.04920
1201.60833,0.04893
1199.67958,0.04889
1197.75084,0.04894
1195.82209,0.04886
1193.89335,0.04881
1191.96460,0.04887
1190.03585,0.04872
1188.10711,0.04832
1186.17836,0.04802
1184.24962,0.04777
1182.32087,0.04718
1180.39213,0.04649
1178.46338,0.04613
1176.53464,0.04591
1174.60589,0.04563
1172.67715,0.04543
1170.74840,0.04544
1168.81966,0.04569
1166.89091,0.04594
1164.96217,0.04593
1163.03342,0.04582
1161.10467,0.04585
1159.17593,0.04594
1157.24718,0.04598
1155.31844,0.04590
1153.38969,0.04556
1151.46095,0.04504
1149.53220,0.04464
1147.60346,0.04453
1145.67471,0.04452
1143.74597,0.04425
1141.81722,0.04364
1139.88848,0.04305
1137.95973,0.04268
1136.03099,0.04236
1134.10224,0.04208
1132.17350,0.04202
1130.24475,0.04216
1128.31600,0.04222
1126.38726,0.04231
1124.45851,0.04273
1122.52977,0.04315
1120.60102,0.04316
1118.67228,0.04313
1116.74353,0.04333
1114.81479,0.04338
1112.88604,0.04317
1110.95730,0.04310
1109.02855,0.04337
1107.09981,0.04371
1105.17106,0.04385
1103.24232,0.04379
1101.31357,0.04372
1099.38483,0.04372
1097.45608,0.04369
1095.52733,0.04362
1093.59859,0.04357
1091.66984,0.04347
1089.74110,0.04335
1087.81235,0.04353
1085.88361,0.04409
1083.95486,0.04448
1082.02612,0.04439
1080.09737,0.04440
1078.16863,0.04515
1076.23988,0.04623
1074.31114,0.04695
1072.38239,0.04732
1070.45365,0.04777
1068.52490,0.04846
1066.59615,0.04935
1064.66741,0.05026
1062.73866,0.05112
1060.80992,0.05196
1058.88117,0.05251
1056.95243,0.05278
1055.02368,0.05305
1053.09494,0.05329
1051.16619,0.05355
1049.23745,0.05376
1047.30870,0.05362
1045.37996,0.05338
1043.45121,0.05345
1041.52247,0.05369
1039.59372,0.05407
1037.66498,0.05469
1035.73623,0.05532
1033.80748,0.05586
1031.87874,0.05640
1029.94999,0.05676
1028.02125,0.05685
1026.09250,0.05687
1024.16376,0.05701
1022.23501,0.05723
1020.30627,0.05739
1018.37752,0.05753
1016.44878,0.05763
1014.52003,0.05761
1012.59129,0.05763
1010.66254,0.05787
1008.73380,0.05834
1006.80505,0.05896
1004.87631,0.05939
1002.94756,0.05946
1001.01881,0.05948
999.09007,0.05967
997.16132,0.05981
995.23258,0.05983
993.30383,0.06004
991.37509,0.06072
989.44634,0.06165
987.51760,0.06250
985.58885,0.06314
983.66011,0.06356
981.73136,0.06392
979.80262,0.06434
977.87387,0.06467
975.94513,0.06493
974.01638,0.06528
972.08763,0.06559
970.15889,0.06575
968.23014,0.06596
966.30140,0.06625
964.37265,0.06655
962.44391,0.06703
960.51516,0.06779
958.58642,0.06853
956.65767,0.06902
954.72893,0.06946
952.80018,0.07009
950.87144,0.07071
948.94269,0.07116
947.01395,0.07154
945.08520,0.07171
943.15646,0.07144
941.22771,0.07098
939.29896,0.07078
937.37022,0.07077
935.44147,0.07051
933.51273,0.06999
931.58398,0.06962
929.65524,0.06936
927.72649,0.06902
925.79775,0.06868
923.86900,0.06845
921.94026,0.06826
920.01151,0.06795
918.08277,0.06742
916.15402,0.06666
914.22528,0.06583
912.29653,0.06522
910.36779,0.06492
908.43904,0.06456
906.51029,0.06397
904.58155,0.06320
902.65280,0.06233
900.72406,0.06159
898.79531,0.06139
896.86657,0.06180
894.93782,0.06247
893.00908,0.06313
891.08033,0.06364
889.15159,0.06384
887.22284,0.06399
885.29410,0.06438
883.36535,0.06486
881.43661,0.06528
879.50786,0.06564
877.57911,0.06587
875.65037,0.06577
873.72162,0.06534
871.79288,0.06521
869.86413,0.06570
867.93539,0.06618
866.00664,0.06616
864.07790,0.06585
862.14915,0.06544
860.22041,0.06516
858.29166,0.06515
856.36292,0.06501
854.43417,0.06457
852.50543,0.06424
850.57668,0.06401
848.64794,0.06368
846.71919,0.06331
844.79044,0.06303
842.86170,0.06273
840.93295,0.06229
839.00421,0.06187
837.07546,0.06161
835.14672,0.06134
833.21797,0.06093
831.28923,0.06048
829.36048,0.06023
827.43174,0.06012
825.50299,0.05965
823.57425,0.05886
821.64550,0.05845
819.71676,0.05843
817.78801,0.05808
815.85926,0.05743
813.93052,0.05713
812.00177,0.05708
810.07303,0.05675
808.14428,0.05617
806.21554,0.05579
804.28679,0.05587
802.35805,0.05628
800.42930,0.05682
798.50056,0.05720
796.57181,0.05728
794.64307,0.05743
792.71432,0.05788
790.78558,0.05830
788.85683,0.05880
786.92809,0.05969
784.99934,0.06044
783.07059,0.06050
781.14185,0.06020
779.21310,0.05985
777.28436,0.05946
775.35561,0.05903
773.42687,0.05867
771.49812,0.05853
769.56938,0.05841
767.64063,0.05795
765.71189,0.05726
763.78314,0.05676
761.85440,0.05662
759.92565,0.05664
757.99691,0.05638
756.06816,0.05586
754.13942,0.05551
752.21067,0.05530
750.28192,0.05472
748.35318,0.05387
746.42443,0.05344
744.49569,0.05329
742.56694,0.05269
740.63820,0.05175
738.70945,0.05106
736.78071,0.05080
734.85196,0.05026
732.92322,0.04905
730.99447,0.04805
729.06573,0.04787
727.13698,0.04805
725.20824,0.04806
723.27949,0.04754
721.35074,0.04684
719.42200,0.04710
717.49325,0.04850
715.56451,0.04977
713.63576,0.05019
711.70702,0.05010
709.77827,0.04987
707.84953,0.04969
705.92078,0.04952
703.99204,0.04949
702.06329,0.04985
700.13455,0.05017
698.20580,0.04996
696.27706,0.04950
694.34831,0.04917
692.41957,0.04882
690.49082,0.04832
688.56207,0.04826
686.63333,0.04884
684.70458,0.04934
682.77584,0.04930
680.84709,0.04886
678.91835,0.04808
676.98960,0.04734
675.06086,0.04716
673.13211,0.04725
671.20337,0.04706
669.27462,0.04666
667.34588,0.04675
665.41713,0.04729
663.48839,0.04746
661.55964,0.04742
659.63090,0.04775
657.70215,0.04791
655.77340,0.04758
653.84466,0.04712
651.91591,0.04679
649.98717,0.04696
648.05842,0.04724
646.12968,0.04664
644.20093,0.04565
642.27219,0.04512
640.34344,0.04483
638.41470,0.04499
636.48595,0.04554
634.55721,0.04556
632.62846,0.04526
630.69972,0.04509
628.77097,0.04506
626.84222,0.04530
624.91348,0.04530
622.98473,0.04459
621.05599,0.04415
619.12724,0.04449
617.19850,0.04466
615.26975,0.04437
613.34101,0.04414
611.41226,0.04410
609.48352,0.04422
607.55477,0.04416
605.62603,0.04376
603.69728,0.04376
601.76854,0.04443
599.83979,0.04505
