7497.03301,0.05025
7495.10426,0.04762
7493.17552,0.04083
7491.24677,0.03746
7489.31803,0.04000
7487.38928,0.04301
7485.46054,0.04387
7483.53179,0.04434
7481.60305,0.04465
7479.67430,0.04549
7477.74556,0.04769
7475.81681,0.05029
7473.88807,0.05007
7471.95932,0.04589
7470.03057,0.04174
7468.10183,0.04161
7466.17308,0.04508
7464.24434,0.04740
7462.31559,0.04701
7460.38685,0.05118
7458.45810,0.05817
7456.52936,0.05626
7454.60061,0.04692
7452.67187,0.04440
7450.74312,0.05123
7448.81438,0.05545
7446.88563,0.05171
7444.95689,0.04631
7443.02814,0.04428
7441.09940,0.04547
7439.17065,0.04689
7437.24190,0.04786
7435.31316,0.04742
7433.38441,0.04613
7431.45567,0.04613
7429.52692,0.04592
7427.59818,0.04260
7425.66943,0.03767
7423.74069,0.03594
7421.81194,0.03860
7419.88320,0.04233
7417.95445,0.04768
7416.02571,0.05494
7414.09696,0.05858
7412.16822,0.05544
7410.23947,0.05059
7408.31073,0.05011
7406.38198,0.05217
7404.45323,0.05191
7402.52449,0.05152
7400.59574,0.05311
7398.66700,0.05355
7396.73825,0.05057
7394.80951,0.04850
7392.88076,0.04980
7390.95202,0.05015
7389.02327,0.04905
7387.09453,0.05120
7385.16578,0.05346
7383.23704,0.05126
7381.30829,0.04911
7379.37955,0.05134
7377.45080,0.05270
7375.52205,0.04956
7373.59331,0.04571
7371.66456,0.04364
7369.73582,0.04277
7367.80707,0.04395
7365.87833,0.04570
7363.94958,0.04658
7362.02084,0.04834
7360.09209,0.05113
7358.16335,0.05129
7356.23460,0.04855
7354.30586,0.04666
7352.37711,0.04747
7350.44837,0.04895
7348.51962,0.04823
7346.59088,0.04464
7344.66213,0.04010
7342.73338,0.03694
7340.80464,0.03776
7338.87589,0.04221
7336.94715,0.04513
7335.01840,0.04379
7333.08966,0.04094
7331.16091,0.03856
7329.23217,0.03880
7327.30342,0.04378
7325.37468,0.04846
7323.44593,0.04745
7321.51719,0.04435
7319.58844,0.04271
7317.65970,0.04396
7315.73095,0.04760
7313.80221,0.04911
7311.87346,0.04714
7309.94471,0.04450
7308.01597,0.04335
7306.08722,0.04431
7304.15848,0.04598
7302.22973,0.04755
7300.30099,0.04933
7298.37224,0.04994
7296.44350,0.04887
7294.51475,0.04925
7292.58601,0.05217
7290.65726,0.05425
7288.72852,0.05371
7286.79977,0.05336
7284.87103,0.05502
7282.94228,0.05718
7281.01353,0.05808
7279.08479,0.05732
7277.15604,0.05707
7275.22730,0.05770
7273.29855,0.05457
7271.36981,0.04866
7269.44106,0.04416
7267.51232,0.04134
7265.58357,0.04016
7263.65483,0.04198
7261.72608,0.04528
7259.79734,0.04659
7257.86859,0.04587
7255.93985,0.04487
7254.01110,0.04302
7252.08236,0.04253
7250.15361,0.04548
7248.22486,0.05015
7246.29612,0.05224
7244.36737,0.04935
7242.43863,0.04425
7240.50988,0.04295
7238.58114,0.04626
7236.65239,0.05054
7234.72365,0.05441
7232.79490,0.05621
7230.86616,0.05310
7228.93741,0.04684
7227.00867,0.04230
7225.07992,0.04159
7223.15118,0.04196
7221.22243,0.04296
7219.29369,0.04640
7217.36494,0.05011
7215.43619,0.05249
7213.50745,0.05452
7211.57870,0.05603
7209.64996,0.05517
7207.72121,0.04983
7205.79247,0.04391
7203.86372,0.04321
7201.93498,0.04593
7200.00623,0.04758
7198.07749,0.04742
7196.14874,0.04613
7194.22000,0.04448
7192.29125,0.04294
7190.36251,0.04129
7188.43376,0.04031
7186.50501,0.04186
7184.57627,0.04393
7182.64752,0.04451
7180.71878,0.04532
7178.79003,0.04603
7176.86129,0.04567
7174.93254,0.04644
7173.00380,0.04892
7171.07505,0.05104
7169.14631,0.05144
7167.21756,0.05008
7165.28882,0.04763
7163.36007,0.04561
7161.43133,0.04592
7159.50258,0.04998
7157.57384,0.05357
7155.64509,0.05186
7153.71634,0.04902
7151.78760,0.04920
7149.85885,0.04934
7147.93011,0.04770
7146.00136,0.04645
7144.07262,0.04621
7142.14387,0.04578
7140.21513,0.04555
7138.28638,0.04491
7136.35764,0.04427
7134.42889,0.04535
7132.50015,0.04700
7130.57140,0.04860
7128.64266,0.05133
7126.71391,0.05309
7124.78516,0.05203
7122.85642,0.05031
7120.92767,0.04864
7118.99893,0.04670
7117.07018,0.04634
7115.14144,0.04690
7113.21269,0.04682
7111.28395,0.04671
7109.35520,0.04698
7107.42646,0.04735
7105.49771,0.04811
7103.56897,0.04905
7101.64022,0.04838
7099.71148,0.04606
7097.78273,0.04487
7095.85399,0.04569
7093.92524,0.04649
7091.99649,0.04569
7090.06775,0.04546
7088.13900,0.04726
7086.21026,0.04879
7084.28151,0.04839
7082.35277,0.04673
7080.42402,0.04539
7078.49528,0.04607
7076.56653,0.04781
7074.63779,0.04847
7072.70904,0.04835
7070.78030,0.04764
7068.85155,0.04633
7066.92281,0.04647
7064.99406,0.04664
7063.06532,0.04413
7061.13657,0.04229
7059.20782,0.04463
7057.27908,0.04731
7055.35033,0.04726
7053.42159,0.04757
7051.49284,0.04944
7049.56410,0.04975
7047.63535,0.04833
7045.70661,0.04723
7043.77786,0.04693
7041.84912,0.04775
7039.92037,0.04918
7037.99163,0.04963
7036.06288,0.04836
7034.13414,0.04516
7032.20539,0.04226
7030.27664,0.04208
7028.34790,0.04337
7026.41915,0.04402
7024.49041,0.04354
7022.56166,0.04341
7020.63292,0.04469
7018.70417,0.04594
7016.77543,0.04680
7014.84668,0.04831
7012.91794,0.04919
7010.98919,0.04879
7009.06045,0.04935
7007.13170,0.05061
7005.20296,0.05037
7003.27421,0.04833
7001.34547,0.04575
6999.41672,0.04416
6997.48797,0.04411
6995.55923,0.04431
6993.63048,0.04539
6991.70174,0.04825
6989.77299,0.04857
6987.84425,0.04447
6985.91550,0.04235
6983.98676,0.04475
6982.05801,0.04790
6980.12927,0.04941
6978.20052,0.04999
6976.27178,0.04992
6974.34303,0.04816
6972.41429,0.04497
6970.48554,0.04303
6968.55680,0.04292
6966.62805,0.04237
6964.69930,0.04236
6962.77056,0.04393
6960.84181,0.04435
6958.91307,0.04435
6956.98432,0.04554
6955.05558,0.04480
6953.12683,0.04200
6951.19809,0.04195
6949.26934,0.04516
6947.34060,0.04857
6945.41185,0.05057
6943.48311,0.05013
6941.55436,0.04864
6939.62562,0.05008
6937.69687,0.05222
6935.76812,0.05090
6933.83938,0.04909
6931.91063,0.04966
6929.98189,0.05049
6928.05314,0.05056
6926.12440,0.05068
6924.19565,0.05075
6922.26691,0.04987
6920.33816,0.04830
6918.40942,0.04740
6916.48067,0.04661
6914.55193,0.04463
6912.62318,0.04429
6910.69444,0.04769
6908.76569,0.05172
6906.83695,0.05324
6904.90820,0.05264
6902.97945,0.05038
6901.05071,0.04666
6899.12196,0.04366
6897.19322,0.04298
6895.26447,0.04339
6893.33573,0.04483
6891.40698,0.04733
6889.47824,0.04943
6887.54949,0.05017
6885.62075,0.04971
6883.69200,0.04867
6881.76326,0.04784
6879.83451,0.04766
6877.90577,0.04735
6875.97702,0.04629
6874.04828,0.04579
6872.11953,0.04566
6870.19078,0.04468
6868.26204,0.04405
6866.33329,0.04381
6864.40455,0.04264
6862.47580,0.04217
6860.54706,0.04282
6858.61831,0.04394
6856.68957,0.04582
6854.76082,0.04619
6852.83208,0.04470
6850.90333,0.04483
6848.97459,0.04675
6847.04584,0.04772
6845.11710,0.04651
6843.18835,0.04412
6841.25960,0.04187
6839.33086,0.04122
6837.40211,0.04319
6835.47337,0.04640
6833.54462,0.04821
6831.61588,0.04845
6829.68713,0.04678
6827.75839,0.04276
6825.82964,0.04040
6823.90090,0.04342
6821.97215,0.04875
6820.04341,0.05083
6818.11466,0.04836
6816.18592,0.04561
6814.25717,0.04565
6812.32843,0.04676
6810.39968,0.04718
6808.47093,0.04778
6806.54219,0.04868
6804.61344,0.04869
6802.68470,0.04801
6800.75595,0.04725
6798.82721,0.04714
6796.89846,0.04723
6794.96972,0.04599
6793.04097,0.04482
6791.11223,0.04424
6789.18348,0.04258
6787.25474,0.04125
6785.32599,0.04214
6783.39725,0.04374
6781.46850,0.04524
6779.53975,0.04667
6777.61101,0.04681
6775.68226,0.04552
6773.75352,0.04479
6771.82477,0.04503
6769.89603,0.04560
6767.96728,0.04726
6766.03854,0.04923
6764.10979,0.04874
6762.18105,0.04680
6760.25230,0.04569
6758.32356,0.04467
6756.39481,0.04393
6754.46607,0.04505
6752.53732,0.04739
6750.60858,0.04920
6748.67983,0.05012
6746.75108,0.05017
6744.82234,0.04831
6742.89359,0.04560
6740.96485,0.04438
6739.03610,0.04368
6737.10736,0.04325
6735.17861,0.04536
6733.24987,0.04805
6731.32112,0.04790
6729.39238,0.04562
6727.46363,0.04391
6725.53489,0.04407
6723.60614,0.04532
6721.67740,0.04590
6719.74865,0.04447
6717.81991,0.04236
6715.89116,0.04262
6713.96241,0.04418
6712.03367,0.04457
6710.10492,0.04394
6708.17618,0.04328
6706.24743,0.04326
6704.31869,0.04427
6702.38994,0.04594
6700.46120,0.04710
6698.53245,0.04766
6696.60371,0.04831
6694.67496,0.04884
6692.74622,0.04854
6690.81747,0.04624
6688.88873,0.04325
6686.95998,0.04234
6685.03123,0.04309
6683.10249,0.04365
6681.17374,0.04387
6679.24500,0.04388
6677.31625,0.04472
6675.38751,0.04644
6673.45876,0.04631
6671.53002,0.04468
6669.60127,0.04527
6667.67253,0.04758
6665.74378,0.04815
6663.81504,0.04672
6661.88629,0.04532
6659.95755,0.04396
6658.02880,0.04207
6656.10006,0.04128
6654.17131,0.04296
6652.24256,0.04545
6650.31382,0.04605
6648.38507,0.04425
6646.45633,0.04225
6644.52758,0.04206
6642.59884,0.04373
6640.67009,0.04512
6638.74135,0.04510
6636.81260,0.04523
6634.88386,0.04566
6632.95511,0.04491
6631.02637,0.04381
6629.09762,0.04313
6627.16888,0.04224
6625.24013,0.04166
6623.31139,0.04208
6621.38264,0.04281
6619.45389,0.04354
6617.52515,0.04477
6615.59640,0.04597
6613.66766,0.04570
6611.73891,0.04501
6609.81017,0.04465
6607.88142,0.04327
6605.95268,0.04182
6604.02393,0.04215
6602.09519,0.04321
6600.16644,0.04301
6598.23770,0.04285
6596.30895,0.04503
6594.38021,0.04631
6592.45146,0.04402
6590.52271,0.04228
6588.59397,0.04411
6586.66522,0.04655
6584.73648,0.04704
6582.80773,0.04725
6580.87899,0.04843
6578.95024,0.04812
6577.02150,0.04622
6575.09275,0.04536
6573.16401,0.04512
6571.23526,0.04443
6569.30652,0.04419
6567.37777,0.04434
6565.44903,0.04457
6563.52028,0.04565
6561.59154,0.04856
6559.66279,0.05101
6557.73404,0.05054
6555.80530,0.04971
6553.87655,0.05002
6551.94781,0.04933
6550.01906,0.04763
6548.09032,0.04636
6546.16157,0.04608
6544.23283,0.04646
6542.30408,0.04710
6540.37534,0.04758
6538.44659,0.04764
6536.51785,0.04777
6534.58910,0.04804
6532.66036,0.04755
6530.73161,0.04650
6528.80287,0.04633
6526.87412,0.04738
6524.94537,0.04751
6523.01663,0.04599
6521.08788,0.04478
6519.15914,0.04407
6517.23039,0.04365
6515.30165,0.04596
6513.37290,0.04997
6511.44416,0.05152
6509.51541,0.05055
6507.58667,0.04942
6505.65792,0.04852
6503.72918,0.04736
6501.80043,0.04629
6499.87169,0.04504
6497.94294,0.04300
6496.01419,0.04195
6494.08545,0.04225
6492.15670,0.04235
6490.22796,0.04320
6488.29921,0.04493
6486.37047,0.04512
6484.44172,0.04456
6482.51298,0.04586
6480.58423,0.04757
6478.65549,0.04654
6476.72674,0.04362
6474.79800,0.04158
6472.86925,0.04111
6470.94051,0.04249
6469.01176,0.04508
6467.08302,0.04654
6465.15427,0.04665
6463.22552,0.04552
6461.29678,0.04330
6459.36803,0.04262
6457.43929,0.04444
6455.51054,0.04655
6453.58180,0.04696
6451.65305,0.04604
6449.72431,0.04562
6447.79556,0.04599
6445.86682,0.04624
6443.93807,0.04547
6442.00933,0.04418
6440.08058,0.04435
6438.15184,0.04689
6436.22309,0.04852
6434.29434,0.04676
6432.36560,0.04524
6430.43685,0.04724
6428.50811,0.05009
6426.57936,0.04983
6424.65062,0.04692
6422.72187,0.04509
6420.79313,0.04527
6418.86438,0.04562
6416.93564,0.04603
6415.00689,0.04734
6413.07815,0.04797
6411.14940,0.04708
6409.22066,0.04660
6407.29191,0.04699
6405.36317,0.04726
6403.43442,0.04659
6401.50567,0.04510
6399.57693,0.04449
6397.64818,0.04425
6395.71944,0.04344
6393.79069,0.04436
6391.86195,0.04762
6389.93320,0.04987
6388.00446,0.04954
6386.07571,0.04737
6384.14697,0.04534
6382.21822,0.04563
6380.28948,0.04682
6378.36073,0.04605
6376.43199,0.04497
6374.50324,0.04567
6372.57450,0.04581
6370.64575,0.04425
6368.71700,0.04403
6366.78826,0.04546
6364.85951,0.04624
6362.93077,0.04637
6361.00202,0.04617
6359.07328,0.04530
6357.14453,0.04455
6355.21579,0.04491
6353.28704,0.04655
6351.35830,0.04818
6349.42955,0.04874
6347.50081,0.04879
6345.57206,0.04915
6343.64332,0.04843
6341.71457,0.04511
6339.78582,0.04182
6337.85708,0.04220
6335.92833,0.04505
6333.99959,0.04728
6332.07084,0.04767
6330.14210,0.04697
6328.21335,0.04745
6326.28461,0.04838
6324.35586,0.04652
6322.42712,0.04339
6320.49837,0.04238
6318.56963,0.04333
6316.64088,0.04493
6314.71214,0.04664
6312.78339,0.04731
6310.85465,0.04721
6308.92590,0.04722
6306.99715,0.04680
6305.06841,0.04683
6303.13966,0.04770
6301.21092,0.04715
6299.28217,0.04548
6297.35343,0.04491
6295.42468,0.04512
6293.49594,0.04484
6291.56719,0.04460
6289.63845,0.04511
6287.70970,0.04514
6285.78096,0.04352
6283.85221,0.04199
6281.92347,0.04287
6279.99472,0.04487
6278.06598,0.04525
6276.13723,0.04419
6274.20848,0.04446
6272.27974,0.04680
6270.35099,0.04893
6268.42225,0.04977
6266.49350,0.04891
6264.56476,0.04634
6262.63601,0.04460
6260.70727,0.04520
6258.77852,0.04597
6256.84978,0.04505
6254.92103,0.04378
6252.99229,0.04395
6251.06354,0.04543
6249.13480,0.04648
6247.20605,0.04564
6245.27730,0.04434
6243.34856,0.04446
6241.41981,0.04577
6239.49107,0.04752
6237.56232,0.04858
6235.63358,0.04796
6233.70483,0.04660
6231.77609,0.04648
6229.84734,0.04811
6227.91860,0.05008
6225.98985,0.05012
6224.06111,0.04789
6222.13236,0.04616
6220.20362,0.04603
6218.27487,0.04607
6216.34613,0.04517
6214.41738,0.04357
6212.48863,0.04311
6210.55989,0.04490
6208.63114,0.04668
6206.70240,0.04645
6204.77365,0.04545
6202.84491,0.04529
6200.91616,0.04556
6198.98742,0.04522
6197.05867,0.04462
6195.12993,0.04523
6193.20118,0.04648
6191.27244,0.04713
6189.34369,0.04689
6187.41495,0.04546
6185.48620,0.04362
6183.55746,0.04331
6181.62871,0.04559
6179.69996,0.04888
6177.77122,0.05011
6175.84247,0.04880
6173.91373,0.04659
6171.98498,0.04506
6170.05624,0.04468
6168.12749,0.04445
6166.19875,0.04441
6164.27000,0.04535
6162.34126,0.04611
6160.41251,0.04545
6158.48377,0.04427
6156.55502,0.04398
6154.62628,0.04504
6152.69753,0.04687
6150.76878,0.04772
6148.84004,0.04696
6146.91129,0.04632
6144.98255,0.04627
6143.05380,0.04559
6141.12506,0.04483
6139.19631,0.04486
6137.26757,0.04536
6135.33882,0.04572
6133.41008,0.04642
6131.48133,0.04775
6129.55259,0.04815
6127.62384,0.04706
6125.69510,0.04579
6123.76635,0.04502
6121.83761,0.04468
6119.90886,0.04504
6117.98011,0.04605
6116.05137,0.04619
6114.12262,0.04499
6112.19388,0.04419
6110.26513,0.04524
6108.33639,0.04724
6106.40764,0.04807
6104.47890,0.04716
6102.55015,0.04559
6100.62141,0.04498
6098.69266,0.04568
6096.76392,0.04557
6094.83517,0.04402
6092.90643,0.04344
6090.97768,0.04466
6089.04893,0.04574
6087.12019,0.04609
6085.19144,0.04622
6083.26270,0.04561
6081.33395,0.04475
6079.40521,0.04476
6077.47646,0.04561
6075.54772,0.04752
6073.61897,0.04946
6071.69023,0.04907
6069.76148,0.04667
6067.83274,0.04438
6065.90399,0.04318
6063.97525,0.04251
6062.04650,0.04178
6060.11776,0.04203
6058.18901,0.04349
6056.26026,0.04502
6054.33152,0.04621
6052.40277,0.04674
6050.47403,0.04619
6048.54528,0.04571
6046.61654,0.04646
6044.68779,0.04714
6042.75905,0.04654
6040.83030,0.04543
6038.90156,0.04439
6036.97281,0.04423
6035.04407,0.04512
6033.11532,0.04584
6031.18658,0.04609
6029.25783,0.04627
6027.32909,0.04631
6025.40034,0.04623
6023.47159,0.04625
6021.54285,0.04670
6019.61410,0.04771
6017.68536,0.04814
6015.75661,0.04698
6013.82787,0.04580
6011.89912,0.04590
6009.97038,0.04620
6008.04163,0.04540
6006.11289,0.04426
6004.18414,0.04432
6002.25540,0.04541
6000.32665,0.04644
5998.39791,0.04688
5996.46916,0.04627
5994.54041,0.04506
5992.61167,0.04487
5990.68292,0.04581
5988.75418,0.04638
5986.82543,0.04671
5984.89669,0.04802
5982.96794,0.04963
5981.03920,0.04949
5979.11045,0.04785
5977.18171,0.04629
5975.25296,0.04514
5973.32422,0.04482
5971.39547,0.04535
5969.46673,0.04545
5967.53798,0.04514
5965.60924,0.04509
5963.68049,0.04513
5961.75174,0.04526
5959.82300,0.04500
5957.89425,0.04437
5955.96551,0.04448
5954.03676,0.04501
5952.10802,0.04528
5950.17927,0.04593
5948.25053,0.04721
5946.32178,0.04815
5944.39304,0.04802
5942.46429,0.04737
5940.53555,0.04635
5938.60680,0.04497
5936.67806,0.04538
5934.74931,0.04792
5932.82057,0.04929
5930.89182,0.04819
5928.96307,0.04676
5927.03433,0.04612
5925.10558,0.04577
5923.17684,0.04617
5921.24809,0.04748
5919.31935,0.04830
5917.39060,0.04834
5915.46186,0.04817
5913.53311,0.04742
5911.60437,0.04632
5909.67562,0.04563
5907.74688,0.04513
5905.81813,0.04507
5903.88939,0.04609
5901.96064,0.04718
5900.03189,0.04704
5898.10315,0.04593
5896.17440,0.04497
5894.24566,0.04519
5892.31691,0.04602
5890.38817,0.04618
5888.45942,0.04621
5886.53068,0.04675
5884.60193,0.04662
5882.67319,0.04532
5880.74444,0.04447
5878.81570,0.04536
5876.88695,0.04683
5874.95821,0.04715
5873.02946,0.04628
5871.10072,0.04496
5869.17197,0.04418
5867.24322,0.04461
5865.31448,0.04510
5863.38573,0.04497
5861.45699,0.04566
5859.52824,0.04715
5857.59950,0.04777
5855.67075,0.04702
5853.74201,0.04558
5851.81326,0.04510
5849.88452,0.04602
5847.95577,0.04590
5846.02703,0.04451
5844.09828,0.04468
5842.16954,0.04582
5840.24079,0.04545
5838.31205,0.04413
5836.38330,0.04372
5834.45455,0.04471
5832.52581,0.04629
5830.59706,0.04757
5828.66832,0.04857
5826.73957,0.04893
5824.81083,0.04768
5822.88208,0.04560
5820.95334,0.04492
5819.02459,0.04620
5817.09585,0.04704
5815.16710,0.04568
5813.23836,0.04409
5811.30961,0.04430
5809.38087,0.04543
5807.45212,0.04585
5805.52337,0.04552
5803.59463,0.04516
5801.66588,0.04526
5799.73714,0.04600
5797.80839,0.04686
5795.87965,0.04702
5793.95090,0.04658
5792.02216,0.04647
5790.09341,0.04711
5788.16467,0.04743
5786.23592,0.04694
5784.30718,0.04685
5782.37843,0.04708
5780.44969,0.04678
5778.52094,0.04694
5776.59220,0.04786
5774.66345,0.04806
5772.73470,0.04730
5770.80596,0.04654
5768.87721,0.04603
5766.94847,0.04548
5765.01972,0.04516
5763.09098,0.04578
5761.16223,0.04693
5759.23349,0.04728
5757.30474,0.04687
5755.37600,0.04628
5753.44725,0.04534
5751.51851,0.04510
5749.58976,0.04640
5747.66102,0.04734
5745.73227,0.04677
5743.80352,0.04634
5741.87478,0.04701
5739.94603,0.04745
5738.01729,0.04674
5736.08854,0.04589
5734.15980,0.04594
5732.23105,0.04649
5730.30231,0.04702
5728.37356,0.04782
5726.44482,0.04839
5724.51607,0.04786
5722.58733,0.04706
5720.65858,0.04707
5718.72984,0.04768
5716.80109,0.04785
5714.87235,0.04716
5712.94360,0.04648
5711.01485,0.04637
5709.08611,0.04657
5707.15736,0.04685
5705.22862,0.04739
5703.29987,0.04789
5701.37113,0.04772
5699.44238,0.04697
5697.51364,0.04660
5695.58489,0.04672
5693.65615,0.04666
5691.72740,0.04672
5689.79866,0.04698
5687.86991,0.04668
5685.94117,0.04634
5684.01242,0.04665
5682.08368,0.04724
5680.15493,0.04753
5678.22618,0.04767
5676.29744,0.04735
5674.36869,0.04612
5672.43995,0.04553
5670.51120,0.04654
5668.58246,0.04735
5666.65371,0.04699
5664.72497,0.04629
5662.79622,0.04626
5660.86748,0.04693
5658.93873,0.04701
5657.00999,0.04598
5655.08124,0.04545
5653.15250,0.04636
5651.22375,0.04750
5649.29500,0.04787
5647.36626,0.04757
5645.43751,0.04705
5643.50877,0.04706
5641.58002,0.04787
5639.65128,0.04844
5637.72253,0.04784
5635.79379,0.04709
5633.86504,0.04761
5631.93630,0.04856
5630.00755,0.04839
5628.07881,0.04717
5626.15006,0.04597
5624.22132,0.04553
5622.29257,0.04541
5620.36383,0.04482
5618.43508,0.04408
5616.50633,0.04398
5614.57759,0.04507
5612.64884,0.04694
5610.72010,0.04789
5608.79135,0.04736
5606.86261,0.04668
5604.93386,0.04697
5603.00512,0.04793
5601.07637,0.04861
5599.14763,0.04797
5597.21888,0.04646
5595.29014,0.04594
5593.36139,0.04675
5591.43265,0.04768
5589.50390,0.04824
5587.57516,0.04868
5585.64641,0.04891
5583.71766,0.04853
5581.78892,0.04806
5579.86017,0.04812
5577.93143,0.04810
5576.00268,0.04742
5574.07394,0.04665
5572.14519,0.04628
5570.21645,0.04638
5568.28770,0.04688
5566.35896,0.04709
5564.43021,0.04684
5562.50147,0.04677
5560.57272,0.04674
5558.64398,0.04616
5556.71523,0.04529
5554.78648,0.04531
5552.85774,0.04626
5550.92899,0.04708
5549.00025,0.04746
5547.07150,0.04752
5545.14276,0.04732
5543.21401,0.04694
5541.28527,0.04651
5539.35652,0.04623
5537.42778,0.04608
5535.49903,0.04605
5533.57029,0.04648
5531.64154,0.04713
5529.71280,0.04758
5527.78405,0.04843
5525.85531,0.04927
5523.92656,0.04890
5521.99781,0.04806
5520.06907,0.04784
5518.14032,0.04757
5516.21158,0.04677
5514.28283,0.04636
5512.35409,0.04675
5510.42534,0.04714
5508.49660,0.04692
5506.56785,0.04676
5504.63911,0.04743
5502.71036,0.04823
5500.78162,0.04849
5498.85287,0.04840
5496.92413,0.04784
5494.99538,0.04717
5493.06664,0.04735
5491.13789,0.04753
5489.20914,0.04693
5487.28040,0.04686
5485.35165,0.04779
5483.42291,0.04856
5481.49416,0.04832
5479.56542,0.04760
5477.63667,0.04743
5475.70793,0.04759
5473.77918,0.04767
5471.85044,0.04742
5469.92169,0.04725
5467.99295,0.04772
5466.06420,0.04778
5464.13546,0.04696
5462.20671,0.04621
5460.27796,0.04606
5458.34922,0.04677
5456.42047,0.04823
5454.49173,0.04975
5452.56298,0.05055
5450.63424,0.05037
5448.70549,0.04975
5446.77675,0.04917
5444.84800,0.04841
5442.91926,0.04753
5440.99051,0.04727
5439.06177,0.04768
5437.13302,0.04785
5435.20428,0.04744
5433.27553,0.04743
5431.34679,0.04812
5429.41804,0.04834
5427.48929,0.04790
5425.56055,0.04747
5423.63180,0.04730
5421.70306,0.04743
5419.77431,0.04789
5417.84557,0.04831
5415.91682,0.04808
5413.98808,0.04725
5412.05933,0.04631
5410.13059,0.04571
5408.20184,0.04626
5406.27310,0.04793
5404.34435,0.04899
5402.41561,0.04871
5400.48686,0.04827
5398.55811,0.04821
5396.62937,0.04849
5394.70062,0.04913
5392.77188,0.04954
5390.84313,0.04930
5388.91439,0.04863
5386.98564,0.04785
5385.05690,0.04748
5383.12815,0.04781
5381.19941,0.04823
5379.27066,0.04806
5377.34192,0.04745
5375.41317,0.04679
5373.48443,0.04649
5371.55568,0.04682
5369.62694,0.04743
5367.69819,0.04776
5365.76944,0.04786
5363.84070,0.04785
5361.91195,0.04795
5359.98321,0.04851
5358.05446,0.04869
5356.12572,0.04789
5354.19697,0.04703
5352.26823,0.04702
5350.33948,0.04782
5348.41074,0.04827
5346.48199,0.04800
5344.55325,0.04816
5342.62450,0.04892
5340.69576,0.04939
5338.76701,0.04939
5336.83827,0.04931
5334.90952,0.04903
5332.98077,0.04818
5331.05203,0.04714
5329.12328,0.04643
5327.19454,0.04626
5325.26579,0.04667
5323.33705,0.04735
5321.40830,0.04766
5319.47956,0.04734
5317.55081,0.04707
5315.62207,0.04767
5313.69332,0.04836
5311.76458,0.04803
5309.83583,0.04764
5307.90709,0.04819
5305.97834,0.04843
5304.04959,0.04760
5302.12085,0.04710
5300.19210,0.04755
5298.26336,0.04799
5296.33461,0.04804
5294.40587,0.04795
5292.47712,0.04776
5290.54838,0.04788
5288.61963,0.04841
5286.69089,0.04874
5284.76214,0.04878
5282.83340,0.04875
5280.90465,0.04818
5278.97591,0.04716
5277.04716,0.04663
5275.11842,0.04698
5273.18967,0.04770
5271.26092,0.04791
5269.33218,0.04727
5267.40343,0.04654
5265.47469,0.04662
5263.54594,0.04735
5261.61720,0.04809
5259.68845,0.04867
5257.75971,0.04886
5255.83096,0.04863
5253.90222,0.04857
5251.97347,0.04859
5250.04473,0.04815
5248.11598,0.04765
5246.18724,0.04758
5244.25849,0.04787
5242.32975,0.04788
5240.40100,0.04733
5238.47225,0.04738
5236.54351,0.04837
5234.61476,0.04893
5232.68602,0.04837
5230.75727,0.04780
5228.82853,0.04846
5226.89978,0.04980
5224.97104,0.05037
5223.04229,0.04978
5221.11355,0.04862
5219.18480,0.04739
5217.25606,0.04644
5215.32731,0.04655
5213.39857,0.04735
5211.46982,0.04749
5209.54107,0.04712
5207.61233,0.04728
5205.68358,0.04807
5203.75484,0.04889
5201.82609,0.04920
5199.89735,0.04890
5197.96860,0.04844
5196.03986,0.04813
5194.11111,0.04760
5192.18237,0.04702
5190.25362,0.04701
5188.32488,0.04735
5186.39613,0.04773
5184.46739,0.04782
5182.53864,0.04762
5180.60990,0.04788
5178.68115,0.04863
5176.75240,0.04907
5174.82366,0.04900
5172.89491,0.04868
5170.96617,0.04829
5169.03742,0.04803
5167.10868,0.04815
5165.17993,0.04810
5163.25119,0.04732
5161.32244,0.04689
5159.39370,0.04761
5157.46495,0.04831
5155.53621,0.04809
5153.60746,0.04764
5151.67872,0.04770
5149.74997,0.04832
5147.82123,0.04903
5145.89248,0.04914
5143.96373,0.04862
5142.03499,0.04804
5140.10624,0.04796
5138.17750,0.04832
5136.24875,0.04838
5134.32001,0.04813
5132.39126,0.04815
5130.46252,0.04842
5128.53377,0.04862
5126.60503,0.04877
5124.67628,0.04895
5122.74754,0.04904
5120.81879,0.04901
5118.89005,0.04885
5116.96130,0.04851
5115.03255,0.04821
5113.10381,0.04809
5111.17506,0.04811
5109.24632,0.04804
5107.31757,0.04799
5105.38883,0.04843
5103.46008,0.04912
5101.53134,0.04950
5099.60259,0.04956
5097.67385,0.04944
5095.74510,0.04910
5093.81636,0.04860
5091.88761,0.04810
5089.95887,0.04768
5088.03012,0.04784
5086.10138,0.04867
5084.17263,0.04904
5082.24388,0.04847
5080.31514,0.04777
5078.38639,0.04756
5076.45765,0.04752
5074.52890,0.04753
5072.60016,0.04821
5070.67141,0.04934
5068.74267,0.04975
5066.81392,0.04911
5064.88518,0.04822
5062.95643,0.04808
5061.02769,0.04906
5059.09894,0.05003
5057.17020,0.04995
5055.24145,0.04943
5053.31270,0.04922
5051.38396,0.04943
5049.45521,0.04980
5047.52647,0.04982
5045.59772,0.04960
5043.66898,0.04931
5041.74023,0.04880
5039.81149,0.04829
5037.88274,0.04810
5035.95400,0.04798
5034.02525,0.04790
5032.09651,0.04826
5030.16776,0.04898
5028.23902,0.04919
5026.31027,0.04874
5024.38153,0.04837
5022.45278,0.04846
5020.52403,0.04881
5018.59529,0.04900
5016.66654,0.04884
5014.73780,0.04869
5012.80905,0.04870
5010.88031,0.04877
5008.95156,0.04893
5007.02282,0.04884
5005.09407,0.04839
5003.16533,0.04797
5001.23658,0.04762
4999.30784,0.04754
4997.37909,0.04810
4995.45035,0.04873
4993.52160,0.04870
4991.59286,0.04826
4989.66411,0.04819
4987.73536,0.04862
4985.80662,0.04896
4983.87787,0.04889
4981.94913,0.04871
4980.02038,0.04879
4978.09164,0.04880
4976.16289,0.04856
4974.23415,0.04856
4972.30540,0.04892
4970.37666,0.04932
4968.44791,0.04957
4966.51917,0.04940
4964.59042,0.04917
4962.66168,0.04947
4960.73293,0.04980
4958.80418,0.04967
4956.87544,0.04941
4954.94669,0.04917
4953.01795,0.04900
4951.08920,0.04915
4949.16046,0.04950
4947.23171,0.04964
4945.30297,0.04952
4943.37422,0.04931
4941.44548,0.04911
4939.51673,0.04880
4937.58799,0.04829
4935.65924,0.04840
4933.73050,0.04942
4931.80175,0.05002
4929.87301,0.04978
4927.94426,0.04938
4926.01551,0.04911
4924.08677,0.04918
4922.15802,0.04966
4920.22928,0.05008
4918.30053,0.04993
4916.37179,0.04936
4914.44304,0.04890
4912.51430,0.04869
4910.58555,0.04852
4908.65681,0.04850
4906.72806,0.04912
4904.79932,0.04993
4902.87057,0.04981
4900.94183,0.04925
4899.01308,0.04946
4897.08434,0.04999
4895.15559,0.05028
4893.22684,0.05062
4891.29810,0.05084
4889.36935,0.05051
4887.44061,0.05001
4885.51186,0.04978
4883.58312,0.04947
4881.65437,0.04890
4879.72563,0.04872
4877.79688,0.04904
4875.86814,0.04929
4873.93939,0.04909
4872.01065,0.04843
4870.08190,0.04784
4868.15316,0.04792
4866.22441,0.04842
4864.29566,0.04865
4862.36692,0.04848
4860.43817,0.04831
4858.50943,0.04835
4856.58068,0.04865
4854.65194,0.04931
4852.72319,0.05004
4850.79445,0.05025
4848.86570,0.04991
4846.93696,0.04943
4845.00821,0.04885
4843.07947,0.04854
4841.15072,0.04914
4839.22198,0.05012
4837.29323,0.05039
4835.36449,0.05006
4833.43574,0.04986
4831.50699,0.04980
4829.57825,0.04971
4827.64950,0.04974
4825.72076,0.04973
4823.79201,0.04954
4821.86327,0.04954
4819.93452,0.04978
4818.00578,0.04986
4816.07703,0.04967
4814.14829,0.04939
4812.21954,0.04934
4810.29080,0.04972
4808.36205,0.05000
4806.43331,0.04957
4804.50456,0.04879
4802.57582,0.04843
4800.64707,0.04859
4798.71832,0.04891
4796.78958,0.04897
4794.86083,0.04879
4792.93209,0.04886
4791.00334,0.04931
4789.07460,0.04976
4787.14585,0.04993
4785.21711,0.04987
4783.28836,0.04977
4781.35962,0.04966
4779.43087,0.04960
4777.50213,0.04972
4775.57338,0.04996
4773.64464,0.05018
4771.71589,0.05038
4769.78714,0.05030
4767.85840,0.04990
4765.92965,0.04976
4764.00091,0.05002
4762.07216,0.05029
4760.14342,0.05035
4758.21467,0.05002
4756.28593,0.04947
4754.35718,0.04911
4752.42844,0.04894
4750.49969,0.04886
4748.57095,0.04902
4746.64220,0.04918
4744.71346,0.04916
4742.78471,0.04941
4740.85597,0.04993
4738.92722,0.04999
4736.99847,0.04956
4735.06973,0.04931
4733.14098,0.04935
4731.21224,0.04947
4729.28349,0.04961
4727.35475,0.04968
4725.42600,0.04984
4723.49726,0.05009
4721.56851,0.04996
4719.63977,0.04953
4717.71102,0.04942
4715.78228,0.04941
4713.85353,0.04916
4711.92479,0.04911
4709.99604,0.04937
4708.06729,0.04973
4706.13855,0.05027
4704.20980,0.05080
4702.28106,0.05065
4700.35231,0.04995
4698.42357,0.04947
4696.49482,0.04935
4694.56608,0.04939
4692.63733,0.04972
4690.70859,0.05022
4688.77984,0.05034
4686.85110,0.05012
4684.92235,0.04988
4682.99361,0.04982
4681.06486,0.04991
4679.13612,0.04987
4677.20737,0.04973
4675.27862,0.04979
4673.34988,0.05008
4671.42113,0.05045
4669.49239,0.05049
4667.56364,0.05007
4665.63490,0.04947
4663.70615,0.04912
4661.77741,0.04930
4659.84866,0.04971
4657.91992,0.05000
4655.99117,0.05026
4654.06243,0.05034
4652.13368,0.05001
4650.20494,0.04957
4648.27619,0.04931
4646.34745,0.04933
4644.41870,0.04975
4642.48995,0.05018
4640.56121,0.05008
4638.63246,0.04980
4636.70372,0.04973
4634.77497,0.04961
4632.84623,0.04945
4630.91748,0.04941
4628.98874,0.04950
4627.05999,0.04972
4625.13125,0.04972
4623.20250,0.04938
4621.27376,0.04950
4619.34501,0.05017
4617.41627,0.05055
4615.48752,0.05051
4613.55877,0.05034
4611.63003,0.05012
4609.70128,0.04988
4607.77254,0.04957
4605.84379,0.04950
4603.91505,0.04991
4601.98630,0.05026
4600.05756,0.05016
4598.12881,0.04991
4596.20007,0.04998
4594.27132,0.05037
4592.34258,0.05047
4590.41383,0.04997
4588.48509,0.04933
4586.55634,0.04918
4584.62760,0.04947
4582.69885,0.04970
4580.77010,0.04982
4578.84136,0.04994
4576.91261,0.05001
4574.98387,0.05002
4573.05512,0.05003
4571.12638,0.05019
4569.19763,0.05047
4567.26889,0.05049
4565.34014,0.05032
4563.41140,0.05029
4561.48265,0.05034
4559.55391,0.05021
4557.62516,0.05004
4555.69642,0.05026
4553.76767,0.05075
4551.83893,0.05092
4549.91018,0.05066
4547.98143,0.05031
4546.05269,0.05003
4544.12394,0.04981
4542.19520,0.04961
4540.26645,0.04958
4538.33771,0.04991
4536.40896,0.05026
4534.48022,0.05037
4532.55147,0.05042
4530.62273,0.05043
4528.69398,0.05029
4526.76524,0.05022
4524.83649,0.05021
4522.90775,0.05013
4520.97900,0.05014
4519.05025,0.05030
4517.12151,0.05043
4515.19276,0.05046
4513.26402,0.05033
4511.33527,0.05009
4509.40653,0.04974
4507.47778,0.04944
4505.54904,0.04972
4503.62029,0.05045
4501.69155,0.05085
4499.76280,0.05084
4497.83406,0.05082
4495.90531,0.05084
4493.97657,0.05075
4492.04782,0.05049
4490.11908,0.05021
4488.19033,0.05012
4486.26158,0.05036
4484.33284,0.05068
4482.40409,0.05068
4480.47535,0.05037
4478.54660,0.04996
4476.61786,0.04979
4474.68911,0.05004
4472.76037,0.05038
4470.83162,0.05033
4468.90288,0.04995
4466.97413,0.04983
4465.04539,0.05018
4463.11664,0.05049
4461.18790,0.05048
4459.25915,0.05047
4457.33041,0.05056
4455.40166,0.05040
4453.47291,0.04998
4451.54417,0.04991
4449.61542,0.05036
4447.68668,0.05068
4445.75793,0.05059
4443.82919,0.05056
4441.90044,0.05061
4439.97170,0.05042
4438.04295,0.05020
4436.11421,0.05031
4434.18546,0.05051
4432.25672,0.05044
4430.32797,0.05036
4428.39923,0.05054
4426.47048,0.05079
4424.54173,0.05098
4422.61299,0.05096
4420.68424,0.05058
4418.75550,0.05036
4416.82675,0.05058
4414.89801,0.05059
4412.96926,0.05017
4411.04052,0.05000
4409.11177,0.05037
4407.18303,0.05066
4405.25428,0.05042
4403.32554,0.05031
4401.39679,0.05063
4399.46805,0.05067
4397.53930,0.05045
4395.61056,0.05059
4393.68181,0.05078
4391.75306,0.05046
4389.82432,0.05005
4387.89557,0.05017
4385.96683,0.05047
4384.03808,0.05036
4382.10934,0.05005
4380.18059,0.05001
4378.25185,0.05011
4376.32310,0.05019
4374.39436,0.05036
4372.46561,0.05054
4370.53687,0.05069
4368.60812,0.05089
4366.67938,0.05088
4364.75063,0.05059
4362.82189,0.05050
4360.89314,0.05082
4358.96439,0.05103
4357.03565,0.05081
4355.10690,0.05057
4353.17816,0.05058
4351.24941,0.05058
4349.32067,0.05043
4347.39192,0.05028
4345.46318,0.05023
4343.53443,0.05021
4341.60569,0.05010
4339.67694,0.05000
4337.74820,0.05002
4335.81945,0.05008
4333.89071,0.05020
4331.96196,0.05037
4330.03321,0.05037
4328.10447,0.05026
4326.17572,0.05034
4324.24698,0.05064
4322.31823,0.05107
4320.38949,0.05139
4318.46074,0.05134
4316.53200,0.05112
4314.60325,0.05097
4312.67451,0.05098
4310.74576,0.05108
4308.81702,0.05100
4306.88827,0.05062
4304.95953,0.05024
4303.03078,0.05015
4301.10204,0.05028
4299.17329,0.05037
4297.24454,0.05021
4295.31580,0.05008
4293.38705,0.05039
4291.45831,0.05083
4289.52956,0.05087
4287.60082,0.05068
4285.67207,0.05079
4283.74333,0.05116
4281.81458,0.05124
4279.88584,0.05103
4277.95709,0.05096
4276.02835,0.05119
4274.09960,0.05150
4272.17086,0.05138
4270.24211,0.05091
4268.31336,0.05057
4266.38462,0.05050
4264.45587,0.05051
4262.52713,0.05038
4260.59838,0.05013
4258.66964,0.05024
4256.74089,0.05079
4254.81215,0.05118
4252.88340,0.05136
4250.95466,0.05161
4249.02591,0.05174
4247.09717,0.05149
4245.16842,0.05111
4243.23968,0.05096
4241.31093,0.05084
4239.38219,0.05053
4237.45344,0.05059
4235.52469,0.05106
4233.59595,0.05122
4231.66720,0.05115
4229.73846,0.05126
4227.80971,0.05125
4225.88097,0.05106
4223.95222,0.05101
4222.02348,0.05122
4220.09473,0.05138
4218.16599,0.05121
4216.23724,0.05110
4214.30850,0.05130
4212.37975,0.05119
4210.45101,0.05073
4208.52226,0.05053
4206.59352,0.05063
4204.66477,0.05072
4202.73602,0.05080
4200.80728,0.05100
4198.87853,0.05127
4196.94979,0.05145
4195.02104,0.05164
4193.09230,0.05186
4191.16355,0.05181
4189.23481,0.05162
4187.30606,0.05157
4185.37732,0.05149
4183.44857,0.05133
4181.51983,0.05137
4179.59108,0.05153
4177.66234,0.05159
4175.73359,0.05146
4173.80484,0.05119
4171.87610,0.05093
4169.94735,0.05066
4168.01861,0.05050
4166.08986,0.05074
4164.16112,0.05117
4162.23237,0.05135
4160.30363,0.05133
4158.37488,0.05134
4156.44614,0.05120
4154.51739,0.05098
4152.58865,0.05125
4150.65990,0.05189
4148.73116,0.05205
4146.80241,0.05161
4144.87367,0.05116
4142.94492,0.05100
4141.01617,0.05111
4139.08743,0.05125
4137.15868,0.05121
4135.22994,0.05124
4133.30119,0.05142
4131.37245,0.05165
4129.44370,0.05192
4127.51496,0.05190
4125.58621,0.05160
4123.65747,0.05147
4121.72872,0.05159
4119.79998,0.05168
4117.87123,0.05158
4115.94249,0.05139
4114.01374,0.05136
4112.08500,0.05147
4110.15625,0.05165
4108.22750,0.05185
4106.29876,0.05190
4104.37001,0.05173
4102.44127,0.05156
4100.51252,0.05151
4098.58378,0.05159
4096.65503,0.05173
4094.72629,0.05189
4092.79754,0.05205
4090.86880,0.05213
4088.94005,0.05211
4087.01131,0.05209
4085.08256,0.05211
4083.15382,0.05204
4081.22507,0.05181
4079.29632,0.05166
4077.36758,0.05173
4075.43883,0.05179
4073.51009,0.05177
4071.58134,0.05183
4069.65260,0.05193
4067.72385,0.05181
4065.79511,0.05150
4063.86636,0.05133
4061.93762,0.05151
4060.00887,0.05197
4058.08013,0.05223
4056.15138,0.05204
4054.22264,0.05170
4052.29389,0.05161
4050.36515,0.05194
4048.43640,0.05232
4046.50765,0.05226
4044.57891,0.05205
4042.65016,0.05215
4040.72142,0.05237
4038.79267,0.05230
4036.86393,0.05209
4034.93518,0.05205
4033.00644,0.05198
4031.07769,0.05167
4029.14895,0.05146
4027.22020,0.05152
4025.29146,0.05169
4023.36271,0.05190
4021.43397,0.05223
4019.50522,0.05240
4017.57648,0.05221
4015.64773,0.05188
4013.71898,0.05161
4011.79024,0.05158
4009.86149,0.05185
4007.93275,0.05210
4006.00400,0.05221
4004.07526,0.05226
4002.14651,0.05222
4000.21777,0.05208
3998.28902,0.05199
3996.36028,0.05194
3994.43153,0.05184
3992.50279,0.05182
3990.57404,0.05195
3988.64530,0.05204
3986.71655,0.05199
3984.78780,0.05185
3982.85906,0.05176
3980.93031,0.05194
3979.00157,0.05219
3977.07282,0.05199
3975.14408,0.05159
3973.21533,0.05158
3971.28659,0.05191
3969.35784,0.05213
3967.42910,0.05209
3965.50035,0.05191
3963.57161,0.05172
3961.64286,0.05175
3959.71412,0.05205
3957.78537,0.05242
3955.85663,0.05277
3953.92788,0.05307
3951.99913,0.05311
3950.07039,0.05286
3948.14164,0.05262
3946.21290,0.05243
3944.28415,0.05216
3942.35541,0.05196
3940.42666,0.05198
3938.49792,0.05225
3936.56917,0.05255
3934.64043,0.05251
3932.71168,0.05226
3930.78294,0.05207
3928.85419,0.05195
3926.92545,0.05200
3924.99670,0.05227
3923.06795,0.05232
3921.13921,0.05200
3919.21046,0.05182
3917.28172,0.05198
3915.35297,0.05212
3913.42423,0.05242
3911.49548,0.05278
3909.56674,0.05266
3907.63799,0.05231
3905.70925,0.05215
3903.78050,0.05206
3901.85176,0.05208
3899.92301,0.05215
3897.99427,0.05214
3896.06552,0.05218
3894.13678,0.05235
3892.20803,0.05251
3890.27928,0.05269
3888.35054,0.05284
3886.42179,0.05284
3884.49305,0.05273
3882.56430,0.05256
3880.63556,0.05239
3878.70681,0.05252
3876.77807,0.05297
3874.84932,0.05318
3872.92058,0.05290
3870.99183,0.05253
3869.06309,0.05236
3867.13434,0.05229
3865.20560,0.05223
3863.27685,0.05237
3861.34811,0.05279
3859.41936,0.05312
3857.49061,0.05314
3855.56187,0.05305
3853.63312,0.05287
3851.70438,0.05255
3849.77563,0.05249
3847.84689,0.05272
3845.91814,0.05276
3843.98940,0.05250
3842.06065,0.05254
3840.13191,0.05327
3838.20316,0.05397
3836.27442,0.05387
3834.34567,0.05339
3832.41693,0.05307
3830.48818,0.05292
3828.55943,0.05290
3826.63069,0.05299
3824.70194,0.05314
3822.77320,0.05329
3820.84445,0.05346
3818.91571,0.05355
3816.98696,0.05331
3815.05822,0.05285
3813.12947,0.05265
3811.20073,0.05286
3809.27198,0.05319
3807.34324,0.05337
3805.41449,0.05335
3803.48575,0.05320
3801.55700,0.05280
3799.62826,0.05241
3797.69951,0.05249
3795.77076,0.05287
3793.84202,0.05301
3791.91327,0.05288
3789.98453,0.05287
3788.05578,0.05314
3786.12704,0.05355
3784.19829,0.05383
3782.26955,0.05379
3780.34080,0.05355
3778.41206,0.05335
3776.48331,0.05322
3774.55457,0.05304
3772.62582,0.05287
3770.69708,0.05293
3768.76833,0.05320
3766.83959,0.05328
3764.91084,0.05296
3762.98209,0.05265
3761.05335,0.05272
3759.12460,0.05290
3757.19586,0.05275
3755.26711,0.05259
3753.33837,0.05284
3751.40962,0.05321
3749.48088,0.05320
3747.55213,0.05296
3745.62339,0.05291
3743.69464,0.05312
3741.76590,0.05324
3739.83715,0.05317
3737.90841,0.05302
3735.97966,0.05285
3734.05091,0.05280
3732.12217,0.05291
3730.19342,0.05315
3728.26468,0.05332
3726.33593,0.05303
3724.40719,0.05242
3722.47844,0.05219
3720.54970,0.05237
3718.62095,0.05253
3716.69221,0.05262
3714.76346,0.05276
3712.83472,0.05283
3710.90597,0.05288
3708.97723,0.05299
3707.04848,0.05292
3705.11974,0.05274
3703.19099,0.05273
3701.26224,0.05266
3699.33350,0.05233
3697.40475,0.05221
3695.47601,0.05243
3693.54726,0.05255
3691.61852,0.05249
3689.68977,0.05250
3687.76103,0.05254
3685.83228,0.05260
3683.90354,0.05267
3681.97479,0.05260
3680.04605,0.05248
3678.11730,0.05254
3676.18856,0.05266
3674.25981,0.05258
3672.33107,0.05229
3670.40232,0.05204
3668.47357,0.05217
3666.54483,0.05258
3664.61608,0.05277
3662.68734,0.05261
3660.75859,0.05238
3658.82985,0.05231
3656.90110,0.05231
3654.97236,0.05201
3653.04361,0.05118
3651.11487,0.05000
3649.18612,0.04925
3647.25738,0.04954
3645.32863,0.05019
3643.39989,0.05048
3641.47114,0.05066
3639.54239,0.05119
3637.61365,0.05176
3635.68490,0.05193
3633.75616,0.05168
3631.82741,0.05110
3629.89867,0.05033
3627.96992,0.04950
3626.04118,0.04871
3624.11243,0.04814
3622.18369,0.04779
3620.25494,0.04771
3618.32620,0.04802
3616.39745,0.04844
3614.46871,0.04883
3612.53996,0.04934
3610.61122,0.04978
3608.68247,0.05004
3606.75372,0.05020
3604.82498,0.05027
3602.89623,0.05039
3600.96749,0.05064
3599.03874,0.05084
3597.11000,0.05081
3595.18125,0.05067
3593.25251,0.05052
3591.32376,0.05031
3589.39502,0.04998
3587.46627,0.04978
3585.53753,0.05001
3583.60878,0.05033
3581.68004,0.05035
3579.75129,0.05028
3577.82254,0.05034
3575.89380,0.05022
3573.96505,0.04969
3572.03631,0.04927
3570.10756,0.04951
3568.17882,0.04995
3566.25007,0.04991
3564.32133,0.04959
3562.39258,0.04951
3560.46384,0.04967
3558.53509,0.04970
3556.60635,0.04946
3554.67760,0.04927
3552.74886,0.04922
3550.82011,0.04893
3548.89137,0.04851
3546.96262,0.04830
3545.03387,0.04814
3543.10513,0.04786
3541.17638,0.04760
3539.24764,0.04720
3537.31889,0.04626
3535.39015,0.04517
3533.46140,0.04463
3531.53266,0.04432
3529.60391,0.04364
3527.67517,0.04267
3525.74642,0.04194
3523.81768,0.04197
3521.88893,0.04247
3519.96019,0.04269
3518.03144,0.04274
3516.10270,0.04297
3514.17395,0.04331
3512.24520,0.04365
3510.31646,0.04385
3508.38771,0.04400
3506.45897,0.04448
3504.53022,0.04514
3502.60148,0.04538
3500.67273,0.04515
3498.74399,0.04510
3496.81524,0.04544
3494.88650,0.04576
3492.95775,0.04586
3491.02901,0.04574
3489.10026,0.04543
3487.17152,0.04498
3485.24277,0.04453
3483.31402,0.04435
3481.38528,0.04425
3479.45653,0.04394
3477.52779,0.04383
3475.59904,0.04386
3473.67030,0.04359
3471.74155,0.04318
3469.81281,0.04290
3467.88406,0.04274
3465.95532,0.04259
3464.02657,0.04216
3462.09783,0.04146
3460.16908,0.04101
3458.24034,0.04107
3456.31159,0.04124
3454.38285,0.04117
3452.45410,0.04094
3450.52535,0.04070
3448.59661,0.04065
3446.66786,0.04097
3444.73912,0.04140
3442.81037,0.04154
3440.88163,0.04137
3438.95288,0.04102
3437.02414,0.04070
3435.09539,0.04060
3433.16665,0.04070
3431.23790,0.04081
3429.30916,0.04100
3427.38041,0.04130
3425.45167,0.04135
3423.52292,0.04104
3421.59418,0.04071
3419.66543,0.04042
3417.73668,0.04014
3415.80794,0.04022
3413.87919,0.04052
3411.95045,0.04044
3410.02170,0.03999
3408.09296,0.03949
3406.16421,0.03921
3404.23547,0.03915
3402.30672,0.03911
3400.37798,0.03900
3398.44923,0.03880
3396.52049,0.03846
3394.59174,0.03821
3392.66300,0.03832
3390.73425,0.03864
3388.80550,0.03897
3386.87676,0.03950
3384.94801,0.04012
3383.01927,0.04033
3381.09052,0.04015
3379.16178,0.04007
3377.23303,0.04037
3375.30429,0.04064
3373.37554,0.04072
3371.44680,0.04100
3369.51805,0.04159
3367.58931,0.04211
3365.66056,0.04229
3363.73182,0.04232
3361.80307,0.04249
3359.87433,0.04279
3357.94558,0.04290
3356.01683,0.04278
3354.08809,0.04276
3352.15934,0.04302
3350.23060,0.04325
3348.30185,0.04311
3346.37311,0.04273
3344.44436,0.04257
3342.51562,0.04273
3340.58687,0.04291
3338.65813,0.04294
3336.72938,0.04285
3334.80064,0.04274
3332.87189,0.04288
3330.94315,0.04324
3329.01440,0.04326
3327.08566,0.04284
3325.15691,0.04234
3323.22816,0.04194
3321.29942,0.04182
3319.37067,0.04202
3317.44193,0.04223
3315.51318,0.04243
3313.58444,0.04275
3311.65569,0.04302
3309.72695,0.04309
3307.79820,0.04310
3305.86946,0.04320
3303.94071,0.04329
3302.01197,0.04316
3300.08322,0.04293
3298.15448,0.04288
3296.22573,0.04295
3294.29698,0.04305
3292.36824,0.04325
3290.43949,0.04344
3288.51075,0.04334
3286.58200,0.04297
3284.65326,0.04268
3282.72451,0.04277
3280.79577,0.04324
3278.86702,0.04371
3276.93828,0.04393
3275.00953,0.04393
3273.08079,0.04381
3271.15204,0.04366
3269.22330,0.04356
3267.29455,0.04355
3265.36581,0.04365
3263.43706,0.04384
3261.50831,0.04401
3259.57957,0.04413
3257.65082,0.04423
3255.72208,0.04406
3253.79333,0.04361
3251.86459,0.04335
3249.93584,0.04362
3248.00710,0.04411
3246.07835,0.04418
3244.14961,0.04382
3242.22086,0.04355
3240.29212,0.04342
3238.36337,0.04312
3236.43463,0.04278
3234.50588,0.04266
3232.57713,0.04270
3230.64839,0.04270
3228.71964,0.04270
3226.79090,0.04259
3224.86215,0.04217
3222.93341,0.04182
3221.00466,0.04184
3219.07592,0.04184
3217.14717,0.04156
3215.21843,0.04126
3213.28968,0.04129
3211.36094,0.04153
3209.43219,0.04172
3207.50345,0.04192
3205.57470,0.04204
3203.64596,0.04204
3201.71721,0.04207
3199.78846,0.04233
3197.85972,0.04277
3195.93097,0.04291
3194.00223,0.04258
3192.07348,0.04244
3190.14474,0.04286
3188.21599,0.04334
3186.28725,0.04341
3184.35850,0.04326
3182.42976,0.04322
3180.50101,0.04347
3178.57227,0.04397
3176.64352,0.04445
3174.71478,0.04466
3172.78603,0.04455
3170.85729,0.04432
3168.92854,0.04439
3166.99979,0.04482
3165.07105,0.04507
3163.14230,0.04506
3161.21356,0.04515
3159.28481,0.04528
3157.35607,0.04524
3155.42732,0.04512
3153.49858,0.04522
3151.56983,0.04552
3149.64109,0.04571
3147.71234,0.04566
3145.78360,0.04547
3143.85485,0.04529
3141.92611,0.04519
3139.99736,0.04519
3138.06861,0.04520
3136.13987,0.04528
3134.21112,0.04546
3132.28238,0.04552
3130.35363,0.04528
3128.42489,0.04495
3126.49614,0.04488
3124.56740,0.04513
3122.63865,0.04524
3120.70991,0.04519
3118.78116,0.04539
3116.85242,0.04570
3114.92367,0.04574
3112.99493,0.04557
3111.06618,0.04546
3109.13744,0.04550
3107.20869,0.04545
3105.27994,0.04528
3103.35120,0.04536
3101.42245,0.04556
3099.49371,0.04554
3097.56496,0.04554
3095.63622,0.04562
3093.70747,0.04562
3091.77873,0.04571
3089.84998,0.04607
3087.92124,0.04628
3085.99249,0.04596
3084.06375,0.04552
3082.13500,0.04551
3080.20626,0.04564
3078.27751,0.04567
3076.34877,0.04588
3074.42002,0.04624
3072.49127,0.04639
3070.56253,0.04628
3068.63378,0.04607
3066.70504,0.04602
3064.77629,0.04625
3062.84755,0.04628
3060.91880,0.04597
3058.99006,0.04595
3057.06131,0.04622
3055.13257,0.04622
3053.20382,0.04602
3051.27508,0.04592
3049.34633,0.04593
3047.41759,0.04590
3045.48884,0.04586
3043.56009,0.04579
3041.63135,0.04569
3039.70260,0.04578
3037.77386,0.04611
3035.84511,0.04630
3033.91637,0.04615
3031.98762,0.04599
3030.05888,0.04604
3028.13013,0.04614
3026.20139,0.04624
3024.27264,0.04632
3022.34390,0.04628
3020.41515,0.04628
3018.48641,0.04634
3016.55766,0.04617
3014.62892,0.04583
3012.70017,0.04570
3010.77142,0.04579
3008.84268,0.04586
3006.91393,0.04587
3004.98519,0.04588
3003.05644,0.04581
3001.12770,0.04558
2999.19895,0.04546
2997.27021,0.04558
2995.34146,0.04556
2993.41272,0.04542
2991.48397,0.04544
2989.55523,0.04547
2987.62648,0.04528
2985.69774,0.04500
2983.76899,0.04473
2981.84025,0.04443
2979.91150,0.04416
2977.98275,0.04399
2976.05401,0.04380
2974.12526,0.04353
2972.19652,0.04327
2970.26777,0.04309
2968.33903,0.04290
2966.41028,0.04260
2964.48154,0.04229
2962.55279,0.04214
2960.62405,0.04212
2958.69530,0.04198
2956.76656,0.04167
2954.83781,0.04141
2952.90907,0.04121
2950.98032,0.04104
2949.05157,0.04096
2947.12283,0.04093
2945.19408,0.04083
2943.26534,0.04072
2941.33659,0.04069
2939.40785,0.04061
2937.47910,0.04066
2935.55036,0.04094
2933.62161,0.04111
2931.69287,0.04118
2929.76412,0.04145
2927.83538,0.04189
2925.90663,0.04253
2923.97789,0.04362
2922.04914,0.04501
2920.12040,0.04632
2918.19165,0.04741
2916.26290,0.04804
2914.33416,0.04783
2912.40541,0.04694
2910.47667,0.04604
2908.54792,0.04543
2906.61918,0.04495
2904.69043,0.04467
2902.76169,0.04479
2900.83294,0.04514
2898.90420,0.04537
2896.97545,0.04540
2895.04671,0.04559
2893.11796,0.04594
2891.18922,0.04617
2889.26047,0.04638
2887.33172,0.04660
2885.40298,0.04665
2883.47423,0.04657
2881.54549,0.04641
2879.61674,0.04627
2877.68800,0.04636
2875.75925,0.04648
2873.83051,0.04659
2871.90176,0.04674
2869.97302,0.04666
2868.04427,0.04640
2866.11553,0.04622
2864.18678,0.04611
2862.25804,0.04591
2860.32929,0.04555
2858.40055,0.04532
2856.47180,0.04547
2854.54305,0.04598
2852.61431,0.04684
2850.68556,0.04802
2848.75682,0.04920
2846.82807,0.04972
2844.89933,0.04940
2842.97058,0.04907
2841.04184,0.04932
2839.11309,0.04985
2837.18435,0.05025
2835.25560,0.05051
2833.32686,0.05072
2831.39811,0.05099
2829.46937,0.05127
2827.54062,0.05145
2825.61188,0.05159
2823.68313,0.05177
2821.75438,0.05176
2819.82564,0.05159
2817.89689,0.05170
2815.96815,0.05208
2814.03940,0.05236
2812.11066,0.05257
2810.18191,0.05272
2808.25317,0.05265
2806.32442,0.05252
2804.39568,0.05245
2802.46693,0.05233
2800.53819,0.05232
2798.60944,0.05256
2796.68070,0.05280
2794.75195,0.05284
2792.82320,0.05284
2790.89446,0.05296
2788.96571,0.05314
2787.03697,0.05329
2785.10822,0.05341
2783.17948,0.05356
2781.25073,0.05370
2779.32199,0.05371
2777.39324,0.05358
2775.46450,0.05353
2773.53575,0.05365
2771.60701,0.05383
2769.67826,0.05390
2767.74952,0.05373
2765.82077,0.05354
2763.89203,0.05359
2761.96328,0.05381
2760.03453,0.05393
2758.10579,0.05397
2756.17704,0.05401
2754.24830,0.05404
2752.31955,0.05407
2750.39081,0.05415
2748.46206,0.05422
2746.53332,0.05425
2744.60457,0.05431
2742.67583,0.05438
2740.74708,0.05443
2738.81834,0.05444
2736.88959,0.05443
2734.96085,0.05437
2733.03210,0.05425
2731.10336,0.05418
2729.17461,0.05434
2727.24586,0.05460
2725.31712,0.05465
2723.38837,0.05461
2721.45963,0.05472
2719.53088,0.05497
2717.60214,0.05524
2715.67339,0.05542
2713.74465,0.05540
2711.81590,0.05524
2709.88716,0.05506
2707.95841,0.05506
2706.02967,0.05531
2704.10092,0.05548
2702.17218,0.05529
2700.24343,0.05504
2698.31468,0.05514
2696.38594,0.05543
2694.45719,0.05540
2692.52845,0.05508
2690.59970,0.05501
2688.67096,0.05520
2686.74221,0.05533
2684.81347,0.05537
2682.88472,0.05543
2680.95598,0.05549
2679.02723,0.05557
2677.09849,0.05575
2675.16974,0.05597
2673.24100,0.05601
2671.31225,0.05598
2669.38351,0.05601
2667.45476,0.05598
2665.52601,0.05594
2663.59727,0.05604
2661.66852,0.05611
2659.73978,0.05604
2657.81103,0.05595
2655.88229,0.05589
2653.95354,0.05588
2652.02480,0.05590
2650.09605,0.05605
2648.16731,0.05619
2646.23856,0.05610
2644.30982,0.05595
2642.38107,0.05600
2640.45233,0.05615
2638.52358,0.05617
2636.59484,0.05599
2634.66609,0.05577
2632.73734,0.05570
2630.80860,0.05578
2628.87985,0.05588
2626.95111,0.05596
2625.02236,0.05604
2623.09362,0.05602
2621.16487,0.05587
2619.23613,0.05580
2617.30738,0.05594
2615.37864,0.05609
2613.44989,0.05613
2611.52115,0.05614
2609.59240,0.05612
2607.66366,0.05602
2605.73491,0.05597
2603.80616,0.05603
2601.87742,0.05601
2599.94867,0.05582
2598.01993,0.05572
2596.09118,0.05592
2594.16244,0.05623
2592.23369,0.05631
2590.30495,0.05613
2588.37620,0.05598
2586.44746,0.05596
2584.51871,0.05607
2582.58997,0.05633
2580.66122,0.05651
2578.73248,0.05640
2576.80373,0.05618
2574.87499,0.05609
2572.94624,0.05616
2571.01749,0.05627
2569.08875,0.05631
2567.16000,0.05638
2565.23126,0.05649
2563.30251,0.05644
2561.37377,0.05626
2559.44502,0.05623
2557.51628,0.05634
2555.58753,0.05640
2553.65879,0.05638
2551.73004,0.05638
2549.80130,0.05636
2547.87255,0.05639
2545.94381,0.05659
2544.01506,0.05677
2542.08631,0.05675
2540.15757,0.05661
2538.22882,0.05641
2536.30008,0.05622
2534.37133,0.05611
2532.44259,0.05615
2530.51384,0.05621
2528.58510,0.05608
2526.65635,0.05592
2524.72761,0.05592
2522.79886,0.05589
2520.87012,0.05579
2518.94137,0.05581
2517.01263,0.05586
2515.08388,0.05588
2513.15514,0.05601
2511.22639,0.05622
2509.29764,0.05642
2507.36890,0.05660
2505.44015,0.05672
2503.51141,0.05678
2501.58266,0.05680
2499.65392,0.05672
2497.72517,0.05673
2495.79643,0.05691
2493.86768,0.05714
2491.93894,0.05746
2490.01019,0.05768
2488.08145,0.05770
2486.15270,0.05774
2484.22396,0.05794
2482.29521,0.05822
2480.36647,0.05830
2478.43772,0.05812
2476.50897,0.05793
2474.58023,0.05795
2472.65148,0.05825
2470.72274,0.05853
2468.79399,0.05850
2466.86525,0.05839
2464.93650,0.05843
2463.00776,0.05850
2461.07901,0.05852
2459.15027,0.05862
2457.22152,0.05873
2455.29278,0.05866
2453.36403,0.05846
2451.43529,0.05841
2449.50654,0.05849
2447.57779,0.05860
2445.64905,0.05876
2443.72030,0.05884
2441.79156,0.05866
2439.86281,0.05838
2437.93407,0.05833
2436.00532,0.05851
2434.07658,0.05868
2432.14783,0.05873
2430.21909,0.05870
2428.29034,0.05865
2426.36160,0.05865
2424.43285,0.05874
2422.50411,0.05893
2420.57536,0.05906
2418.64662,0.05914
2416.71787,0.05925
2414.78912,0.05926
2412.86038,0.05913
2410.93163,0.05898
2409.00289,0.05883
2407.07414,0.05870
2405.14540,0.05866
2403.21665,0.05873
2401.28791,0.05888
2399.35916,0.05908
2397.43042,0.05930
2395.50167,0.05939
2393.57293,0.05923
2391.64418,0.05901
2389.71544,0.05902
2387.78669,0.05921
2385.85795,0.05929
2383.92920,0.05911
2382.00045,0.05893
2380.07171,0.05892
2378.14296,0.05910
2376.21422,0.05927
2374.28547,0.05917
2372.35673,0.05894
2370.42798,0.05895
2368.49924,0.05915
2366.57049,0.05925
2364.64175,0.05925
2362.71300,0.05934
2360.78426,0.05956
2358.85551,0.05970
2356.92677,0.05961
2354.99802,0.05940
2353.06927,0.05922
2351.14053,0.05919
2349.21178,0.05923
2347.28304,0.05926
2345.35429,0.05939
2343.42555,0.05954
2341.49680,0.05942
2339.56806,0.05921
2337.63931,0.05927
2335.71057,0.05945
2333.78182,0.05951
2331.85308,0.05944
2329.92433,0.05936
2327.99559,0.05940
2326.06684,0.05948
2324.13810,0.05947
2322.20935,0.05943
2320.28060,0.05949
2318.35186,0.05948
2316.42311,0.05931
2314.49437,0.05920
2312.56562,0.05924
2310.63688,0.05933
2308.70813,0.05940
2306.77939,0.05945
2304.85064,0.05948
2302.92190,0.05955
2300.99315,0.05959
2299.06441,0.05947
2297.13566,0.05941
2295.20692,0.05954
2293.27817,0.05964
2291.34943,0.05957
2289.42068,0.05949
2287.49193,0.05949
2285.56319,0.05952
2283.63444,0.05949
2281.70570,0.05949
2279.77695,0.05956
2277.84821,0.05962
2275.91946,0.05965
2273.99072,0.05968
2272.06197,0.05971
2270.13323,0.05977
2268.20448,0.05977
2266.27574,0.05971
2264.34699,0.05967
2262.41825,0.05959
2260.48950,0.05946
2258.56075,0.05940
2256.63201,0.05940
2254.70326,0.05933
2252.77452,0.05929
2250.84577,0.05932
2248.91703,0.05939
2246.98828,0.05938
2245.05954,0.05912
2243.13079,0.05864
2241.20205,0.05817
2239.27330,0.05788
2237.34456,0.05788
2235.41581,0.05816
2233.48707,0.05860
2231.55832,0.05900
2229.62958,0.05920
2227.70083,0.05936
2225.77208,0.05957
2223.84334,0.05977
2221.91459,0.05990
2219.98585,0.05989
2218.05710,0.05972
2216.12836,0.05954
2214.19961,0.05953
2212.27087,0.05965
2210.34212,0.05953
2208.41338,0.05925
2206.48463,0.05925
2204.55589,0.05950
2202.62714,0.05966
2200.69840,0.05968
2198.76965,0.05962
2196.84090,0.05956
2194.91216,0.05957
2192.98341,0.05967
2191.05467,0.05976
2189.12592,0.05988
2187.19718,0.06005
2185.26843,0.06023
2183.33969,0.06028
2181.41094,0.06021
2179.48220,0.06023
2177.55345,0.06035
2175.62471,0.06036
2173.69596,0.06025
2171.76722,0.06016
2169.83847,0.06019
2167.90973,0.06033
2165.98098,0.06038
2164.05223,0.06027
2162.12349,0.06017
2160.19474,0.06027
2158.26600,0.06050
2156.33725,0.06067
2154.40851,0.06062
2152.47976,0.06043
2150.55102,0.06044
2148.62227,0.06063
2146.69353,0.06078
2144.76478,0.06072
2142.83604,0.06049
2140.90729,0.06037
2138.97855,0.06051
2137.04980,0.06072
2135.12106,0.06073
2133.19231,0.06055
2131.26356,0.06047
2129.33482,0.06061
2127.40607,0.06074
2125.47733,0.06072
2123.54858,0.06067
2121.61984,0.06066
2119.69109,0.06067
2117.76235,0.06062
2115.83360,0.06060
2113.90486,0.06067
2111.97611,0.06073
2110.04737,0.06068
2108.11862,0.06067
2106.18988,0.06082
2104.26113,0.06091
2102.33238,0.06081
2100.40364,0.06070
2098.47489,0.06073
2096.54615,0.06082
2094.61740,0.06083
2092.68866,0.06073
2090.75991,0.06070
2088.83117,0.06087
2086.90242,0.06105
2084.97368,0.06103
2083.04493,0.06086
2081.11619,0.06076
2079.18744,0.06075
2077.25870,0.06075
2075.32995,0.06085
2073.40121,0.06099
2071.47246,0.06098
2069.54371,0.06090
2067.61497,0.06095
2065.68622,0.06104
2063.75748,0.06112
2061.82873,0.06123
2059.89999,0.06131
2057.97124,0.06128
2056.04250,0.06115
2054.11375,0.06101
2052.18501,0.06092
2050.25626,0.06090
2048.32752,0.06100
2046.39877,0.06115
2044.47003,0.06125
2042.54128,0.06132
2040.61254,0.06136
2038.68379,0.06137
2036.75504,0.06132
2034.82630,0.06120
2032.89755,0.06104
2030.96881,0.06096
2029.04006,0.06098
2027.11132,0.06102
2025.18257,0.06105
2023.25383,0.06109
2021.32508,0.06116
2019.39634,0.06121
2017.46759,0.06122
2015.53885,0.06122
2013.61010,0.06127
2011.68136,0.06131
2009.75261,0.06130
2007.82386,0.06131
2005.89512,0.06136
2003.96637,0.06138
2002.03763,0.06135
2000.10888,0.06142
1998.18014,0.06156
1996.25139,0.06158
1994.32265,0.06147
1992.39390,0.06147
1990.46516,0.06153
1988.53641,0.06144
1986.60767,0.06133
1984.67892,0.06138
1982.75018,0.06143
1980.82143,0.06134
1978.89269,0.06113
1976.96394,0.06086
1975.03519,0.06073
1973.10645,0.06087
1971.17770,0.06110
1969.24896,0.06123
1967.32021,0.06133
1965.39147,0.06144
1963.46272,0.06149
1961.53398,0.06142
1959.60523,0.06129
1957.67649,0.06129
1955.74774,0.06145
1953.81900,0.06149
1951.89025,0.06132
1949.96151,0.06117
1948.03276,0.06117
1946.10402,0.06121
1944.17527,0.06124
1942.24652,0.06131
1940.31778,0.06139
1938.38903,0.06144
1936.46029,0.06147
1934.53154,0.06153
1932.60280,0.06161
1930.67405,0.06166
1928.74531,0.06168
1926.81656,0.06172
1924.88782,0.06170
1922.95907,0.06157
1921.03033,0.06145
1919.10158,0.06144
1917.17284,0.06146
1915.24409,0.06140
1913.31534,0.06137
1911.38660,0.06148
1909.45785,0.06159
1907.52911,0.06159
1905.60036,0.06145
1903.67162,0.06122
1901.74287,0.06107
1899.81413,0.06112
1897.88538,0.06122
1895.95664,0.06124
1894.02789,0.06120
1892.09915,0.06119
1890.17040,0.06124
1888.24166,0.06130
1886.31291,0.06127
1884.38417,0.06119
1882.45542,0.06111
1880.52667,0.06103
1878.59793,0.06099
1876.66918,0.06098
1874.74044,0.06094
1872.81169,0.06091
1870.88295,0.06086
1868.95420,0.06070
1867.02546,0.06061
1865.09671,0.06075
1863.16797,0.06079
1861.23922,0.06048
1859.31048,0.06025
1857.38173,0.06038
1855.45299,0.06047
1853.52424,0.06030
1851.59549,0.06016
1849.66675,0.06020
1847.73800,0.06032
1845.80926,0.06036
1843.88051,0.06026
1841.95177,0.06008
1840.02302,0.05988
1838.09428,0.05971
1836.16553,0.05964
1834.23679,0.05960
1832.30804,0.05948
1830.37930,0.05938
1828.45055,0.05937
1826.52181,0.05929
1824.59306,0.05910
1822.66432,0.05901
1820.73557,0.05910
1818.80682,0.05921
1816.87808,0.05917
1814.94933,0.05902
1813.02059,0.05887
1811.09184,0.05880
1809.16310,0.05877
1807.23435,0.05863
1805.30561,0.05839
1803.37686,0.05802
1801.44812,0.05738
1799.51937,0.05663
1797.59063,0.05611
1795.66188,0.05588
1793.73314,0.05583
1791.80439,0.05591
1789.87565,0.05621
1787.94690,0.05675
1786.01815,0.05722
1784.08941,0.05739
1782.16066,0.05736
1780.23192,0.05723
1778.30317,0.05706
1776.37443,0.05700
1774.44568,0.05698
1772.51694,0.05686
1770.58819,0.05672
1768.65945,0.05653
1766.73070,0.05621
1764.80196,0.05583
1762.87321,0.05536
1760.94447,0.05482
1759.01572,0.05429
1757.08697,0.05379
1755.15823,0.05328
1753.22948,0.05273
1751.30074,0.05208
1749.37199,0.05132
1747.44325,0.05040
1745.51450,0.04931
1743.58576,0.04821
1741.65701,0.04728
1739.72827,0.04637
1737.79952,0.04539
1735.87078,0.04444
1733.94203,0.04356
1732.01329,0.04284
1730.08454,0.04235
1728.15580,0.04204
1726.22705,0.04171
1724.29830,0.04129
1722.36956,0.04085
1720.44081,0.04038
1718.51207,0.03993
1716.58332,0.03960
1714.65458,0.03943
1712.72583,0.03923
1710.79709,0.03901
1708.86834,0.03887
1706.93960,0.03866
1705.01085,0.03826
1703.08211,0.03785
1701.15336,0.03749
1699.22462,0.03714
1697.29587,0.03695
1695.36713,0.03702
1693.43838,0.03729
1691.50963,0.03766
1689.58089,0.03828
1687.65214,0.03926
1685.72340,0.04046
1683.79465,0.04156
1681.86591,0.04239
1679.93716,0.04306
1678.00842,0.04362
1676.07967,0.04403
1674.15093,0.04418
1672.22218,0.04414
1670.29344,0.04408
1668.36469,0.04398
1666.43595,0.04377
1664.50720,0.04368
1662.57845,0.04400
1660.64971,0.04468
1658.72096,0.04549
1656.79222,0.04630
1654.86347,0.04705
1652.93473,0.04767
1651.00598,0.04805
1649.07724,0.04813
1647.14849,0.04788
1645.21975,0.04755
1643.29100,0.04746
1641.36226,0.04749
1639.43351,0.04751
1637.50477,0.04753
1635.57602,0.04738
1633.64728,0.04699
1631.71853,0.04665
1629.78978,0.04645
1627.86104,0.04613
1625.93229,0.04556
1624.00355,0.04508
1622.07480,0.04495
1620.14606,0.04495
1618.21731,0.04482
1616.28857,0.04446
1614.35982,0.04397
1612.43108,0.04341
1610.50233,0.04271
1608.57359,0.04191
1606.64484,0.04122
1604.71610,0.04081
1602.78735,0.04089
1600.85861,0.04149
1598.92986,0.04224
1597.00111,0.04299
1595.07237,0.04383
1593.14362,0.04463
1591.21488,0.04524
1589.28613,0.04572
1587.35739,0.04621
1585.42864,0.04670
1583.49990,0.04708
1581.57115,0.04732
1579.64241,0.04743
1577.71366,0.04745
1575.78492,0.04749
1573.85617,0.04756
1571.92743,0.04756
1569.99868,0.04747
1568.06993,0.04725
1566.14119,0.04697
1564.21244,0.04675
1562.28370,0.04650
1560.35495,0.04588
1558.42621,0.04479
1556.49746,0.04376
1554.56872,0.04312
1552.63997,0.04276
1550.71123,0.04255
1548.78248,0.04227
1546.85374,0.04186
1544.92499,0.04161
1542.99625,0.04168
1541.06750,0.04186
1539.13876,0.04189
1537.21001,0.04186
1535.28126,0.04188
1533.35252,0.04188
1531.42377,0.04185
1529.49503,0.04176
1527.56628,0.04153
1525.63754,0.04136
1523.70879,0.04122
1521.78005,0.04079
1519.85130,0.04018
1517.92256,0.03977
1515.99381,0.03961
1514.06507,0.03965
1512.13632,0.03992
1510.20758,0.04041
1508.27883,0.04113
1506.35008,0.04185
1504.42134,0.04248
1502.49259,0.04312
1500.56385,0.04369
1498.63510,0.04406
1496.70636,0.04411
1494.77761,0.04385
1492.84887,0.04354
1490.92012,0.04349
1488.99138,0.04372
1487.06263,0.04410
1485.13389,0.04454
1483.20514,0.04509
1481.27640,0.04584
1479.34765,0.04682
1477.41891,0.04777
1475.49016,0.04834
1473.56141,0.04835
1471.63267,0.04780
1469.70392,0.04704
1467.77518,0.04644
1465.84643,0.04611
1463.91769,0.04596
1461.98894,0.04583
1460.06020,0.04563
1458.13145,0.04523
1456.20271,0.04465
1454.27396,0.04423
1452.34522,0.04416
1450.41647,0.04425
1448.48773,0.04431
1446.55898,0.04459
1444.63024,0.04545
1442.70149,0.04672
1440.77274,0.04787
1438.84400,0.04859
1436.91525,0.04897
1434.98651,0.04929
1433.05776,0.04963
1431.12902,0.04998
1429.20027,0.05041
1427.27153,0.05095
1425.34278,0.05178
1423.41404,0.05300
1421.48529,0.05436
1419.55655,0.05565
1417.62780,0.05689
1415.69906,0.05791
1413.77031,0.05863
1411.84156,0.05920
1409.91282,0.05957
1407.98407,0.05953
1406.05533,0.05916
1404.12658,0.05878
1402.19784,0.05863
1400.26909,0.05881
1398.34035,0.05929
1396.41160,0.05973
1394.48286,0.05994
1392.55411,0.06010
1390.62537,0.06029
1388.69662,0.06048
1386.76788,0.06069
1384.83913,0.06086
1382.91039,0.06085
1380.98164,0.06078
1379.05289,0.06084
1377.12415,0.06109
1375.19540,0.06137
1373.26666,0.06145
1371.33791,0.06126
1369.40917,0.06109
1367.48042,0.06116
1365.55168,0.06131
1363.62293,0.06143
1361.69419,0.06166
1359.76544,0.06205
1357.83670,0.06256
1355.90795,0.06315
1353.97921,0.06366
1352.05046,0.06395
1350.12172,0.06422
1348.19297,0.06463
1346.26422,0.06493
1344.33548,0.06496
1342.40673,0.06492
1340.47799,0.06496
1338.54924,0.06499
1336.62050,0.06493
1334.69175,0.06486
1332.76301,0.06498
1330.83426,0.06528
1328.90552,0.06547
1326.97677,0.06534
1325.04803,0.06505
1323.11928,0.06499
1321.19054,0.06524
1319.26179,0.06541
1317.33304,0.06533
1315.40430,0.06517
1313.47555,0.06498
1311.54681,0.06485
1309.61806,0.06488
1307.68932,0.06498
1305.76057,0.06505
1303.83183,0.06508
1301.90308,0.06508
1299.97434,0.06500
1298.04559,0.06475
1296.11685,0.06439
1294.18810,0.06417
1292.25936,0.06424
1290.33061,0.06449
1288.40187,0.06460
1286.47312,0.06442
1284.54437,0.06410
1282.61563,0.06384
1280.68688,0.06361
1278.75814,0.06334
1276.82939,0.06303
1274.90065,0.06276
1272.97190,0.06253
1271.04316,0.06232
1269.11441,0.06215
1267.18567,0.06203
1265.25692,0.06191
1263.32818,0.06180
1261.39943,0.06159
1259.47069,0.06124
1257.54194,0.06098
1255.61320,0.06093
1253.68445,0.06095
1251.75570,0.06095
1249.82696,0.06092
1247.89821,0.06086
1245.96947,0.06088
1244.04072,0.06109
1242.11198,0.06135
1240.18323,0.06151
1238.25449,0.06174
1236.32574,0.06210
1234.39700,0.06243
1232.46825,0.06259
1230.53951,0.06266
1228.61076,0.06284
1226.68202,0.06315
1224.75327,0.06341
1222.82452,0.06351
1220.89578,0.06349
1218.96703,0.06346
1217.03829,0.06357
1215.10954,0.06386
1213.18080,0.06408
1211.25205,0.06394
1209.32331,0.06360
1207.39456,0.06329
1205.46582,0.06294
1203.53707,0.06249
1201.60833,0.06204
1199.67958,0.06165
1197.75084,0.06132
1195.82209,0.06101
1193.89335,0.06073
1191.96460,0.06059
1190.03585,0.06056
1188.10711,0.06065
1186.17836,0.06097
1184.24962,0.06135
1182.32087,0.06169
1180.39213,0.06215
1178.46338,0.06261
1176.53464,0.06271
1174.60589,0.06245
1172.67715,0.06194
1170.74840,0.06125
1168.81966,0.06072
1166.89091,0.06038
1164.96217,0.06000
1163.03342,0.05970
1161.10467,0.05974
1159.17593,0.06004
1157.24718,0.06021
1155.31844,0.06013
1153.38969,0.06001
1151.46095,0.05978
1149.53220,0.05949
1147.60346,0.05958
1145.67471,0.06012
1143.74597,0.06066
1141.81722,0.06088
1139.88848,0.06090
1137.95973,0.06092
1136.03099,0.06087
1134.10224,0.06069
1132.17350,0.06051
1130.24475,0.06025
1128.31600,0.05966
1126.38726,0.05877
1124.45851,0.05796
1122.52977,0.05734
1120.60102,0.05679
1118.67228,0.05650
1116.74353,0.05653
1114.81479,0.05670
1112.88604,0.05704
1110.95730,0.05750
1109.02855,0.05785
1107.09981,0.05818
1105.17106,0.05870
1103.24232,0.05933
1101.31357,0.05994
1099.38483,0.06039
1097.45608,0.06052
1095.52733,0.06037
1093.59859,0.06013
1091.66984,0.05988
1089.74110,0.05967
1087.81235,0.05983
1085.88361,0.06045
1083.95486,0.06091
1082.02612,0.06093
1080.09737,0.06089
1078.16863,0.06092
1076.23988,0.06088
1074.31114,0.06068
1072.38239,0.06048
1070.45365,0.06057
1068.52490,0.06086
1066.59615,0.06096
1064.66741,0.06082
1062.73866,0.06060
1060.80992,0.06043
1058.88117,0.06026
1056.95243,0.05991
1055.02368,0.05941
1053.09494,0.05890
1051.16619,0.05840
1049.23745,0.05787
1047.30870,0.05710
1045.37996,0.05603
1043.45121,0.05495
1041.52247,0.05407
1039.59372,0.05335
1037.66498,0.05276
1035.73623,0.05230
1033.80748,0.05209
1031.87874,0.05216
1029.94999,0.05214
1028.02125,0.05178
1026.09250,0.05148
1024.16376,0.05168
1022.23501,0.05219
1020.30627,0.05280
1018.37752,0.05371
1016.44878,0.05484
1014.52003,0.05591
1012.59129,0.05692
1010.66254,0.05790
1008.73380,0.05872
1006.80505,0.05924
1004.87631,0.05941
1002.94756,0.05936
1001.01881,0.05928
999.09007,0.05921
997.16132,0.05921
995.23258,0.05938
993.30383,0.05958
991.37509,0.05965
989.44634,0.05968
987.51760,0.05972
985.58885,0.05963
983.66011,0.05902
981.73136,0.05777
979.80262,0.05637
977.87387,0.05515
975.94513,0.05396
974.01638,0.05289
972.08763,0.05244
970.15889,0.05274
968.23014,0.05346
966.30140,0.05440
964.37265,0.05558
962.44391,0.05687
960.51516,0.05818
958.58642,0.05954
956.65767,0.06076
954.72893,0.06158
952.80018,0.06189
950.87144,0.06203
948.94269,0.06244
947.01395,0.06296
945.08520,0.06331
943.15646,0.06345
941.22771,0.06378
939.29896,0.06441
937.37022,0.06487
935.44147,0.06512
933.51273,0.06545
931.58398,0.06553
929.65524,0.06512
927.72649,0.06468
925.79775,0.06450
923.86900,0.06422
921.94026,0.06370
920.01151,0.06330
918.08277,0.06314
916.15402,0.06302
914.22528,0.06303
912.29653,0.06347
910.36779,0.06410
908.43904,0.06455
906.51029,0.06495
904.58155,0.06537
902.65280,0.06543
900.72406,0.06504
898.79531,0.06446
896.86657,0.06344
894.93782,0.06139
893.00908,0.05902
891.08033,0.05839
889.15159,0.05931
887.22284,0.05933
885.29410,0.05822
883.36535,0.05739
881.43661,0.05677
879.50786,0.05592
877.57911,0.05525
875.65037,0.05483
873.72162,0.05433
871.79288,0.05423
869.86413,0.05556
867.93539,0.05855
866.00664,0.06158
864.07790,0.06263
862.14915,0.06187
860.22041,0.06086
858.29166,0.06012
856.36292,0.05936
854.43417,0.05874
852.50543,0.05850
850.57668,0.05860
848.64794,0.05894
846.71919,0.05924
844.79044,0.05952
842.86170,0.05983
840.93295,0.05990
839.00421,0.05975
837.07546,0.05976
835.14672,0.05988
833.21797,0.05984
831.28923,0.05977
829.36048,0.05973
827.43174,0.05955
825.50299,0.05917
823.57425,0.05850
821.64550,0.05756
819.71676,0.05679
817.78801,0.05626
815.85926,0.05560
813.93052,0.05488
812.00177,0.05413
810.07303,0.05313
808.14428,0.05222
806.21554,0.05174
804.28679,0.05148
802.35805,0.05124
800.42930,0.05129
798.50056,0.05164
796.57181,0.05195
794.64307,0.05229
792.71432,0.05263
790.78558,0.05280
788.85683,0.05293
786.92809,0.05316
784.99934,0.05338
783.07059,0.05367
781.14185,0.05404
779.21310,0.05424
777.28436,0.05417
775.35561,0.05409
773.42687,0.05420
771.49812,0.05449
769.56938,0.05477
767.64063,0.05483
765.71189,0.05468
763.78314,0.05450
761.85440,0.05431
759.92565,0.05398
757.99691,0.05373
756.06816,0.05386
754.13942,0.05402
752.21067,0.05374
750.28192,0.05348
748.35318,0.05355
746.42443,0.05357
744.49569,0.05370
742.56694,0.05413
740.63820,0.05433
738.70945,0.05421
736.78071,0.05421
734.85196,0.05454
732.92322,0.05514
730.99447,0.05578
729.06573,0.05620
727.13698,0.05633
725.20824,0.05628
723.27949,0.05606
721.35074,0.05567
719.42200,0.05524
717.49325,0.05447
715.56451,0.05309
713.63576,0.05231
711.70702,0.05307
709.77827,0.05453
707.84953,0.05556
705.92078,0.05572
703.99204,0.05515
702.06329,0.05427
700.13455,0.05383
698.20580,0.05429
696.27706,0.05472
694.34831,0.05429
692.41957,0.05386
690.49082,0.05378
688.56207,0.05358
686.63333,0.05336
684.70458,0.05294
682.77584,0.05237
680.84709,0.05215
678.91835,0.05190
676.98960,0.05129
675.06086,0.05079
673.13211,0.05053
671.20337,0.05028
669.27462,0.05021
667.34588,0.05046
665.41713,0.05097
663.48839,0.05160
661.55964,0.05157
659.63090,0.05071
657.70215,0.04995
655.77340,0.04981
653.84466,0.05020
651.91591,0.05073
649.98717,0.05092
648.05842,0.05065
646.12968,0.05032
644.20093,0.05028
642.27219,0.05019
640.34344,0.04979
638.41470,0.04950
636.48595,0.04951
634.55721,0.04959
632.62846,0.05014
630.69972,0.05100
628.77097,0.05089
626.84222,0.04938
624.91348,0.04720
622.98473,0.04532
621.05599,0.04476
619.12724,0.04510
617.19850,0.04420
615.26975,0.04236
613.34101,0.04220
611.41226,0.04358
609.48352,0.04450
607.55477,0.04433
605.62603,0.04384
603.69728,0.04368
601.76854,0.04387
599.83979,0.04477
