7497.03301,0.05054
7495.10426,0.05674
7493.17552,0.05397
7491.24677,0.04736
7489.31803,0.04351
7487.38928,0.04033
7485.46054,0.03784
7483.53179,0.04219
7481.60305,0.05169
7479.67430,0.05682
7477.74556,0.05238
7475.81681,0.04455
7473.88807,0.04219
7471.95932,0.04538
7470.03057,0.04717
7468.10183,0.04562
7466.17308,0.04508
7464.24434,0.04656
7462.31559,0.04774
7460.38685,0.04683
7458.45810,0.04319
7456.52936,0.04145
7454.60061,0.04401
7452.67187,0.04543
7450.74312,0.04333
7448.81438,0.04403
7446.88563,0.04858
7444.95689,0.05090
7443.02814,0.04969
7441.09940,0.04765
7439.17065,0.04486
7437.24190,0.04145
7435.31316,0.03874
7433.38441,0.03881
7431.45567,0.04159
7429.52692,0.04506
7427.59818,0.04862
7425.66943,0.05070
7423.74069,0.04842
7421.81194,0.04426
7419.88320,0.04337
7417.95445,0.04583
7416.02571,0.04838
7414.09696,0.04747
7412.16822,0.04296
7410.23947,0.04049
7408.31073,0.04059
7406.38198,0.04026
7404.45323,0.04146
7402.52449,0.04325
7400.59574,0.04109
7398.66700,0.03874
7396.73825,0.04083
7394.80951,0.04414
7392.88076,0.04553
7390.95202,0.04705
7389.02327,0.04752
7387.09453,0.04536
7385.16578,0.04237
7383.23704,0.04184
7381.30829,0.04436
7379.37955,0.04785
7377.45080,0.05039
7375.52205,0.05135
7373.59331,0.05104
7371.66456,0.05012
7369.73582,0.04683
7367.80707,0.04305
7365.87833,0.04373
7363.94958,0.04747
7362.02084,0.04859
7360.09209,0.04689
7358.16335,0.04752
7356.23460,0.05128
7354.30586,0.05289
7352.37711,0.05041
7350.44837,0.04706
7348.51962,0.04538
7346.59088,0.04353
7344.66213,0.04034
7342.73338,0.03911
7340.80464,0.04109
7338.87589,0.04340
7336.94715,0.04536
7335.01840,0.04677
7333.08966,0.04649
7331.16091,0.04585
7329.23217,0.04781
7327.30342,0.05074
7325.37468,0.05125
7323.44593,0.05094
7321.51719,0.05090
7319.58844,0.04821
7317.65970,0.04444
7315.73095,0.04388
7313.80221,0.04689
7311.87346,0.05100
7309.94471,0.05319
7308.01597,0.05119
7306.08722,0.04841
7304.15848,0.04918
7302.22973,0.05116
7300.30099,0.05083
7298.37224,0.04867
7296.44350,0.04697
7294.51475,0.04852
7292.58601,0.05035
7290.65726,0.04913
7288.72852,0.04878
7286.79977,0.04972
7284.87103,0.04805
7282.94228,0.04603
7281.01353,0.04482
7279.08479,0.04173
7277.15604,0.03951
7275.22730,0.04258
7273.29855,0.04692
7271.36981,0.04613
7269.44106,0.04448
7267.51232,0.04855
7265.58357,0.05371
7263.65483,0.05384
7261.72608,0.04993
7259.79734,0.04634
7257.86859,0.04567
7255.93985,0.04693
7254.01110,0.04746
7252.08236,0.04593
7250.15361,0.04373
7248.22486,0.04306
7246.29612,0.04380
7244.36737,0.04408
7242.43863,0.04399
7240.50988,0.04661
7238.58114,0.05069
7236.65239,0.05010
7234.72365,0.04556
7232.79490,0.04472
7230.86616,0.04870
7228.93741,0.05203
7227.00867,0.05283
7225.07992,0.05163
7223.15118,0.04859
7221.22243,0.04645
7219.29369,0.04611
7217.36494,0.04626
7215.43619,0.04896
7213.50745,0.05330
7211.57870,0.05437
7209.64996,0.05388
7207.72121,0.05329
7205.79247,0.05062
7203.86372,0.04704
7201.93498,0.04473
7200.00623,0.04325
7198.07749,0.04264
7196.14874,0.04344
7194.22000,0.04387
7192.29125,0.04249
7190.36251,0.04177
7188.43376,0.04227
7186.50501,0.04137
7184.57627,0.03843
7182.64752,0.03650
7180.71878,0.03817
7178.79003,0.04233
7176.86129,0.04606
7174.93254,0.04962
7173.00380,0.05268
7171.07505,0.05213
7169.14631,0.04899
7167.21756,0.04747
7165.28882,0.04817
7163.36007,0.04844
7161.43133,0.04697
7159.50258,0.04697
7157.57384,0.04774
7155.64509,0.04506
7153.71634,0.04232
7151.78760,0.04391
7149.85885,0.04646
7147.93011,0.04674
7146.00136,0.04607
7144.07262,0.04648
7142.14387,0.04664
7140.21513,0.04486
7138.28638,0.04330
7136.35764,0.04389
7134.42889,0.04530
7132.50015,0.04611
7130.57140,0.04659
7128.64266,0.04645
7126.71391,0.04593
7124.78516,0.04721
7122.85642,0.04886
7120.92767,0.04798
7118.99893,0.04597
7117.07018,0.04622
7115.14144,0.04877
7113.21269,0.05127
7111.28395,0.05262
7109.35520,0.05276
7107.42646,0.05199
7105.49771,0.04972
7103.56897,0.04584
7101.64022,0.04383
7099.71148,0.04528
7097.78273,0.04699
7095.85399,0.04613
7093.92524,0.04383
7091.99649,0.04299
7090.06775,0.04323
7088.13900,0.04285
7086.21026,0.04420
7084.28151,0.04778
7082.35277,0.04977
7080.42402,0.04852
7078.49528,0.04597
7076.56653,0.04430
7074.63779,0.04342
7072.70904,0.04130
7070.78030,0.03931
7068.85155,0.04118
7066.92281,0.04666
7064.99406,0.05054
7063.06532,0.04933
7061.13657,0.04596
7059.20782,0.04572
7057.27908,0.04820
7055.35033,0.04853
7053.42159,0.04565
7051.49284,0.04309
7049.56410,0.04231
7047.63535,0.04282
7045.70661,0.04477
7043.77786,0.04730
7041.84912,0.04845
7039.92037,0.04821
7037.99163,0.04710
7036.06288,0.04541
7034.13414,0.04405
7032.20539,0.04413
7030.27664,0.04665
7028.34790,0.04940
7026.41915,0.04963
7024.49041,0.04947
7022.56166,0.04900
7020.63292,0.04750
7018.70417,0.04798
7016.77543,0.04976
7014.84668,0.04936
7012.91794,0.04842
7010.98919,0.04797
7009.06045,0.04730
7007.13170,0.04756
7005.20296,0.04861
7003.27421,0.04817
7001.34547,0.04609
6999.41672,0.04492
6997.48797,0.04586
6995.55923,0.04618
6993.63048,0.04457
6991.70174,0.04270
6989.77299,0.04032
6987.84425,0.03710
6985.91550,0.03645
6983.98676,0.03943
6982.05801,0.04309
6980.12927,0.04600
6978.20052,0.04786
6976.27178,0.04707
6974.34303,0.04385
6972.41429,0.04145
6970.48554,0.04227
6968.55680,0.04475
6966.62805,0.04657
6964.69930,0.04671
6962.77056,0.04511
6960.84181,0.04231
6958.91307,0.03943
6956.98432,0.03895
6955.05558,0.04163
6953.12683,0.04310
6951.19809,0.04093
6949.26934,0.03857
6947.34060,0.03915
6945.41185,0.04132
6943.48311,0.04352
6941.55436,0.04495
6939.62562,0.04418
6937.69687,0.04190
6935.76812,0.04124
6933.83938,0.04380
6931.91063,0.04809
6929.98189,0.04937
6928.05314,0.04615
6926.12440,0.04334
6924.19565,0.04317
6922.26691,0.04308
6920.33816,0.04265
6918.40942,0.04310
6916.48067,0.04297
6914.55193,0.04178
6912.62318,0.04287
6910.69444,0.04419
6908.76569,0.04171
6906.83695,0.03996
6904.90820,0.04458
6902.97945,0.05089
6901.05071,0.05201
6899.12196,0.05036
6897.19322,0.05086
6895.26447,0.05196
6893.33573,0.05025
6891.40698,0.04634
6889.47824,0.04406
6887.54949,0.04572
6885.62075,0.04892
6883.69200,0.04914
6881.76326,0.04611
6879.83451,0.04446
6877.90577,0.04693
6875.97702,0.04931
6874.04828,0.04739
6872.11953,0.04421
6870.19078,0.04417
6868.26204,0.04566
6866.33329,0.04656
6864.40455,0.04756
6862.47580,0.04882
6860.54706,0.04928
6858.61831,0.04899
6856.68957,0.04925
6854.76082,0.05006
6852.83208,0.05072
6850.90333,0.05040
6848.97459,0.04819
6847.04584,0.04568
6845.11710,0.04485
6843.18835,0.04521
6841.25960,0.04567
6839.33086,0.04674
6837.40211,0.04838
6835.47337,0.04895
6833.54462,0.04817
6831.61588,0.04675
6829.68713,0.04516
6827.75839,0.04550
6825.82964,0.04844
6823.90090,0.05018
6821.97215,0.04819
6820.04341,0.04584
6818.11466,0.04459
6816.18592,0.04270
6814.25717,0.04217
6812.32843,0.04352
6810.39968,0.04294
6808.47093,0.04110
6806.54219,0.04141
6804.61344,0.04343
6802.68470,0.04551
6800.75595,0.04803
6798.82721,0.05052
6796.89846,0.05211
6794.96972,0.05229
6793.04097,0.05100
6791.11223,0.05061
6789.18348,0.05111
6787.25474,0.04933
6785.32599,0.04537
6783.39725,0.04254
6781.46850,0.04284
6779.53975,0.04350
6777.61101,0.04246
6775.68226,0.04240
6773.75352,0.04447
6771.82477,0.04628
6769.89603,0.04699
6767.96728,0.04770
6766.03854,0.04758
6764.10979,0.04636
6762.18105,0.04561
6760.25230,0.04563
6758.32356,0.04722
6756.39481,0.05057
6754.46607,0.05311
6752.53732,0.05284
6750.60858,0.05082
6748.67983,0.04927
6746.75108,0.04767
6744.82234,0.04489
6742.89359,0.04373
6740.96485,0.04570
6739.03610,0.04674
6737.10736,0.04524
6735.17861,0.04557
6733.24987,0.04809
6731.32112,0.04914
6729.39238,0.04819
6727.46363,0.04644
6725.53489,0.04539
6723.60614,0.04624
6721.67740,0.04731
6719.74865,0.04659
6717.81991,0.04447
6715.89116,0.04273
6713.96241,0.04266
6712.03367,0.04341
6710.10492,0.04375
6708.17618,0.04458
6706.24743,0.04549
6704.31869,0.04546
6702.38994,0.04567
6700.46120,0.04588
6698.53245,0.04426
6696.60371,0.04228
6694.67496,0.04175
6692.74622,0.04108
6690.81747,0.04055
6688.88873,0.04155
6686.95998,0.04249
6685.03123,0.04376
6683.10249,0.04670
6681.17374,0.04860
6679.24500,0.04721
6677.31625,0.04520
6675.38751,0.04460
6673.45876,0.04459
6671.53002,0.04503
6669.60127,0.04635
6667.67253,0.04841
6665.74378,0.04920
6663.81504,0.04679
6661.88629,0.04452
6659.95755,0.04482
6658.02880,0.04546
6656.10006,0.04616
6654.17131,0.04779
6652.24256,0.04847
6650.31382,0.04813
6648.38507,0.04748
6646.45633,0.04496
6644.52758,0.04235
6642.59884,0.04277
6640.67009,0.04460
6638.74135,0.04560
6636.81260,0.04622
6634.88386,0.04691
6632.95511,0.04744
6631.02637,0.04714
6629.09762,0.04560
6627.16888,0.04539
6625.24013,0.04782
6623.31139,0.04940
6621.38264,0.04791
6619.45389,0.04596
6617.52515,0.04576
6615.59640,0.04687
6613.66766,0.04802
6611.73891,0.04749
6609.81017,0.04458
6607.88142,0.04247
6605.95268,0.04347
6604.02393,0.04552
6602.09519,0.04634
6600.16644,0.04593
6598.23770,0.04458
6596.30895,0.04307
6594.38021,0.04237
6592.45146,0.04130
6590.52271,0.04086
6588.59397,0.04370
6586.66522,0.04723
6584.73648,0.04892
6582.80773,0.04965
6580.87899,0.04871
6578.95024,0.04621
6577.02150,0.04548
6575.09275,0.04583
6573.16401,0.04409
6571.23526,0.04269
6569.30652,0.04321
6567.37777,0.04272
6565.44903,0.04286
6563.52028,0.04622
6561.59154,0.04920
6559.66279,0.04947
6557.73404,0.04975
6555.80530,0.05149
6553.87655,0.05225
6551.94781,0.05003
6550.01906,0.04741
6548.09032,0.04639
6546.16157,0.04605
6544.23283,0.04619
6542.30408,0.04638
6540.37534,0.04591
6538.44659,0.04582
6536.51785,0.04641
6534.58910,0.04660
6532.66036,0.04578
6530.73161,0.04530
6528.80287,0.04675
6526.87412,0.04929
6524.94537,0.05058
6523.01663,0.05012
6521.08788,0.05007
6519.15914,0.05180
6517.23039,0.05277
6515.30165,0.04985
6513.37290,0.04525
6511.44416,0.04413
6509.51541,0.04572
6507.58667,0.04577
6505.65792,0.04525
6503.72918,0.04682
6501.80043,0.04804
6499.87169,0.04653
6497.94294,0.04411
6496.01419,0.04276
6494.08545,0.04352
6492.15670,0.04604
6490.22796,0.04690
6488.29921,0.04602
6486.37047,0.04700
6484.44172,0.04871
6482.51298,0.04721
6480.58423,0.04392
6478.65549,0.04309
6476.72674,0.04422
6474.79800,0.04483
6472.86925,0.04576
6470.94051,0.04649
6469.01176,0.04505
6467.08302,0.04315
6465.15427,0.04347
6463.22552,0.04510
6461.29678,0.04693
6459.36803,0.04823
6457.43929,0.04746
6455.51054,0.04618
6453.58180,0.04627
6451.65305,0.04529
6449.72431,0.04389
6447.79556,0.04566
6445.86682,0.04839
6443.93807,0.04784
6442.00933,0.04479
6440.08058,0.04288
6438.15184,0.04313
6436.22309,0.04345
6434.29434,0.04277
6432.36560,0.04197
6430.43685,0.04192
6428.50811,0.04178
6426.57936,0.04173
6424.65062,0.04283
6422.72187,0.04380
6420.79313,0.04434
6418.86438,0.04491
6416.93564,0.04390
6415.00689,0.04178
6413.07815,0.04108
6411.14940,0.04279
6409.22066,0.04527
6407.29191,0.04623
6405.36317,0.04585
6403.43442,0.04541
6401.50567,0.04441
6399.57693,0.04321
6397.64818,0.04411
6395.71944,0.04525
6393.79069,0.04362
6391.86195,0.04229
6389.93320,0.04214
6388.00446,0.04071
6386.07571,0.04063
6384.14697,0.04384
6382.21822,0.04687
6380.28948,0.04749
6378.36073,0.04668
6376.43199,0.04561
6374.50324,0.04513
6372.57450,0.04596
6370.64575,0.04662
6368.71700,0.04571
6366.78826,0.04544
6364.85951,0.04674
6362.93077,0.04682
6361.00202,0.04509
6359.07328,0.04441
6357.14453,0.04577
6355.21579,0.04663
6353.28704,0.04569
6351.35830,0.04429
6349.42955,0.04359
6347.50081,0.04399
6345.57206,0.04502
6343.64332,0.04518
6341.71457,0.04424
6339.78582,0.04425
6337.85708,0.04610
6335.92833,0.04717
6333.99959,0.04579
6332.07084,0.04373
6330.14210,0.04324
6328.21335,0.04424
6326.28461,0.04504
6324.35586,0.04520
6322.42712,0.04559
6320.49837,0.04623
6318.56963,0.04610
6316.64088,0.04516
6314.71214,0.04526
6312.78339,0.04692
6310.85465,0.04825
6308.92590,0.04783
6306.99715,0.04661
6305.06841,0.04613
6303.13966,0.04640
6301.21092,0.04711
6299.28217,0.04798
6297.35343,0.04718
6295.42468,0.04466
6293.49594,0.04322
6291.56719,0.04398
6289.63845,0.04532
6287.70970,0.04619
6285.78096,0.04633
6283.85221,0.04565
6281.92347,0.04455
6279.99472,0.04407
6278.06598,0.04504
6276.13723,0.04660
6274.20848,0.04698
6272.27974,0.04675
6270.35099,0.04766
6268.42225,0.04874
6266.49350,0.04827
6264.56476,0.04793
6262.63601,0.04905
6260.70727,0.04940
6258.77852,0.04767
6256.84978,0.04536
6254.92103,0.04417
6252.99229,0.04456
6251.06354,0.04511
6249.13480,0.04511
6247.20605,0.04547
6245.27730,0.04579
6243.34856,0.04542
6241.41981,0.04517
6239.49107,0.04546
6237.56232,0.04606
6235.63358,0.04658
6233.70483,0.04710
6231.77609,0.04804
6229.84734,0.04829
6227.91860,0.04683
6225.98985,0.04509
6224.06111,0.04480
6222.13236,0.04623
6220.20362,0.04782
6218.27487,0.04790
6216.34613,0.04717
6214.41738,0.04699
6212.48863,0.04700
6210.55989,0.04621
6208.63114,0.04458
6206.70240,0.04361
6204.77365,0.04436
6202.84491,0.04527
6200.91616,0.04445
6198.98742,0.04319
6197.05867,0.04332
6195.12993,0.04384
6193.20118,0.04333
6191.27244,0.04247
6189.34369,0.04250
6187.41495,0.04333
6185.48620,0.04390
6183.55746,0.04431
6181.62871,0.04558
6179.69996,0.04740
6177.77122,0.04806
6175.84247,0.04669
6173.91373,0.04434
6171.98498,0.04340
6170.05624,0.04486
6168.12749,0.04678
6166.19875,0.04726
6164.27000,0.04688
6162.34126,0.04661
6160.41251,0.04605
6158.48377,0.04496
6156.55502,0.04442
6154.62628,0.04479
6152.69753,0.04536
6150.76878,0.04617
6148.84004,0.04730
6146.91129,0.04742
6144.98255,0.04621
6143.05380,0.04504
6141.12506,0.04487
6139.19631,0.04554
6137.26757,0.04612
6135.33882,0.04587
6133.41008,0.04507
6131.48133,0.04450
6129.55259,0.04434
6127.62384,0.04372
6125.69510,0.04315
6123.76635,0.04430
6121.83761,0.04616
6119.90886,0.04675
6117.98011,0.04644
6116.05137,0.04656
6114.12262,0.04701
6112.19388,0.04692
6110.26513,0.04673
6108.33639,0.04696
6106.40764,0.04676
6104.47890,0.04586
6102.55015,0.04481
6100.62141,0.04425
6098.69266,0.04495
6096.76392,0.04586
6094.83517,0.04586
6092.90643,0.04605
6090.97768,0.04733
6089.04893,0.04828
6087.12019,0.04785
6085.19144,0.04718
6083.26270,0.04666
6081.33395,0.04568
6079.40521,0.04486
6077.47646,0.04481
6075.54772,0.04583
6073.61897,0.04752
6071.69023,0.04849
6069.76148,0.04818
6067.83274,0.04698
6065.90399,0.04574
6063.97525,0.04519
6062.04650,0.04470
6060.11776,0.04465
6058.18901,0.04593
6056.26026,0.04710
6054.33152,0.04721
6052.40277,0.04706
6050.47403,0.04709
6048.54528,0.04764
6046.61654,0.04807
6044.68779,0.04739
6042.75905,0.04631
6040.83030,0.04553
6038.90156,0.04516
6036.97281,0.04546
6035.04407,0.04593
6033.11532,0.04587
6031.18658,0.04549
6029.25783,0.04501
6027.32909,0.04439
6025.40034,0.04419
6023.47159,0.04441
6021.54285,0.04474
6019.61410,0.04613
6017.68536,0.04811
6015.75661,0.04828
6013.82787,0.04695
6011.89912,0.04685
6009.97038,0.04803
6008.04163,0.04805
6006.11289,0.04644
6004.18414,0.04535
6002.25540,0.04623
6000.32665,0.04745
5998.39791,0.04709
5996.46916,0.04590
5994.54041,0.04517
5992.61167,0.04467
5990.68292,0.04376
5988.75418,0.04286
5986.82543,0.04290
5984.89669,0.04379
5982.96794,0.04482
5981.03920,0.04523
5979.11045,0.04488
5977.18171,0.04444
5975.25296,0.04452
5973.32422,0.04532
5971.39547,0.04677
5969.46673,0.04728
5967.53798,0.04607
5965.60924,0.04556
5963.68049,0.04683
5961.75174,0.04770
5959.82300,0.04738
5957.89425,0.04692
5955.96551,0.04672
5954.03676,0.04643
5952.10802,0.04600
5950.17927,0.04582
5948.25053,0.04609
5946.32178,0.04675
5944.39304,0.04742
5942.46429,0.04756
5940.53555,0.04710
5938.60680,0.04648
5936.67806,0.04628
5934.74931,0.04649
5932.82057,0.04730
5930.89182,0.04850
5928.96307,0.04871
5927.03433,0.04802
5925.10558,0.04806
5923.17684,0.04844
5921.24809,0.04810
5919.31935,0.04688
5917.39060,0.04496
5915.46186,0.04343
5913.53311,0.04371
5911.60437,0.04491
5909.67562,0.04530
5907.74688,0.04533
5905.81813,0.04613
5903.88939,0.04736
5901.96064,0.04821
5900.03189,0.04836
5898.10315,0.04784
5896.17440,0.04740
5894.24566,0.04752
5892.31691,0.04739
5890.38817,0.04732
5888.45942,0.04797
5886.53068,0.04779
5884.60193,0.04641
5882.67319,0.04522
5880.74444,0.04418
5878.81570,0.04369
5876.88695,0.04466
5874.95821,0.04615
5873.02946,0.04686
5871.10072,0.04706
5869.17197,0.04693
5867.24322,0.04616
5865.31448,0.04562
5863.38573,0.04652
5861.45699,0.04780
5859.52824,0.04752
5857.59950,0.04628
5855.67075,0.04558
5853.74201,0.04544
5851.81326,0.04618
5849.88452,0.04721
5847.95577,0.04664
5846.02703,0.04484
5844.09828,0.04373
5842.16954,0.04393
5840.24079,0.04499
5838.31205,0.04638
5836.38330,0.04762
5834.45455,0.04841
5832.52581,0.04848
5830.59706,0.04781
5828.66832,0.04748
5826.73957,0.04737
5824.81083,0.04642
5822.88208,0.04551
5820.95334,0.04514
5819.02459,0.04463
5817.09585,0.04480
5815.16710,0.04606
5813.23836,0.04682
5811.30961,0.04607
5809.38087,0.04552
5807.45212,0.04687
5805.52337,0.04866
5803.59463,0.04883
5801.66588,0.04802
5799.73714,0.04728
5797.80839,0.04600
5795.87965,0.04462
5793.95090,0.04472
5792.02216,0.04579
5790.09341,0.04636
5788.16467,0.04630
5786.23592,0.04602
5784.30718,0.04547
5782.37843,0.04478
5780.44969,0.04479
5778.52094,0.04580
5776.59220,0.04692
5774.66345,0.04744
5772.73470,0.04711
5770.80596,0.04664
5768.87721,0.04725
5766.94847,0.04805
5765.01972,0.04771
5763.09098,0.04712
5761.16223,0.04718
5759.23349,0.04741
5757.30474,0.04739
5755.37600,0.04696
5753.44725,0.04644
5751.51851,0.04656
5749.58976,0.04681
5747.66102,0.04647
5745.73227,0.04652
5743.80352,0.04719
5741.87478,0.04730
5739.94603,0.04690
5738.01729,0.04662
5736.08854,0.04647
5734.15980,0.04665
5732.23105,0.04752
5730.30231,0.04837
5728.37356,0.04816
5726.44482,0.04722
5724.51607,0.04689
5722.58733,0.04722
5720.65858,0.04752
5718.72984,0.04782
5716.80109,0.04790
5714.87235,0.04769
5712.94360,0.04771
5711.01485,0.04766
5709.08611,0.04707
5707.15736,0.04584
5705.22862,0.04503
5703.29987,0.04580
5701.37113,0.04725
5699.44238,0.04856
5697.51364,0.04940
5695.58489,0.04908
5693.65615,0.04830
5691.72740,0.04827
5689.79866,0.04865
5687.86991,0.04843
5685.94117,0.04764
5684.01242,0.04696
5682.08368,0.04662
5680.15493,0.04642
5678.22618,0.04642
5676.29744,0.04729
5674.36869,0.04883
5672.43995,0.04956
5670.51120,0.04905
5668.58246,0.04795
5666.65371,0.04623
5664.72497,0.04439
5662.79622,0.04377
5660.86748,0.04417
5658.93873,0.04490
5657.00999,0.04602
5655.08124,0.04680
5653.15250,0.04685
5651.22375,0.04661
5649.29500,0.04630
5647.36626,0.04583
5645.43751,0.04512
5643.50877,0.04487
5641.58002,0.04564
5639.65128,0.04678
5637.72253,0.04767
5635.79379,0.04817
5633.86504,0.04809
5631.93630,0.04779
5630.00755,0.04787
5628.07881,0.04774
5626.15006,0.04722
5624.22132,0.04728
5622.29257,0.04767
5620.36383,0.04715
5618.43508,0.04603
5616.50633,0.04583
5614.57759,0.04675
5612.64884,0.04773
5610.72010,0.04828
5608.79135,0.04840
5606.86261,0.04817
5604.93386,0.04788
5603.00512,0.04757
5601.07637,0.04720
5599.14763,0.04706
5597.21888,0.04731
5595.29014,0.04745
5593.36139,0.04714
5591.43265,0.04673
5589.50390,0.04699
5587.57516,0.04790
5585.64641,0.04830
5583.71766,0.04786
5581.78892,0.04761
5579.86017,0.04784
5577.93143,0.04793
5576.00268,0.04783
5574.07394,0.04779
5572.14519,0.04775
5570.21645,0.04809
5568.28770,0.04866
5566.35896,0.04916
5564.43021,0.04956
5562.50147,0.04899
5560.57272,0.04756
5558.64398,0.04707
5556.71523,0.04802
5554.78648,0.04896
5552.85774,0.04885
5550.92899,0.04830
5549.00025,0.04811
5547.07150,0.04829
5545.14276,0.04860
5543.21401,0.04861
5541.28527,0.04799
5539.35652,0.04718
5537.42778,0.04689
5535.49903,0.04707
5533.57029,0.04701
5531.64154,0.04662
5529.71280,0.04650
5527.78405,0.04675
5525.85531,0.04698
5523.92656,0.04716
5521.99781,0.04755
5520.06907,0.04799
5518.14032,0.04841
5516.21158,0.04872
5514.28283,0.04815
5512.35409,0.04708
5510.42534,0.04691
5508.49660,0.04763
5506.56785,0.04818
5504.63911,0.04802
5502.71036,0.04753
5500.78162,0.04736
5498.85287,0.04787
5496.92413,0.04854
5494.99538,0.04868
5493.06664,0.04869
5491.13789,0.04858
5489.20914,0.04759
5487.28040,0.04640
5485.35165,0.04662
5483.42291,0.04804
5481.49416,0.04891
5479.56542,0.04870
5477.63667,0.04806
5475.70793,0.04725
5473.77918,0.04662
5471.85044,0.04656
5469.92169,0.04714
5467.99295,0.04807
5466.06420,0.04832
5464.13546,0.04721
5462.20671,0.04606
5460.27796,0.04615
5458.34922,0.04688
5456.42047,0.04744
5454.49173,0.04803
5452.56298,0.04849
5450.63424,0.04816
5448.70549,0.04781
5446.77675,0.04817
5444.84800,0.04829
5442.91926,0.04769
5440.99051,0.04695
5439.06177,0.04655
5437.13302,0.04680
5435.20428,0.04744
5433.27553,0.04790
5431.34679,0.04826
5429.41804,0.04853
5427.48929,0.04838
5425.56055,0.04802
5423.63180,0.04774
5421.70306,0.04773
5419.77431,0.04798
5417.84557,0.04846
5415.91682,0.04897
5413.98808,0.04883
5412.05933,0.04816
5410.13059,0.04770
5408.20184,0.04773
5406.27310,0.04806
5404.34435,0.04804
5402.41561,0.04774
5400.48686,0.04769
5398.55811,0.04757
5396.62937,0.04739
5394.70062,0.04755
5392.77188,0.04767
5390.84313,0.04775
5388.91439,0.04812
5386.98564,0.04820
5385.05690,0.04771
5383.12815,0.04742
5381.19941,0.04786
5379.27066,0.04844
5377.34192,0.04838
5375.41317,0.04785
5373.48443,0.04760
5371.55568,0.04776
5369.62694,0.04771
5367.69819,0.04729
5365.76944,0.04702
5363.84070,0.04731
5361.91195,0.04805
5359.98321,0.04862
5358.05446,0.04859
5356.12572,0.04797
5354.19697,0.04718
5352.26823,0.04711
5350.33948,0.04760
5348.41074,0.04744
5346.48199,0.04703
5344.55325,0.04801
5342.62450,0.04962
5340.69576,0.04996
5338.76701,0.04933
5336.83827,0.04877
5334.90952,0.04850
5332.98077,0.04849
5331.05203,0.04856
5329.12328,0.04862
5327.19454,0.04863
5325.26579,0.04838
5323.33705,0.04801
5321.40830,0.04801
5319.47956,0.04841
5317.55081,0.04850
5315.62207,0.04812
5313.69332,0.04807
5311.76458,0.04879
5309.83583,0.04963
5307.90709,0.04989
5305.97834,0.04970
5304.04959,0.04961
5302.12085,0.04944
5300.19210,0.04848
5298.26336,0.04751
5296.33461,0.04744
5294.40587,0.04746
5292.47712,0.04758
5290.54838,0.04812
5288.61963,0.04822
5286.69089,0.04794
5284.76214,0.04781
5282.83340,0.04763
5280.90465,0.04775
5278.97591,0.04847
5277.04716,0.04890
5275.11842,0.04828
5273.18967,0.04736
5271.26092,0.04730
5269.33218,0.04818
5267.40343,0.04910
5265.47469,0.04937
5263.54594,0.04939
5261.61720,0.04948
5259.68845,0.04907
5257.75971,0.04854
5255.83096,0.04894
5253.90222,0.04984
5251.97347,0.05034
5250.04473,0.05015
5248.11598,0.04928
5246.18724,0.04833
5244.25849,0.04816
5242.32975,0.04876
5240.40100,0.04903
5238.47225,0.04836
5236.54351,0.04759
5234.61476,0.04758
5232.68602,0.04827
5230.75727,0.04923
5228.82853,0.04970
5226.89978,0.04925
5224.97104,0.04861
5223.04229,0.04865
5221.11355,0.04911
5219.18480,0.04904
5217.25606,0.04861
5215.32731,0.04875
5213.39857,0.04896
5211.46982,0.04827
5209.54107,0.04714
5207.61233,0.04642
5205.68358,0.04645
5203.75484,0.04726
5201.82609,0.04831
5199.89735,0.04882
5197.96860,0.04877
5196.03986,0.04896
5194.11111,0.04955
5192.18237,0.04976
5190.25362,0.04951
5188.32488,0.04922
5186.39613,0.04933
5184.46739,0.04982
5182.53864,0.04988
5180.60990,0.04912
5178.68115,0.04803
5176.75240,0.04757
5174.82366,0.04791
5172.89491,0.04789
5170.96617,0.04766
5169.03742,0.04812
5167.10868,0.04850
5165.17993,0.04821
5163.25119,0.04820
5161.32244,0.04873
5159.39370,0.04870
5157.46495,0.04805
5155.53621,0.04787
5153.60746,0.04841
5151.67872,0.04904
5149.74997,0.04934
5147.82123,0.04931
5145.89248,0.04889
5143.96373,0.04817
5142.03499,0.04728
5140.10624,0.04649
5138.17750,0.04650
5136.24875,0.04745
5134.32001,0.04848
5132.39126,0.04874
5130.46252,0.04830
5128.53377,0.04774
5126.60503,0.04745
5124.67628,0.04768
5122.74754,0.04835
5120.81879,0.04881
5118.89005,0.04878
5116.96130,0.04866
5115.03255,0.04886
5113.10381,0.04931
5111.17506,0.04939
5109.24632,0.04892
5107.31757,0.04867
5105.38883,0.04893
5103.46008,0.04921
5101.53134,0.04931
5099.60259,0.04924
5097.67385,0.04893
5095.74510,0.04851
5093.81636,0.04862
5091.88761,0.04955
5089.95887,0.05011
5088.03012,0.04973
5086.10138,0.04952
5084.17263,0.04984
5082.24388,0.04984
5080.31514,0.04940
5078.38639,0.04917
5076.45765,0.04920
5074.52890,0.04924
5072.60016,0.04930
5070.67141,0.04928
5068.74267,0.04920
5066.81392,0.04921
5064.88518,0.04928
5062.95643,0.04913
5061.02769,0.04868
5059.09894,0.04837
5057.17020,0.04838
5055.24145,0.04839
5053.31270,0.04825
5051.38396,0.04785
5049.45521,0.04757
5047.52647,0.04821
5045.59772,0.04948
5043.66898,0.05039
5041.74023,0.05068
5039.81149,0.05050
5037.88274,0.05000
5035.95400,0.04942
5034.02525,0.04905
5032.09651,0.04906
5030.16776,0.04903
5028.23902,0.04870
5026.31027,0.04838
5024.38153,0.04820
5022.45278,0.04844
5020.52403,0.04927
5018.59529,0.04996
5016.66654,0.04955
5014.73780,0.04843
5012.80905,0.04795
5010.88031,0.04833
5008.95156,0.04886
5007.02282,0.04900
5005.09407,0.04879
5003.16533,0.04875
5001.23658,0.04904
4999.30784,0.04935
4997.37909,0.04951
4995.45035,0.04963
4993.52160,0.04960
4991.59286,0.04919
4989.66411,0.04864
4987.73536,0.04849
4985.80662,0.04877
4983.87787,0.04908
4981.94913,0.04922
4980.02038,0.04920
4978.09164,0.04887
4976.16289,0.04860
4974.23415,0.04897
4972.30540,0.04967
4970.37666,0.04986
4968.44791,0.04942
4966.51917,0.04869
4964.59042,0.04791
4962.66168,0.04751
4960.73293,0.04785
4958.80418,0.04868
4956.87544,0.04918
4954.94669,0.04884
4953.01795,0.04826
4951.08920,0.04818
4949.16046,0.04847
4947.23171,0.04885
4945.30297,0.04925
4943.37422,0.04944
4941.44548,0.04928
4939.51673,0.04922
4937.58799,0.04953
4935.65924,0.04965
4933.73050,0.04949
4931.80175,0.04946
4929.87301,0.04936
4927.94426,0.04895
4926.01551,0.04849
4924.08677,0.04830
4922.15802,0.04829
4920.22928,0.04848
4918.30053,0.04903
4916.37179,0.04952
4914.44304,0.04930
4912.51430,0.04874
4910.58555,0.04883
4908.65681,0.04933
4906.72806,0.04951
4904.79932,0.04952
4902.87057,0.04956
4900.94183,0.04947
4899.01308,0.04927
4897.08434,0.04884
4895.15559,0.04829
4893.22684,0.04807
4891.29810,0.04818
4889.36935,0.04839
4887.44061,0.04873
4885.51186,0.04904
4883.58312,0.04901
4881.65437,0.04858
4879.72563,0.04823
4877.79688,0.04852
4875.86814,0.04922
4873.93939,0.04960
4872.01065,0.04942
4870.08190,0.04888
4868.15316,0.04863
4866.22441,0.04927
4864.29566,0.05032
4862.36692,0.05081
4860.43817,0.05065
4858.50943,0.05031
4856.58068,0.05012
4854.65194,0.05015
4852.72319,0.05006
4850.79445,0.04961
4848.86570,0.04910
4846.93696,0.04879
4845.00821,0.04883
4843.07947,0.04921
4841.15072,0.04940
4839.22198,0.04927
4837.29323,0.04936
4835.36449,0.04976
4833.43574,0.04996
4831.50699,0.04963
4829.57825,0.04934
4827.64950,0.04980
4825.72076,0.05074
4823.79201,0.05129
4821.86327,0.05093
4819.93452,0.05007
4818.00578,0.04970
4816.07703,0.05001
4814.14829,0.05018
4812.21954,0.04979
4810.29080,0.04970
4808.36205,0.05030
4806.43331,0.05072
4804.50456,0.05053
4802.57582,0.05011
4800.64707,0.04964
4798.71832,0.04932
4796.78958,0.04935
4794.86083,0.04963
4792.93209,0.04993
4791.00334,0.05001
4789.07460,0.04987
4787.14585,0.04978
4785.21711,0.04971
4783.28836,0.04952
4781.35962,0.04954
4779.43087,0.04999
4777.50213,0.05031
4775.57338,0.05027
4773.64464,0.05030
4771.71589,0.05038
4769.78714,0.05016
4767.85840,0.04980
4765.92965,0.04968
4764.00091,0.04986
4762.07216,0.05019
4760.14342,0.05039
4758.21467,0.05016
4756.28593,0.04974
4754.35718,0.04967
4752.42844,0.04983
4750.49969,0.04983
4748.57095,0.04989
4746.64220,0.05003
4744.71346,0.05010
4742.78471,0.05027
4740.85597,0.05047
4738.92722,0.05050
4736.99847,0.05062
4735.06973,0.05061
4733.14098,0.05013
4731.21224,0.04980
4729.28349,0.05006
4727.35475,0.05041
4725.42600,0.05033
4723.49726,0.05014
4721.56851,0.05010
4719.63977,0.05000
4717.71102,0.04990
4715.78228,0.05012
4713.85353,0.05071
4711.92479,0.05089
4709.99604,0.05043
4708.06729,0.05018
4706.13855,0.05032
4704.20980,0.05067
4702.28106,0.05109
4700.35231,0.05096
4698.42357,0.05043
4696.49482,0.05008
4694.56608,0.04998
4692.63733,0.05019
4690.70859,0.05072
4688.77984,0.05104
4686.85110,0.05086
4684.92235,0.05051
4682.99361,0.05045
4681.06486,0.05087
4679.13612,0.05134
4677.20737,0.05143
4675.27862,0.05134
4673.34988,0.05120
4671.42113,0.05091
4669.49239,0.05092
4667.56364,0.05117
4665.63490,0.05077
4663.70615,0.04988
4661.77741,0.04955
4659.84866,0.04981
4657.91992,0.04987
4655.99117,0.04966
4654.06243,0.04963
4652.13368,0.04988
4650.20494,0.05034
4648.27619,0.05079
4646.34745,0.05107
4644.41870,0.05131
4642.48995,0.05129
4640.56121,0.05075
4638.63246,0.05022
4636.70372,0.05028
4634.77497,0.05045
4632.84623,0.05025
4630.91748,0.05018
4628.98874,0.05045
4627.05999,0.05063
4625.13125,0.05046
4623.20250,0.05004
4621.27376,0.04989
4619.34501,0.05007
4617.41627,0.05007
4615.48752,0.05001
4613.55877,0.05026
4611.63003,0.05055
4609.70128,0.05052
4607.77254,0.05022
4605.84379,0.04993
4603.91505,0.04994
4601.98630,0.05025
4600.05756,0.05041
4598.12881,0.05036
4596.20007,0.05042
4594.27132,0.05059
4592.34258,0.05065
4590.41383,0.05034
4588.48509,0.04953
4586.55634,0.04887
4584.62760,0.04911
4582.69885,0.04999
4580.77010,0.05056
4578.84136,0.05053
4576.91261,0.05032
4574.98387,0.05024
4573.05512,0.05028
4571.12638,0.05031
4569.19763,0.05033
4567.26889,0.05047
4565.34014,0.05061
4563.41140,0.05070
4561.48265,0.05091
4559.55391,0.05139
4557.62516,0.05184
4555.69642,0.05169
4553.76767,0.05104
4551.83893,0.05048
4549.91018,0.05018
4547.98143,0.05005
4546.05269,0.05003
4544.12394,0.05029
4542.19520,0.05091
4540.26645,0.05151
4538.33771,0.05152
4536.40896,0.05103
4534.48022,0.05064
4532.55147,0.05040
4530.62273,0.05023
4528.69398,0.05028
4526.76524,0.05038
4524.83649,0.05050
4522.90775,0.05076
4520.97900,0.05083
4519.05025,0.05070
4517.12151,0.05065
4515.19276,0.05067
4513.26402,0.05083
4511.33527,0.05092
4509.40653,0.05059
4507.47778,0.05014
4505.54904,0.05000
4503.62029,0.05015
4501.69155,0.05021
4499.76280,0.05003
4497.83406,0.04988
4495.90531,0.04992
4493.97657,0.04993
4492.04782,0.05005
4490.11908,0.05031
4488.19033,0.05041
4486.26158,0.05042
4484.33284,0.05059
4482.40409,0.05079
4480.47535,0.05084
4478.54660,0.05079
4476.61786,0.05079
4474.68911,0.05094
4472.76037,0.05107
4470.83162,0.05128
4468.90288,0.05179
4466.97413,0.05201
4465.04539,0.05151
4463.11664,0.05105
4461.18790,0.05108
4459.25915,0.05120
4457.33041,0.05113
4455.40166,0.05095
4453.47291,0.05083
4451.54417,0.05081
4449.61542,0.05083
4447.68668,0.05109
4445.75793,0.05157
4443.82919,0.05170
4441.90044,0.05142
4439.97170,0.05137
4438.04295,0.05172
4436.11421,0.05201
4434.18546,0.05194
4432.25672,0.05154
4430.32797,0.05104
4428.39923,0.05074
4426.47048,0.05077
4424.54173,0.05103
4422.61299,0.05131
4420.68424,0.05130
4418.75550,0.05097
4416.82675,0.05081
4414.89801,0.05089
4412.96926,0.05087
4411.04052,0.05067
4409.11177,0.05022
4407.18303,0.04984
4405.25428,0.04994
4403.32554,0.05019
4401.39679,0.05028
4399.46805,0.05049
4397.53930,0.05091
4395.61056,0.05112
4393.68181,0.05103
4391.75306,0.05093
4389.82432,0.05084
4387.89557,0.05086
4385.96683,0.05097
4384.03808,0.05083
4382.10934,0.05053
4380.18059,0.05062
4378.25185,0.05100
4376.32310,0.05106
4374.39436,0.05079
4372.46561,0.05076
4370.53687,0.05102
4368.60812,0.05128
4366.67938,0.05136
4364.75063,0.05108
4362.82189,0.05064
4360.89314,0.05038
4358.96439,0.05049
4357.03565,0.05084
4355.10690,0.05086
4353.17816,0.05049
4351.24941,0.05040
4349.32067,0.05081
4347.39192,0.05146
4345.46318,0.05180
4343.53443,0.05158
4341.60569,0.05122
4339.67694,0.05095
4337.74820,0.05076
4335.81945,0.05070
4333.89071,0.05072
4331.96196,0.05071
4330.03321,0.05063
4328.10447,0.05058
4326.17572,0.05071
4324.24698,0.05081
4322.31823,0.05081
4320.38949,0.05088
4318.46074,0.05081
4316.53200,0.05081
4314.60325,0.05120
4312.67451,0.05143
4310.74576,0.05112
4308.81702,0.05067
4306.88827,0.05055
4304.95953,0.05086
4303.03078,0.05125
4301.10204,0.05151
4299.17329,0.05189
4297.24454,0.05204
4295.31580,0.05144
4293.38705,0.05057
4291.45831,0.05023
4289.52956,0.05033
4287.60082,0.05036
4285.67207,0.05047
4283.74333,0.05093
4281.81458,0.05154
4279.88584,0.05193
4277.95709,0.05203
4276.02835,0.05191
4274.09960,0.05166
4272.17086,0.05145
4270.24211,0.05131
4268.31336,0.05130
4266.38462,0.05146
4264.45587,0.05143
4262.52713,0.05107
4260.59838,0.05083
4258.66964,0.05088
4256.74089,0.05115
4254.81215,0.05152
4252.88340,0.05170
4250.95466,0.05155
4249.02591,0.05125
4247.09717,0.05084
4245.16842,0.05064
4243.23968,0.05104
4241.31093,0.05176
4239.38219,0.05217
4237.45344,0.05196
4235.52469,0.05148
4233.59595,0.05114
4231.66720,0.05114
4229.73846,0.05131
4227.80971,0.05127
4225.88097,0.05112
4223.95222,0.05123
4222.02348,0.05152
4220.09473,0.05164
4218.16599,0.05169
4216.23724,0.05180
4214.30850,0.05160
4212.37975,0.05130
4210.45101,0.05160
4208.52226,0.05210
4206.59352,0.05191
4204.66477,0.05126
4202.73602,0.05101
4200.80728,0.05136
4198.87853,0.05188
4196.94979,0.05214
4195.02104,0.05203
4193.09230,0.05166
4191.16355,0.05116
4189.23481,0.05094
4187.30606,0.05121
4185.37732,0.05171
4183.44857,0.05212
4181.51983,0.05223
4179.59108,0.05214
4177.66234,0.05212
4175.73359,0.05215
4173.80484,0.05229
4171.87610,0.05239
4169.94735,0.05220
4168.01861,0.05202
4166.08986,0.05197
4164.16112,0.05195
4162.23237,0.05209
4160.30363,0.05216
4158.37488,0.05206
4156.44614,0.05216
4154.51739,0.05232
4152.58865,0.05223
4150.65990,0.05205
4148.73116,0.05195
4146.80241,0.05195
4144.87367,0.05208
4142.94492,0.05218
4141.01617,0.05210
4139.08743,0.05217
4137.15868,0.05235
4135.22994,0.05225
4133.30119,0.05208
4131.37245,0.05213
4129.44370,0.05217
4127.51496,0.05209
4125.58621,0.05191
4123.65747,0.05176
4121.72872,0.05181
4119.79998,0.05190
4117.87123,0.05175
4115.94249,0.05158
4114.01374,0.05171
4112.08500,0.05192
4110.15625,0.05207
4108.22750,0.05216
4106.29876,0.05213
4104.37001,0.05200
4102.44127,0.05194
4100.51252,0.05198
4098.58378,0.05186
4096.65503,0.05166
4094.72629,0.05163
4092.79754,0.05167
4090.86880,0.05193
4088.94005,0.05256
4087.01131,0.05302
4085.08256,0.05291
4083.15382,0.05255
4081.22507,0.05231
4079.29632,0.05215
4077.36758,0.05201
4075.43883,0.05192
4073.51009,0.05212
4071.58134,0.05252
4069.65260,0.05267
4067.72385,0.05260
4065.79511,0.05253
4063.86636,0.05248
4061.93762,0.05245
4060.00887,0.05246
4058.08013,0.05252
4056.15138,0.05250
4054.22264,0.05239
4052.29389,0.05243
4050.36515,0.05248
4048.43640,0.05241
4046.50765,0.05246
4044.57891,0.05250
4042.65016,0.05218
4040.72142,0.05190
4038.79267,0.05223
4036.86393,0.05275
4034.93518,0.05285
4033.00644,0.05267
4031.07769,0.05252
4029.14895,0.05244
4027.22020,0.05245
4025.29146,0.05261
4023.36271,0.05274
4021.43397,0.05249
4019.50522,0.05228
4017.57648,0.05250
4015.64773,0.05267
4013.71898,0.05241
4011.79024,0.05203
4009.86149,0.05196
4007.93275,0.05201
4006.00400,0.05205
4004.07526,0.05236
4002.14651,0.05281
4000.21777,0.05297
3998.28902,0.05287
3996.36028,0.05277
3994.43153,0.05253
3992.50279,0.05216
3990.57404,0.05204
3988.64530,0.05218
3986.71655,0.05246
3984.78780,0.05283
3982.85906,0.05303
3980.93031,0.05294
3979.00157,0.05267
3977.07282,0.05242
3975.14408,0.05226
3973.21533,0.05217
3971.28659,0.05209
3969.35784,0.05224
3967.42910,0.05266
3965.50035,0.05291
3963.57161,0.05283
3961.64286,0.05264
3959.71412,0.05244
3957.78537,0.05235
3955.85663,0.05255
3953.92788,0.05287
3951.99913,0.05295
3950.07039,0.05273
3948.14164,0.05256
3946.21290,0.05259
3944.28415,0.05274
3942.35541,0.05292
3940.42666,0.05286
3938.49792,0.05253
3936.56917,0.05237
3934.64043,0.05253
3932.71168,0.05262
3930.78294,0.05250
3928.85419,0.05259
3926.92545,0.05302
3924.99670,0.05333
3923.06795,0.05333
3921.13921,0.05336
3919.21046,0.05359
3917.28172,0.05366
3915.35297,0.05323
3913.42423,0.05265
3911.49548,0.05249
3909.56674,0.05278
3907.63799,0.05316
3905.70925,0.05345
3903.78050,0.05355
3901.85176,0.05352
3899.92301,0.05359
3897.99427,0.05363
3896.06552,0.05333
3894.13678,0.05306
3892.20803,0.05312
3890.27928,0.05323
3888.35054,0.05319
3886.42179,0.05305
3884.49305,0.05295
3882.56430,0.05307
3880.63556,0.05341
3878.70681,0.05364
3876.77807,0.05346
3874.84932,0.05319
3872.92058,0.05321
3870.99183,0.05318
3869.06309,0.05303
3867.13434,0.05318
3865.20560,0.05339
3863.27685,0.05332
3861.34811,0.05328
3859.41936,0.05326
3857.49061,0.05326
3855.56187,0.05359
3853.63312,0.05387
3851.70438,0.05354
3849.77563,0.05316
3847.84689,0.05318
3845.91814,0.05334
3843.98940,0.05333
3842.06065,0.05327
3840.13191,0.05340
3838.20316,0.05376
3836.27442,0.05414
3834.34567,0.05423
3832.41693,0.05388
3830.48818,0.05336
3828.55943,0.05307
3826.63069,0.05296
3824.70194,0.05295
3822.77320,0.05314
3820.84445,0.05327
3818.91571,0.05313
3816.98696,0.05303
3815.05822,0.05301
3813.12947,0.05301
3811.20073,0.05324
3809.27198,0.05357
3807.34324,0.05357
3805.41449,0.05332
3803.48575,0.05320
3801.55700,0.05328
3799.62826,0.05341
3797.69951,0.05352
3795.77076,0.05360
3793.84202,0.05349
3791.91327,0.05324
3789.98453,0.05319
3788.05578,0.05350
3786.12704,0.05379
3784.19829,0.05376
3782.26955,0.05353
3780.34080,0.05336
3778.41206,0.05313
3776.48331,0.05281
3774.55457,0.05261
3772.62582,0.05268
3770.69708,0.05309
3768.76833,0.05362
3766.83959,0.05391
3764.91084,0.05399
3762.98209,0.05401
3761.05335,0.05404
3759.12460,0.05419
3757.19586,0.05439
3755.26711,0.05448
3753.33837,0.05442
3751.40962,0.05428
3749.48088,0.05420
3747.55213,0.05416
3745.62339,0.05406
3743.69464,0.05385
3741.76590,0.05371
3739.83715,0.05382
3737.90841,0.05401
3735.97966,0.05410
3734.05091,0.05416
3732.12217,0.05404
3730.19342,0.05376
3728.26468,0.05360
3726.33593,0.05346
3724.40719,0.05341
3722.47844,0.05358
3720.54970,0.05378
3718.62095,0.05390
3716.69221,0.05394
3714.76346,0.05394
3712.83472,0.05394
3710.90597,0.05391
3708.97723,0.05384
3707.04848,0.05370
3705.11974,0.05348
3703.19099,0.05316
3701.26224,0.05283
3699.33350,0.05262
3697.40475,0.05254
3695.47601,0.05240
3693.54726,0.05222
3691.61852,0.05231
3689.68977,0.05270
3687.76103,0.05312
3685.83228,0.05319
3683.90354,0.05291
3681.97479,0.05282
3680.04605,0.05305
3678.11730,0.05329
3676.18856,0.05335
3674.25981,0.05322
3672.33107,0.05308
3670.40232,0.05308
3668.47357,0.05315
3666.54483,0.05310
3664.61608,0.05295
3662.68734,0.05282
3660.75859,0.05281
3658.82985,0.05293
3656.90110,0.05308
3654.97236,0.05291
3653.04361,0.05227
3651.11487,0.05133
3649.18612,0.05038
3647.25738,0.05015
3645.32863,0.05068
3643.39989,0.05127
3641.47114,0.05166
3639.54239,0.05203
3637.61365,0.05232
3635.68490,0.05229
3633.75616,0.05194
3631.82741,0.05143
3629.89867,0.05074
3627.96992,0.04982
3626.04118,0.04908
3624.11243,0.04875
3622.18369,0.04845
3620.25494,0.04811
3618.32620,0.04821
3616.39745,0.04891
3614.46871,0.04971
3612.53996,0.05017
3610.61122,0.05034
3608.68247,0.05038
3606.75372,0.05059
3604.82498,0.05099
3602.89623,0.05124
3600.96749,0.05142
3599.03874,0.05164
3597.11000,0.05165
3595.18125,0.05151
3593.25251,0.05150
3591.32376,0.05159
3589.39502,0.05173
3587.46627,0.05173
3585.53753,0.05152
3583.60878,0.05137
3581.68004,0.05121
3579.75129,0.05077
3577.82254,0.05036
3575.89380,0.05042
3573.96505,0.05070
3572.03631,0.05091
3570.10756,0.05103
3568.17882,0.05095
3566.25007,0.05069
3564.32133,0.05062
3562.39258,0.05080
3560.46384,0.05092
3558.53509,0.05091
3556.60635,0.05081
3554.67760,0.05039
3552.74886,0.04974
3550.82011,0.04926
3548.89137,0.04897
3546.96262,0.04882
3545.03387,0.04883
3543.10513,0.04882
3541.17638,0.04871
3539.24764,0.04851
3537.31889,0.04818
3535.39015,0.04752
3533.46140,0.04622
3531.53266,0.04462
3529.60391,0.04350
3527.67517,0.04298
3525.74642,0.04283
3523.81768,0.04303
3521.88893,0.04327
3519.96019,0.04328
3518.03144,0.04327
3516.10270,0.04336
3514.17395,0.04350
3512.24520,0.04368
3510.31646,0.04392
3508.38771,0.04430
3506.45897,0.04480
3504.53022,0.04521
3502.60148,0.04553
3500.67273,0.04579
3498.74399,0.04593
3496.81524,0.04599
3494.88650,0.04596
3492.95775,0.04578
3491.02901,0.04542
3489.10026,0.04492
3487.17152,0.04465
3485.24277,0.04477
3483.31402,0.04488
3481.38528,0.04493
3479.45653,0.04498
3477.52779,0.04480
3475.59904,0.04447
3473.67030,0.04417
3471.74155,0.04381
3469.81281,0.04345
3467.88406,0.04308
3465.95532,0.04274
3464.02657,0.04260
3462.09783,0.04257
3460.16908,0.04239
3458.24034,0.04217
3456.31159,0.04187
3454.38285,0.04157
3452.45410,0.04164
3450.52535,0.04182
3448.59661,0.04168
3446.66786,0.04152
3444.73912,0.04154
3442.81037,0.04151
3440.88163,0.04143
3438.95288,0.04139
3437.02414,0.04132
3435.09539,0.04110
3433.16665,0.04090
3431.23790,0.04093
3429.30916,0.04090
3427.38041,0.04064
3425.45167,0.04043
3423.52292,0.04029
3421.59418,0.03996
3419.66543,0.03966
3417.73668,0.03988
3415.80794,0.04048
3413.87919,0.04081
3411.95045,0.04069
3410.02170,0.04044
3408.09296,0.04016
3406.16421,0.03990
3404.23547,0.03972
3402.30672,0.03962
3400.37798,0.03945
3398.44923,0.03922
3396.52049,0.03919
3394.59174,0.03940
3392.66300,0.03959
3390.73425,0.03976
3388.80550,0.04009
3386.87676,0.04047
3384.94801,0.04064
3383.01927,0.04060
3381.09052,0.04061
3379.16178,0.04069
3377.23303,0.04085
3375.30429,0.04132
3373.37554,0.04193
3371.44680,0.04220
3369.51805,0.04220
3367.58931,0.04221
3365.66056,0.04236
3363.73182,0.04278
3361.80307,0.04312
3359.87433,0.04297
3357.94558,0.04268
3356.01683,0.04282
3354.08809,0.04323
3352.15934,0.04359
3350.23060,0.04386
3348.30185,0.04385
3346.37311,0.04361
3344.44436,0.04342
3342.51562,0.04328
3340.58687,0.04311
3338.65813,0.04302
3336.72938,0.04313
3334.80064,0.04349
3332.87189,0.04370
3330.94315,0.04349
3329.01440,0.04336
3327.08566,0.04346
3325.15691,0.04331
3323.22816,0.04297
3321.29942,0.04284
3319.37067,0.04285
3317.44193,0.04270
3315.51318,0.04244
3313.58444,0.04231
3311.65569,0.04254
3309.72695,0.04299
3307.79820,0.04336
3305.86946,0.04371
3303.94071,0.04391
3302.01197,0.04378
3300.08322,0.04366
3298.15448,0.04362
3296.22573,0.04336
3294.29698,0.04299
3292.36824,0.04278
3290.43949,0.04276
3288.51075,0.04297
3286.58200,0.04347
3284.65326,0.04392
3282.72451,0.04401
3280.79577,0.04395
3278.86702,0.04390
3276.93828,0.04387
3275.00953,0.04397
3273.08079,0.04401
3271.15204,0.04394
3269.22330,0.04426
3267.29455,0.04496
3265.36581,0.04534
3263.43706,0.04500
3261.50831,0.04445
3259.57957,0.04432
3257.65082,0.04417
3255.72208,0.04372
3253.79333,0.04356
3251.86459,0.04370
3249.93584,0.04392
3248.00710,0.04424
3246.07835,0.04443
3244.14961,0.04432
3242.22086,0.04403
3240.29212,0.04363
3238.36337,0.04333
3236.43463,0.04332
3234.50588,0.04333
3232.57713,0.04318
3230.64839,0.04290
3228.71964,0.04251
3226.79090,0.04233
3224.86215,0.04258
3222.93341,0.04298
3221.00466,0.04309
3219.07592,0.04275
3217.14717,0.04228
3215.21843,0.04222
3213.28968,0.04232
3211.36094,0.04219
3209.43219,0.04215
3207.50345,0.04227
3205.57470,0.04212
3203.64596,0.04169
3201.71721,0.04140
3199.78846,0.04152
3197.85972,0.04193
3195.93097,0.04232
3194.00223,0.04256
3192.07348,0.04285
3190.14474,0.04332
3188.21599,0.04369
3186.28725,0.04374
3184.35850,0.04386
3182.42976,0.04436
3180.50101,0.04479
3178.57227,0.04488
3176.64352,0.04488
3174.71478,0.04493
3172.78603,0.04507
3170.85729,0.04528
3168.92854,0.04537
3166.99979,0.04518
3165.07105,0.04487
3163.14230,0.04474
3161.21356,0.04494
3159.28481,0.04519
3157.35607,0.04527
3155.42732,0.04557
3153.49858,0.04610
3151.56983,0.04622
3149.64109,0.04583
3147.71234,0.04543
3145.78360,0.04539
3143.85485,0.04563
3141.92611,0.04575
3139.99736,0.04571
3138.06861,0.04576
3136.13987,0.04578
3134.21112,0.04562
3132.28238,0.04534
3130.35363,0.04510
3128.42489,0.04504
3126.49614,0.04518
3124.56740,0.04543
3122.63865,0.04565
3120.70991,0.04576
3118.78116,0.04580
3116.85242,0.04575
3114.92367,0.04582
3112.99493,0.04621
3111.06618,0.04665
3109.13744,0.04685
3107.20869,0.04686
3105.27994,0.04673
3103.35120,0.04656
3101.42245,0.04640
3099.49371,0.04617
3097.56496,0.04611
3095.63622,0.04639
3093.70747,0.04666
3091.77873,0.04660
3089.84998,0.04634
3087.92124,0.04625
3085.99249,0.04641
3084.06375,0.04638
3082.13500,0.04606
3080.20626,0.04597
3078.27751,0.04625
3076.34877,0.04642
3074.42002,0.04624
3072.49127,0.04598
3070.56253,0.04591
3068.63378,0.04603
3066.70504,0.04614
3064.77629,0.04618
3062.84755,0.04622
3060.91880,0.04626
3058.99006,0.04625
3057.06131,0.04623
3055.13257,0.04634
3053.20382,0.04638
3051.27508,0.04622
3049.34633,0.04620
3047.41759,0.04648
3045.48884,0.04680
3043.56009,0.04701
3041.63135,0.04709
3039.70260,0.04707
3037.77386,0.04704
3035.84511,0.04707
3033.91637,0.04710
3031.98762,0.04693
3030.05888,0.04664
3028.13013,0.04664
3026.20139,0.04693
3024.27264,0.04706
3022.34390,0.04686
3020.41515,0.04670
3018.48641,0.04665
3016.55766,0.04646
3014.62892,0.04634
3012.70017,0.04657
3010.77142,0.04685
3008.84268,0.04688
3006.91393,0.04689
3004.98519,0.04686
3003.05644,0.04658
3001.12770,0.04633
2999.19895,0.04635
2997.27021,0.04642
2995.34146,0.04635
2993.41272,0.04620
2991.48397,0.04599
2989.55523,0.04580
2987.62648,0.04571
2985.69774,0.04552
2983.76899,0.04511
2981.84025,0.04469
2979.91150,0.04443
2977.98275,0.04447
2976.05401,0.04476
2974.12526,0.04492
2972.19652,0.04460
2970.26777,0.04397
2968.33903,0.04348
2966.41028,0.04317
2964.48154,0.04287
2962.55279,0.04246
2960.62405,0.04203
2958.69530,0.04185
2956.76656,0.04201
2954.83781,0.04209
2952.90907,0.04188
2950.98032,0.04148
2949.05157,0.04112
2947.12283,0.04102
2945.19408,0.04106
2943.26534,0.04107
2941.33659,0.04103
2939.40785,0.04094
2937.47910,0.04094
2935.55036,0.04109
2933.62161,0.04129
2931.69287,0.04150
2929.76412,0.04174
2927.83538,0.04217
2925.90663,0.04306
2923.97789,0.04407
2922.04914,0.04485
2920.12040,0.04591
2918.19165,0.04738
2916.26290,0.04849
2914.33416,0.04851
2912.40541,0.04753
2910.47667,0.04638
2908.54792,0.04578
2906.61918,0.04572
2904.69043,0.04584
2902.76169,0.04586
2900.83294,0.04584
2898.90420,0.04590
2896.97545,0.04603
2895.04671,0.04615
2893.11796,0.04647
2891.18922,0.04694
2889.26047,0.04732
2887.33172,0.04757
2885.40298,0.04766
2883.47423,0.04753
2881.54549,0.04741
2879.61674,0.04737
2877.68800,0.04725
2875.75925,0.04707
2873.83051,0.04697
2871.90176,0.04695
2869.97302,0.04703
2868.04427,0.04716
2866.11553,0.04711
2864.18678,0.04678
2862.25804,0.04633
2860.32929,0.04598
2858.40055,0.04586
2856.47180,0.04603
2854.54305,0.04657
2852.61431,0.04754
2850.68556,0.04879
2848.75682,0.04978
2846.82807,0.05008
2844.89933,0.04986
2842.97058,0.04966
2841.04184,0.04981
2839.11309,0.05016
2837.18435,0.05053
2835.25560,0.05089
2833.32686,0.05130
2831.39811,0.05173
2829.46937,0.05207
2827.54062,0.05223
2825.61188,0.05222
2823.68313,0.05225
2821.75438,0.05242
2819.82564,0.05257
2817.89689,0.05272
2815.96815,0.05292
2814.03940,0.05315
2812.11066,0.05341
2810.18191,0.05353
2808.25317,0.05343
2806.32442,0.05334
2804.39568,0.05348
2802.46693,0.05373
2800.53819,0.05377
2798.60944,0.05363
2796.68070,0.05363
2794.75195,0.05377
2792.82320,0.05379
2790.89446,0.05375
2788.96571,0.05391
2787.03697,0.05416
2785.10822,0.05417
2783.17948,0.05408
2781.25073,0.05418
2779.32199,0.05433
2777.39324,0.05428
2775.46450,0.05410
2773.53575,0.05402
2771.60701,0.05412
2769.67826,0.05438
2767.74952,0.05463
2765.82077,0.05477
2763.89203,0.05482
2761.96328,0.05484
2760.03453,0.05483
2758.10579,0.05477
2756.17704,0.05475
2754.24830,0.05481
2752.31955,0.05484
2750.39081,0.05482
2748.46206,0.05486
2746.53332,0.05501
2744.60457,0.05523
2742.67583,0.05535
2740.74708,0.05529
2738.81834,0.05519
2736.88959,0.05518
2734.96085,0.05524
2733.03210,0.05544
2731.10336,0.05560
2729.17461,0.05552
2727.24586,0.05541
2725.31712,0.05554
2723.38837,0.05576
2721.45963,0.05578
2719.53088,0.05566
2717.60214,0.05562
2715.67339,0.05568
2713.74465,0.05572
2711.81590,0.05568
2709.88716,0.05558
2707.95841,0.05556
2706.02967,0.05579
2704.10092,0.05604
2702.17218,0.05592
2700.24343,0.05559
2698.31468,0.05562
2696.38594,0.05598
2694.45719,0.05623
2692.52845,0.05620
2690.59970,0.05608
2688.67096,0.05608
2686.74221,0.05623
2684.81347,0.05631
2682.88472,0.05640
2680.95598,0.05669
2679.02723,0.05690
2677.09849,0.05674
2675.16974,0.05651
2673.24100,0.05659
2671.31225,0.05670
2669.38351,0.05657
2667.45476,0.05650
2665.52601,0.05658
2663.59727,0.05659
2661.66852,0.05648
2659.73978,0.05639
2657.81103,0.05638
2655.88229,0.05634
2653.95354,0.05638
2652.02480,0.05654
2650.09605,0.05666
2648.16731,0.05666
2646.23856,0.05658
2644.30982,0.05652
2642.38107,0.05664
2640.45233,0.05681
2638.52358,0.05688
2636.59484,0.05700
2634.66609,0.05710
2632.73734,0.05699
2630.80860,0.05683
2628.87985,0.05675
2626.95111,0.05662
2625.02236,0.05651
2623.09362,0.05659
2621.16487,0.05668
2619.23613,0.05657
2617.30738,0.05645
2615.37864,0.05654
2613.44989,0.05663
2611.52115,0.05662
2609.59240,0.05666
2607.66366,0.05671
2605.73491,0.05672
2603.80616,0.05674
2601.87742,0.05678
2599.94867,0.05682
2598.01993,0.05686
2596.09118,0.05685
2594.16244,0.05681
2592.23369,0.05673
2590.30495,0.05664
2588.37620,0.05656
2586.44746,0.05653
2584.51871,0.05661
2582.58997,0.05664
2580.66122,0.05653
2578.73248,0.05652
2576.80373,0.05673
2574.87499,0.05689
2572.94624,0.05687
2571.01749,0.05692
2569.08875,0.05713
2567.16000,0.05716
2565.23126,0.05692
2563.30251,0.05669
2561.37377,0.05671
2559.44502,0.05691
2557.51628,0.05701
2555.58753,0.05694
2553.65879,0.05690
2551.73004,0.05698
2549.80130,0.05714
2547.87255,0.05716
2545.94381,0.05699
2544.01506,0.05698
2542.08631,0.05727
2540.15757,0.05739
2538.22882,0.05716
2536.30008,0.05700
2534.37133,0.05706
2532.44259,0.05709
2530.51384,0.05697
2528.58510,0.05679
2526.65635,0.05671
2524.72761,0.05668
2522.79886,0.05654
2520.87012,0.05641
2518.94137,0.05640
2517.01263,0.05648
2515.08388,0.05654
2513.15514,0.05654
2511.22639,0.05655
2509.29764,0.05676
2507.36890,0.05718
2505.44015,0.05748
2503.51141,0.05752
2501.58266,0.05752
2499.65392,0.05765
2497.72517,0.05785
2495.79643,0.05796
2493.86768,0.05786
2491.93894,0.05772
2490.01019,0.05780
2488.08145,0.05801
2486.15270,0.05821
2484.22396,0.05843
2482.29521,0.05869
2480.36647,0.05890
2478.43772,0.05902
2476.50897,0.05902
2474.58023,0.05883
2472.65148,0.05856
2470.72274,0.05850
2468.79399,0.05870
2466.86525,0.05888
2464.93650,0.05896
2463.00776,0.05912
2461.07901,0.05928
2459.15027,0.05925
2457.22152,0.05923
2455.29278,0.05931
2453.36403,0.05932
2451.43529,0.05935
2449.50654,0.05948
2447.57779,0.05951
2445.64905,0.05940
2443.72030,0.05929
2441.79156,0.05928
2439.86281,0.05942
2437.93407,0.05962
2436.00532,0.05973
2434.07658,0.05979
2432.14783,0.05982
2430.21909,0.05980
2428.29034,0.05977
2426.36160,0.05973
2424.43285,0.05965
2422.50411,0.05949
2420.57536,0.05933
2418.64662,0.05942
2416.71787,0.05981
2414.78912,0.06001
2412.86038,0.05980
2410.93163,0.05958
2409.00289,0.05953
2407.07414,0.05951
2405.14540,0.05949
2403.21665,0.05953
2401.28791,0.05962
2399.35916,0.05968
2397.43042,0.05965
2395.50167,0.05970
2393.57293,0.05988
2391.64418,0.05996
2389.71544,0.05990
2387.78669,0.05995
2385.85795,0.06020
2383.92920,0.06038
2382.00045,0.06032
2380.07171,0.06022
2378.14296,0.06031
2376.21422,0.06035
2374.28547,0.06028
2372.35673,0.06036
2370.42798,0.06065
2368.49924,0.06086
2366.57049,0.06091
2364.64175,0.06089
2362.71300,0.06084
2360.78426,0.06071
2358.85551,0.06055
2356.92677,0.06047
2354.99802,0.06044
2353.06927,0.06048
2351.14053,0.06074
2349.21178,0.06099
2347.28304,0.06090
2345.35429,0.06071
2343.42555,0.06069
2341.49680,0.06072
2339.56806,0.06066
2337.63931,0.06062
2335.71057,0.06066
2333.78182,0.06065
2331.85308,0.06055
2329.92433,0.06055
2327.99559,0.06074
2326.06684,0.06086
2324.13810,0.06069
2322.20935,0.06047
2320.28060,0.06045
2318.35186,0.06050
2316.42311,0.06058
2314.49437,0.06071
2312.56562,0.06083
2310.63688,0.06085
2308.70813,0.06076
2306.77939,0.06058
2304.85064,0.06050
2302.92190,0.06057
2300.99315,0.06056
2299.06441,0.06036
2297.13566,0.06018
2295.20692,0.06019
2293.27817,0.06038
2291.34943,0.06062
2289.42068,0.06079
2287.49193,0.06084
2285.56319,0.06070
2283.63444,0.06039
2281.70570,0.06013
2279.77695,0.06009
2277.84821,0.06025
2275.91946,0.06045
2273.99072,0.06054
2272.06197,0.06049
2270.13323,0.06046
2268.20448,0.06054
2266.27574,0.06070
2264.34699,0.06086
2262.41825,0.06087
2260.48950,0.06067
2258.56075,0.06050
2256.63201,0.06048
2254.70326,0.06033
2252.77452,0.05995
2250.84577,0.05968
2248.91703,0.05966
2246.98828,0.05969
2245.05954,0.05965
2243.13079,0.05946
2241.20205,0.05914
2239.27330,0.05884
2237.34456,0.05870
2235.41581,0.05876
2233.48707,0.05908
2231.55832,0.05958
2229.62958,0.06005
2227.70083,0.06030
2225.77208,0.06043
2223.84334,0.06057
2221.91459,0.06062
2219.98585,0.06051
2218.05710,0.06051
2216.12836,0.06068
2214.19961,0.06078
2212.27087,0.06072
2210.34212,0.06064
2208.41338,0.06056
2206.48463,0.06043
2204.55589,0.06035
2202.62714,0.06039
2200.69840,0.06050
2198.76965,0.06071
2196.84090,0.06088
2194.91216,0.06085
2192.98341,0.06070
2191.05467,0.06065
2189.12592,0.06089
2187.19718,0.06133
2185.26843,0.06148
2183.33969,0.06121
2181.41094,0.06106
2179.48220,0.06120
2177.55345,0.06138
2175.62471,0.06138
2173.69596,0.06124
2171.76722,0.06114
2169.83847,0.06112
2167.90973,0.06115
2165.98098,0.06128
2164.05223,0.06149
2162.12349,0.06162
2160.19474,0.06165
2158.26600,0.06166
2156.33725,0.06174
2154.40851,0.06179
2152.47976,0.06170
2150.55102,0.06158
2148.62227,0.06152
2146.69353,0.06152
2144.76478,0.06161
2142.83604,0.06170
2140.90729,0.06165
2138.97855,0.06153
2137.04980,0.06157
2135.12106,0.06170
2133.19231,0.06169
2131.26356,0.06158
2129.33482,0.06148
2127.40607,0.06147
2125.47733,0.06155
2123.54858,0.06169
2121.61984,0.06187
2119.69109,0.06189
2117.76235,0.06176
2115.83360,0.06164
2113.90486,0.06152
2111.97611,0.06141
2110.04737,0.06145
2108.11862,0.06156
2106.18988,0.06163
2104.26113,0.06168
2102.33238,0.06174
2100.40364,0.06180
2098.47489,0.06182
2096.54615,0.06178
2094.61740,0.06177
2092.68866,0.06185
2090.75991,0.06185
2088.83117,0.06170
2086.90242,0.06155
2084.97368,0.06164
2083.04493,0.06185
2081.11619,0.06190
2079.18744,0.06178
2077.25870,0.06160
2075.32995,0.06144
2073.40121,0.06148
2071.47246,0.06169
2069.54371,0.06185
2067.61497,0.06194
2065.68622,0.06208
2063.75748,0.06216
2061.82873,0.06208
2059.89999,0.06192
2057.97124,0.06185
2056.04250,0.06180
2054.11375,0.06167
2052.18501,0.06164
2050.25626,0.06186
2048.32752,0.06211
2046.39877,0.06215
2044.47003,0.06205
2042.54128,0.06196
2040.61254,0.06195
2038.68379,0.06202
2036.75504,0.06210
2034.82630,0.06215
2032.89755,0.06223
2030.96881,0.06228
2029.04006,0.06224
2027.11132,0.06225
2025.18257,0.06242
2023.25383,0.06260
2021.32508,0.06256
2019.39634,0.06223
2017.46759,0.06189
2015.53885,0.06179
2013.61010,0.06180
2011.68136,0.06173
2009.75261,0.06170
2007.82386,0.06186
2005.89512,0.06203
2003.96637,0.06216
2002.03763,0.06224
2000.10888,0.06223
1998.18014,0.06225
1996.25139,0.06243
1994.32265,0.06254
1992.39390,0.06238
1990.46516,0.06213
1988.53641,0.06204
1986.60767,0.06201
1984.67892,0.06194
1982.75018,0.06188
1980.82143,0.06190
1978.89269,0.06203
1976.96394,0.06228
1975.03519,0.06242
1973.10645,0.06226
1971.17770,0.06203
1969.24896,0.06199
1967.32021,0.06201
1965.39147,0.06206
1963.46272,0.06221
1961.53398,0.06238
1959.60523,0.06247
1957.67649,0.06258
1955.74774,0.06269
1953.81900,0.06261
1951.89025,0.06245
1949.96151,0.06241
1948.03276,0.06240
1946.10402,0.06237
1944.17527,0.06246
1942.24652,0.06249
1940.31778,0.06238
1938.38903,0.06228
1936.46029,0.06217
1934.53154,0.06201
1932.60280,0.06202
1930.67405,0.06228
1928.74531,0.06255
1926.81656,0.06267
1924.88782,0.06271
1922.95907,0.06267
1921.03033,0.06250
1919.10158,0.06231
1917.17284,0.06226
1915.24409,0.06237
1913.31534,0.06252
1911.38660,0.06260
1909.45785,0.06261
1907.52911,0.06259
1905.60036,0.06254
1903.67162,0.06253
1901.74287,0.06253
1899.81413,0.06246
1897.88538,0.06230
1895.95664,0.06215
1894.02789,0.06214
1892.09915,0.06220
1890.17040,0.06220
1888.24166,0.06218
1886.31291,0.06218
1884.38417,0.06211
1882.45542,0.06211
1880.52667,0.06224
1878.59793,0.06229
1876.66918,0.06209
1874.74044,0.06174
1872.81169,0.06153
1870.88295,0.06153
1868.95420,0.06160
1867.02546,0.06162
1865.09671,0.06161
1863.16797,0.06156
1861.23922,0.06148
1859.31048,0.06139
1857.38173,0.06130
1855.45299,0.06126
1853.52424,0.06126
1851.59549,0.06122
1849.66675,0.06120
1847.73800,0.06121
1845.80926,0.06121
1843.88051,0.06118
1841.95177,0.06106
1840.02302,0.06085
1838.09428,0.06070
1836.16553,0.06066
1834.23679,0.06065
1832.30804,0.06060
1830.37930,0.06051
1828.45055,0.06040
1826.52181,0.06028
1824.59306,0.06018
1822.66432,0.06013
1820.73557,0.06003
1818.80682,0.05983
1816.87808,0.05970
1814.94933,0.05974
1813.02059,0.05980
1811.09184,0.05978
1809.16310,0.05965
1807.23435,0.05939
1805.30561,0.05900
1803.37686,0.05855
1801.44812,0.05811
1799.51937,0.05761
1797.59063,0.05715
1795.66188,0.05700
1793.73314,0.05715
1791.80439,0.05737
1789.87565,0.05757
1787.94690,0.05774
1786.01815,0.05789
1784.08941,0.05800
1782.16066,0.05798
1780.23192,0.05784
1778.30317,0.05773
1776.37443,0.05777
1774.44568,0.05790
1772.51694,0.05790
1770.58819,0.05772
1768.65945,0.05755
1766.73070,0.05733
1764.80196,0.05699
1762.87321,0.05663
1760.94447,0.05618
1759.01572,0.05543
1757.08697,0.05455
1755.15823,0.05387
1753.22948,0.05337
1751.30074,0.05279
1749.37199,0.05200
1747.44325,0.05094
1745.51450,0.04974
1743.58576,0.04871
1741.65701,0.04784
1739.72827,0.04691
1737.79952,0.04599
1735.87078,0.04526
1733.94203,0.04459
1732.01329,0.04399
1730.08454,0.04346
1728.15580,0.04289
1726.22705,0.04232
1724.29830,0.04191
1722.36956,0.04152
1720.44081,0.04102
1718.51207,0.04061
1716.58332,0.04048
1714.65458,0.04043
1712.72583,0.04027
1710.79709,0.04001
1708.86834,0.03978
1706.93960,0.03958
1705.01085,0.03926
1703.08211,0.03880
1701.15336,0.03827
1699.22462,0.03781
1697.29587,0.03754
1695.36713,0.03744
1693.43838,0.03765
1691.50963,0.03837
1689.58089,0.03934
1687.65214,0.04029
1685.72340,0.04140
1683.79465,0.04256
1681.86591,0.04330
1679.93716,0.04387
1678.00842,0.04459
1676.07967,0.04516
1674.15093,0.04531
1672.22218,0.04527
1670.29344,0.04510
1668.36469,0.04469
1666.43595,0.04445
1664.50720,0.04477
1662.57845,0.04535
1660.64971,0.04587
1658.72096,0.04649
1656.79222,0.04731
1654.86347,0.04814
1652.93473,0.04852
1651.00598,0.04844
1649.07724,0.04843
1647.14849,0.04850
1645.21975,0.04839
1643.29100,0.04824
1641.36226,0.04813
1639.43351,0.04803
1637.50477,0.04807
1635.57602,0.04812
1633.64728,0.04789
1631.71853,0.04750
1629.78978,0.04706
1627.86104,0.04660
1625.93229,0.04626
1624.00355,0.04603
1622.07480,0.04574
1620.14606,0.04546
1618.21731,0.04534
1616.28857,0.04519
1614.35982,0.04475
1612.43108,0.04406
1610.50233,0.04314
1608.57359,0.04220
1606.64484,0.04159
1604.71610,0.04143
1602.78735,0.04159
1600.85861,0.04211
1598.92986,0.04301
1597.00111,0.04395
1595.07237,0.04469
1593.14362,0.04521
1591.21488,0.04557
1589.28613,0.04598
1587.35739,0.04656
1585.42864,0.04713
1583.49990,0.04757
1581.57115,0.04788
1579.64241,0.04803
1577.71366,0.04817
1575.78492,0.04833
1573.85617,0.04836
1571.92743,0.04833
1569.99868,0.04820
1568.06993,0.04788
1566.14119,0.04752
1564.21244,0.04723
1562.28370,0.04702
1560.35495,0.04680
1558.42621,0.04618
1556.49746,0.04518
1554.56872,0.04425
1552.63997,0.04344
1550.71123,0.04279
1548.78248,0.04241
1546.85374,0.04229
1544.92499,0.04233
1542.99625,0.04241
1541.06750,0.04248
1539.13876,0.04255
1537.21001,0.04260
1535.28126,0.04276
1533.35252,0.04298
1531.42377,0.04298
1529.49503,0.04276
1527.56628,0.04247
1525.63754,0.04219
1523.70879,0.04201
1521.78005,0.04170
1519.85130,0.04117
1517.92256,0.04078
1515.99381,0.04066
1514.06507,0.04063
1512.13632,0.04074
1510.20758,0.04115
1508.27883,0.04191
1506.35008,0.04292
1504.42134,0.04375
1502.49259,0.04424
1500.56385,0.04453
1498.63510,0.04473
1496.70636,0.04477
1494.77761,0.04451
1492.84887,0.04425
1490.92012,0.04429
1488.99138,0.04442
1487.06263,0.04449
1485.13389,0.04472
1483.20514,0.04530
1481.27640,0.04616
1479.34765,0.04716
1477.41891,0.04822
1475.49016,0.04905
1473.56141,0.04913
1471.63267,0.04836
1469.70392,0.04746
1467.77518,0.04696
1465.84643,0.04679
1463.91769,0.04672
1461.98894,0.04657
1460.06020,0.04630
1458.13145,0.04595
1456.20271,0.04555
1454.27396,0.04509
1452.34522,0.04477
1450.41647,0.04474
1448.48773,0.04500
1446.55898,0.04559
1444.63024,0.04647
1442.70149,0.04754
1440.77274,0.04872
1438.84400,0.04985
1436.91525,0.05053
1434.98651,0.05059
1433.05776,0.05057
1431.12902,0.05089
1429.20027,0.05136
1427.27153,0.05184
1425.34278,0.05252
1423.41404,0.05349
1421.48529,0.05475
1419.55655,0.05622
1417.62780,0.05757
1415.69906,0.05856
1413.77031,0.05932
1411.84156,0.05994
1409.91282,0.06026
1407.98407,0.06019
1406.05533,0.05988
1404.12658,0.05960
1402.19784,0.05950
1400.26909,0.05962
1398.34035,0.05995
1396.41160,0.06043
1394.48286,0.06078
1392.55411,0.06089
1390.62537,0.06100
1388.69662,0.06127
1386.76788,0.06154
1384.83913,0.06166
1382.91039,0.06168
1380.98164,0.06170
1379.05289,0.06179
1377.12415,0.06194
1375.19540,0.06209
1373.26666,0.06223
1371.33791,0.06227
1369.40917,0.06222
1367.48042,0.06224
1365.55168,0.06234
1363.62293,0.06248
1361.69419,0.06266
1359.76544,0.06286
1357.83670,0.06320
1355.90795,0.06370
1353.97921,0.06421
1352.05046,0.06468
1350.12172,0.06514
1348.19297,0.06549
1346.26422,0.06578
1344.33548,0.06601
1342.40673,0.06609
1340.47799,0.06609
1338.54924,0.06615
1336.62050,0.06628
1334.69175,0.06634
1332.76301,0.06632
1330.83426,0.06624
1328.90552,0.06618
1326.97677,0.06609
1325.04803,0.06592
1323.11928,0.06575
1321.19054,0.06571
1319.26179,0.06575
1317.33304,0.06573
1315.40430,0.06566
1313.47555,0.06571
1311.54681,0.06583
1309.61806,0.06590
1307.68932,0.06592
1305.76057,0.06593
1303.83183,0.06588
1301.90308,0.06576
1299.97434,0.06568
1298.04559,0.06556
1296.11685,0.06537
1294.18810,0.06527
1292.25936,0.06517
1290.33061,0.06504
1288.40187,0.06498
1286.47312,0.06494
1284.54437,0.06475
1282.61563,0.06450
1280.68688,0.06437
1278.75814,0.06436
1276.82939,0.06418
1274.90065,0.06374
1272.97190,0.06335
1271.04316,0.06320
1269.11441,0.06318
1267.18567,0.06314
1265.25692,0.06302
1263.32818,0.06274
1261.39943,0.06239
1259.47069,0.06207
1257.54194,0.06179
1255.61320,0.06165
1253.68445,0.06162
1251.75570,0.06168
1249.82696,0.06182
1247.89821,0.06193
1245.96947,0.06205
1244.04072,0.06227
1242.11198,0.06248
1240.18323,0.06253
1238.25449,0.06258
1236.32574,0.06268
1234.39700,0.06282
1232.46825,0.06314
1230.53951,0.06357
1228.61076,0.06382
1226.68202,0.06380
1224.75327,0.06379
1222.82452,0.06401
1220.89578,0.06440
1218.96703,0.06471
1217.03829,0.06480
1215.10954,0.06469
1213.18080,0.06448
1211.25205,0.06439
1209.32331,0.06433
1207.39456,0.06408
1205.46582,0.06377
1203.53707,0.06356
1201.60833,0.06327
1199.67958,0.06266
1197.75084,0.06184
1195.82209,0.06127
1193.89335,0.06118
1191.96460,0.06125
1190.03585,0.06130
1188.10711,0.06165
1186.17836,0.06224
1184.24962,0.06261
1182.32087,0.06278
1180.39213,0.06305
1178.46338,0.06330
1176.53464,0.06327
1174.60589,0.06293
1172.67715,0.06250
1170.74840,0.06216
1168.81966,0.06185
1166.89091,0.06149
1164.96217,0.06104
1163.03342,0.06058
1161.10467,0.06035
1159.17593,0.06041
1157.24718,0.06058
1155.31844,0.06076
1153.38969,0.06089
1151.46095,0.06097
1149.53220,0.06117
1147.60346,0.06136
1145.67471,0.06124
1143.74597,0.06105
1141.81722,0.06127
1139.88848,0.06167
1137.95973,0.06180
1136.03099,0.06187
1134.10224,0.06199
1132.17350,0.06182
1130.24475,0.06127
1128.31600,0.06052
1126.38726,0.05975
1124.45851,0.05915
1122.52977,0.05862
1120.60102,0.05804
1118.67228,0.05765
1116.74353,0.05744
1114.81479,0.05723
1112.88604,0.05726
1110.95730,0.05781
1109.02855,0.05861
1107.09981,0.05922
1105.17106,0.05948
1103.24232,0.05953
1101.31357,0.05989
1099.38483,0.06056
1097.45608,0.06095
1095.52733,0.06098
1093.59859,0.06096
1091.66984,0.06087
1089.74110,0.06070
1087.81235,0.06072
1085.88361,0.06086
1083.95486,0.06093
1082.02612,0.06119
1080.09737,0.06161
1078.16863,0.06195
1076.23988,0.06214
1074.31114,0.06208
1072.38239,0.06182
1070.45365,0.06174
1068.52490,0.06201
1066.59615,0.06223
1064.66741,0.06206
1062.73866,0.06170
1060.80992,0.06139
1058.88117,0.06097
1056.95243,0.06032
1055.02368,0.05951
1053.09494,0.05878
1051.16619,0.05843
1049.23745,0.05832
1047.30870,0.05790
1045.37996,0.05706
1043.45121,0.05606
1041.52247,0.05510
1039.59372,0.05423
1037.66498,0.05353
1035.73623,0.05302
1033.80748,0.05259
1031.87874,0.05215
1029.94999,0.05184
1028.02125,0.05179
1026.09250,0.05192
1024.16376,0.05226
1022.23501,0.05279
1020.30627,0.05341
1018.37752,0.05422
1016.44878,0.05509
1014.52003,0.05590
1012.59129,0.05679
1010.66254,0.05785
1008.73380,0.05897
1006.80505,0.05996
1004.87631,0.06056
1002.94756,0.06062
1001.01881,0.06052
999.09007,0.06071
997.16132,0.06116
995.23258,0.06158
993.30383,0.06151
991.37509,0.06092
989.44634,0.06042
987.51760,0.06027
985.58885,0.06006
983.66011,0.05940
981.73136,0.05816
979.80262,0.05672
977.87387,0.05553
975.94513,0.05460
974.01638,0.05382
972.08763,0.05332
970.15889,0.05339
968.23014,0.05411
966.30140,0.05525
964.37265,0.05662
962.44391,0.05808
960.51516,0.05956
958.58642,0.06083
956.65767,0.06176
954.72893,0.06254
952.80018,0.06317
950.87144,0.06333
948.94269,0.06327
947.01395,0.06355
945.08520,0.06412
943.15646,0.06465
941.22771,0.06512
939.29896,0.06555
937.37022,0.06578
935.44147,0.06588
933.51273,0.06597
931.58398,0.06579
929.65524,0.06527
927.72649,0.06498
925.79775,0.06508
923.86900,0.06508
921.94026,0.06475
920.01151,0.06431
918.08277,0.06409
916.15402,0.06433
914.22528,0.06481
912.29653,0.06500
910.36779,0.06501
908.43904,0.06533
906.51029,0.06590
904.58155,0.06622
902.65280,0.06619
900.72406,0.06615
898.79531,0.06603
896.86657,0.06511
894.93782,0.06270
893.00908,0.05986
891.08033,0.05914
889.15159,0.06037
887.22284,0.06064
885.29410,0.05928
883.36535,0.05786
881.43661,0.05700
879.50786,0.05652
877.57911,0.05617
875.65037,0.05578
873.72162,0.05561
871.79288,0.05581
869.86413,0.05681
867.93539,0.05908
866.00664,0.06180
864.07790,0.06339
862.14915,0.06327
860.22041,0.06225
858.29166,0.06120
856.36292,0.06031
854.43417,0.05974
852.50543,0.05974
850.57668,0.06029
848.64794,0.06086
846.71919,0.06108
844.79044,0.06109
842.86170,0.06100
840.93295,0.06088
839.00421,0.06097
837.07546,0.06104
835.14672,0.06061
833.21797,0.05989
831.28923,0.05963
829.36048,0.05984
827.43174,0.05998
825.50299,0.05984
823.57425,0.05928
821.64550,0.05847
819.71676,0.05784
817.78801,0.05732
815.85926,0.05664
813.93052,0.05585
812.00177,0.05505
810.07303,0.05435
808.14428,0.05362
806.21554,0.05287
804.28679,0.05242
802.35805,0.05226
800.42930,0.05214
798.50056,0.05225
796.57181,0.05267
794.64307,0.05317
792.71432,0.05351
790.78558,0.05362
788.85683,0.05369
786.92809,0.05398
784.99934,0.05452
783.07059,0.05489
781.14185,0.05502
779.21310,0.05525
777.28436,0.05548
775.35561,0.05567
773.42687,0.05584
771.49812,0.05575
769.56938,0.05546
767.64063,0.05533
765.71189,0.05565
763.78314,0.05606
761.85440,0.05587
759.92565,0.05519
757.99691,0.05448
756.06816,0.05394
754.13942,0.05373
752.21067,0.05366
750.28192,0.05354
748.35318,0.05347
746.42443,0.05354
744.49569,0.05392
742.56694,0.05452
740.63820,0.05483
738.70945,0.05485
736.78071,0.05493
734.85196,0.05520
732.92322,0.05533
730.99447,0.05511
729.06573,0.05526
727.13698,0.05612
725.20824,0.05690
723.27949,0.05726
721.35074,0.05738
719.42200,0.05696
717.49325,0.05573
715.56451,0.05421
713.63576,0.05364
711.70702,0.05453
709.77827,0.05581
707.84953,0.05623
705.92078,0.05573
703.99204,0.05498
702.06329,0.05442
700.13455,0.05405
698.20580,0.05375
696.27706,0.05381
694.34831,0.05445
692.41957,0.05480
690.49082,0.05452
688.56207,0.05415
686.63333,0.05358
684.70458,0.05287
682.77584,0.05257
680.84709,0.05253
678.91835,0.05228
676.98960,0.05161
675.06086,0.05067
673.13211,0.05005
671.20337,0.05015
669.27462,0.05071
667.34588,0.05112
665.41713,0.05137
663.48839,0.05188
661.55964,0.05231
659.63090,0.05240
657.70215,0.05264
655.77340,0.05298
653.84466,0.05270
651.91591,0.05203
649.98717,0.05190
648.05842,0.05225
646.12968,0.05202
644.20093,0.05054
642.27219,0.04890
640.34344,0.04848
638.41470,0.04894
636.48595,0.04926
634.55721,0.04909
632.62846,0.04864
630.69972,0.04813
628.77097,0.04795
626.84222,0.04836
624.91348,0.04854
622.98473,0.04772
621.05599,0.04660
619.12724,0.04624
617.19850,0.04643
615.26975,0.04633
613.34101,0.04646
611.41226,0.04750
609.48352,0.04838
607.55477,0.04812
605.62603,0.04761
603.69728,0.04743
601.76854,0.04691
599.83979,0.04588
