##Temp./°C,Time/min,Mass(subtr.2)/%,DSC(subtr.2)/(mW/mg),Sensit./(uV/mW)
49.246,10.00917,99.10875,0.01455622,1.07447
49.346,10.41929,99.06782,0.01812439,1.07447
49.446,10.51999,99.05271,0.02558508,1.07446
49.546,10.58717,99.05564,0.02853261,1.07445
49.646,10.64055,99.04598,0.03249346,1.07445
49.746,10.687389999999999,99.0765,0.03758084,1.07444
49.846,10.72856,99.05441,0.04320985,1.07443
49.946,10.76666,99.0499,0.04516071,1.07443
50.046,10.80171,99.03912,0.0517262,1.0744200000000002
50.146,10.83488,99.03419,0.05569825,1.07441
50.246,10.86484,99.03655,0.05845016,1.0744
50.346,10.893510000000001,99.04826,0.06118762,1.0744
50.446,10.92046,99.04956,0.06438593,1.07439
50.546,10.9462,99.04765,0.06814246,1.07438
50.646,10.97077,99.0548,0.07344857,1.07438
50.746,10.99434,99.05006999999999,0.07455243,1.07437
50.846,11.0172,99.01606,0.07726883,1.07436
50.946,11.038960000000001,99.00231,0.08163289,1.07435
51.046,11.06033,99.00775,0.08503472,1.07435
51.146,11.08121,99.00994,0.08620493,1.07434
51.246,11.10144,99.00199,0.08998622,1.07433
51.346,11.121189999999999,99.02104,0.09082607,1.07433
51.446,11.14055,99.02115,0.09231264,1.0743200000000002
51.546,11.15932,99.05911,0.09662842,1.07431
51.646,11.1778,99.04469,0.09876952,1.0743
51.746,11.196060000000001,99.04314000000001,0.10235,1.0743
51.846,11.2139,99.06926999999999,0.10519,1.07429
51.946,11.231539999999999,99.04675,0.10725,1.07428
52.046,11.24882,99.04961999999999,0.10779000000000001,1.07427
52.146,11.266,99.04751999999999,0.11087999999999999,1.07427
52.246,11.282789999999999,99.02786,0.11167,1.07426
52.346,11.29955,99.02348,0.11445999999999999,1.07425
52.446,11.31604,99.01293000000001,0.11700999999999999,1.0742399999999999
52.546,11.33227,99.00456,0.11899000000000001,1.0742399999999999
52.646,11.34822,99.00093000000001,0.11972999999999999,1.07423
52.746,11.364189999999999,99.0026,0.12189000000000001,1.0742200000000002
52.846,11.37985,98.98465,0.1229,1.07421
52.946,11.39521,99.01525,0.1253,1.07421
53.046,11.41057,99.00775,0.12545,1.0742
53.146,11.42577,99.01611,0.1288,1.07419
53.246,11.4408,99.01477,0.12965,1.07418
53.346,11.45557,99.01061,0.13172,1.07418
53.446,11.470289999999999,99.00211999999999,0.13224,1.07417
53.546,11.48478,99.01181,0.13346,1.07416
53.646,11.49925,99.01016,0.1339,1.07415
53.746,11.51351,99.03484,0.1361,1.0741399999999999
53.846,11.52769,99.00933,0.1394,1.0741399999999999
53.946,11.541739999999999,99.02764,0.14176,1.07413
54.046,11.555760000000001,99.01326999999999,0.14125,1.07412
54.146,11.56958,99.01059000000001,0.14262,1.0741100000000001
54.246,11.583260000000001,99.01576999999999,0.14177,1.0741
54.346,11.596860000000001,99.00962,0.14335,1.0741
54.446,11.6104,99.02211,0.14626,1.07409
54.546,11.62375,99.04784000000001,0.14707,1.07408
54.646,11.63717,99.02953000000001,0.14809,1.07407
54.746,11.65044,99.05532,0.14970999999999998,1.07406
54.846,11.663730000000001,99.05358000000001,0.15019000000000002,1.07406
54.946,11.67687,99.05343,0.15417,1.07405
55.046,11.68993,99.05261,0.15500999999999998,1.0740399999999999
55.146,11.70293,99.03461999999999,0.15475999999999998,1.0740299999999998
55.246,11.71585,99.03204000000001,0.15673,1.07402
55.346,11.728760000000001,98.989,0.15661,1.07402
55.446,11.741489999999999,98.96189,0.15943,1.0740100000000001
55.546,11.75416,98.93349,0.15918,1.074
55.646,11.76678,98.9189,0.1605,1.07399
55.746,11.77944,98.92533,0.15988,1.07398
55.846,11.79215,98.91724,0.16339,1.07397
55.946,11.8047,98.90678,0.16288,1.07397
56.046,11.81723,98.92617,0.16335999999999998,1.07396
56.146,11.82969,98.94529,0.1637,1.07395
56.246,11.84193,98.9735,0.16513,1.07394
56.346,11.854280000000001,98.99723,0.16751,1.0739299999999998
56.446,11.86652,98.99812,0.16781,1.07392
56.546,11.87883,99.01465999999999,0.16910999999999998,1.0739100000000001
56.646,11.89098,99.03851,0.16879,1.0739100000000001
56.746,11.903210000000001,99.04155,0.1704,1.0739
56.846,11.91535,99.06737,0.17069,1.07389
56.946,11.9274,99.04194,0.17269,1.07388
57.046,11.93942,99.03752,0.17048,1.07387
57.146,11.95154,99.02727,0.17203,1.07386
57.246,11.963610000000001,99.03021,0.17371,1.07385
57.346,11.97573,99.03254,0.17440999999999998,1.07385
57.446,11.987739999999999,99.0019,0.17498,1.07384
57.546,11.99967,98.99947,0.1738,1.0738299999999998
57.646,12.011660000000001,98.99238000000001,0.17627,1.07382
57.746,12.02357,98.974,0.17405,1.07381
57.846,12.03544,98.99275,0.17706,1.0738
57.946,12.04744,98.98865,0.1749,1.07379
58.046,12.05917,98.96075,0.1771,1.07378
58.146,12.07104,98.96153000000001,0.17822000000000002,1.07378
58.246,12.0828,98.9782,0.1781,1.0737700000000001
58.346,12.09457,98.99365999999999,0.17814000000000002,1.07376
58.446,12.10632,98.96592,0.17924,1.07375
58.546,12.11793,98.96616999999999,0.17975,1.07374
58.646,12.12964,98.99436,0.17868,1.0737299999999999
58.746,12.14133,98.99279,0.18005,1.07372
58.846,12.15294,98.9973,0.18134,1.07371
58.946,12.16457,98.99971,0.18195999999999998,1.0737
59.046,12.17618,98.99533000000001,0.18239,1.07369
59.146,12.1876,98.99741999999999,0.18179,1.07369
59.246,12.1992,98.9797,0.18350999999999998,1.07368
59.346,12.21068,98.97913,0.18328,1.0736700000000001
59.446,12.22213,98.99476999999999,0.18257,1.07366
59.546,12.23361,98.99512,0.18515,1.07365
59.646,12.24514,98.97945,0.18589,1.07364
59.746,12.2566,98.96121,0.18502000000000002,1.0736299999999999
59.846,12.268089999999999,98.96072,0.18529,1.07362
59.946,12.27943,98.96075,0.18457,1.07361
60.046,12.29073,98.9734,0.18437,1.0736
60.146,12.3021,98.99009000000001,0.18517,1.07359
60.246,12.3135,98.96226,0.18696,1.07358
60.346,12.32489,98.96075,0.18728,1.0735700000000001
60.446,12.3363,98.96075,0.18762,1.07356
60.546,12.34757,98.96565,0.18696,1.07356
60.646,12.35897,98.99348,0.18902,1.07355
60.746,12.37025,98.96637,0.18836,1.07354
60.846,12.38157,98.96075,0.18807000000000001,1.0735299999999999
60.946,12.39283,98.96089,0.18922,1.07352
61.046,12.404069999999999,98.96007,0.18742,1.07351
61.146,12.41527,98.96351,0.18816,1.0735
61.246,12.42647,98.94148,0.18982000000000002,1.07349
61.346,12.437660000000001,98.94131999999999,0.19025999999999998,1.07348
61.446,12.44882,98.96047,0.18997,1.0734700000000001
61.546,12.45993,98.96070999999999,0.18908,1.07346
61.646,12.47103,98.95981,0.19025,1.07345
61.746,12.48218,98.9677,0.1911,1.07344
61.846,12.49338,98.98626999999999,0.1925,1.0734299999999999
61.946,12.50455,98.96683,0.19177,1.07342
62.046,12.51568,98.95981,0.19201,1.07341
62.146,12.52683,98.96088,0.19314,1.0734
62.246,12.537889999999999,98.96082,0.19261,1.07339
62.346,12.54888,98.9531,0.19334,1.07338
62.446,12.560030000000001,98.92705,0.19230999999999998,1.0733700000000002
62.546,12.57109,98.92761999999999,0.1937,1.07336
62.646,12.58216,98.93389,0.19265,1.07335
62.746,12.593160000000001,98.95815,0.19342,1.07334
62.846,12.604239999999999,98.96168,0.19551,1.07333
62.946,12.615269999999999,98.95575,0.19662000000000002,1.07332
63.046,12.626330000000001,98.95116999999999,0.19637000000000002,1.07331
63.146,12.63745,98.95966999999999,0.19525,1.0733
63.246,12.64847,98.96087,0.19542,1.0732899999999999
63.346,12.659419999999999,98.96079,0.19601,1.07328
63.446,12.67041,98.97182,0.19507,1.0732700000000002
63.546,12.68144,98.99557,0.19517,1.07326
63.646,12.69244,98.99292,0.19582,1.07325
63.746,12.70346,98.99274,0.19573,1.07324
63.846,12.71444,98.97003000000001,0.19433,1.07323
63.946,12.72534,98.96735,0.1945,1.07322
64.046,12.7362,98.9906,0.19717,1.07321
64.146,12.74718,98.99389000000001,0.19657,1.0732
64.246,12.75815,98.99353,0.19634000000000001,1.0731899999999999
64.346,12.769039999999999,98.99346,0.19854000000000002,1.07318
64.446,12.779910000000001,98.99231999999999,0.19592,1.0731700000000002
64.546,12.79082,98.96603,0.19946,1.0731600000000001
64.646,12.801730000000001,98.96058000000001,0.19774,1.07315
64.746,12.812610000000001,98.9608,0.19742,1.07314
64.846,12.82347,98.96074,0.19993,1.07313
64.946,12.83436,98.96075,0.20054,1.07312
65.046,12.8452,98.95894,0.19749,1.07311
65.146,12.856010000000001,98.93191999999999,0.19708,1.0731
65.246,12.866810000000001,98.94556999999999,0.19879000000000002,1.0730899999999999
65.346,12.87748,98.96073,0.20049,1.07307
65.446,12.88819,98.96075,0.19921,1.0730600000000001
65.546,12.8989,98.96075,0.19889,1.07305
65.646,12.90952,98.96075,0.20022,1.07304
65.746,12.92031,98.96075,0.20189000000000001,1.07303
65.846,12.93114,98.96073,0.20004,1.07302
65.946,12.94201,98.96085,0.20039,1.07301
66.046,12.952919999999999,98.96028000000001,0.20133,1.073
66.146,12.9639,98.96287,0.19983,1.0729899999999999
66.246,12.97475,98.94773,0.19979,1.0729799999999998
66.346,12.98547,98.92894,0.20098,1.07297
66.446,12.99605,98.92772,0.20063,1.0729600000000001
66.546,13.00665,98.93207,0.20196,1.07295
66.646,13.017430000000001,98.95761999999999,0.20077,1.07294
66.746,13.02833,98.96118,0.20138,1.07292
66.846,13.03908,98.95266,0.20373,1.07291
66.946,13.04988,98.92685,0.20248,1.0729
67.046,13.06076,98.92815,0.2033,1.07289
67.146,13.07173,98.92793,0.20207999999999998,1.0728799999999998
67.246,13.08276,98.92607,0.20285,1.07287
67.346,13.09385,98.93836999999999,0.20275,1.0728600000000001
67.446,13.10488,98.9595,0.20331,1.07285
67.546,13.11595,98.96103000000001,0.2025,1.07284
67.646,13.126779999999998,98.96016,0.20265,1.07283
67.746,13.13765,98.96236999999999,0.20398,1.07281
67.846,13.14846,98.93759,0.20310999999999998,1.0728
67.946,13.15926,98.92775,0.20588,1.07279
68.046,13.169889999999999,98.92745,0.20245,1.0727799999999998
68.146,13.180639999999999,98.93035,0.20407,1.07277
68.246,13.191460000000001,98.95639,0.2023,1.07276
68.346,13.20239,98.9609,0.2041,1.07275
68.446,13.213370000000001,98.96085,0.20423,1.07274
68.546,13.22424,98.95906,0.20415,1.0727200000000001
68.646,13.234960000000001,98.93722,0.20185999999999998,1.07271
68.746,13.245770000000002,98.92618,0.20453,1.0727
68.846,13.2565,98.929,0.20496,1.07269
68.946,13.2672,98.92585,0.20511999999999997,1.0726799999999999
69.046,13.2779,98.95193,0.20244,1.07267
69.146,13.2886,98.96611999999999,0.20494,1.07266
69.246,13.299270000000002,98.97476999999999,0.20378,1.07264
69.346,13.31003,99.00916,0.20556999999999997,1.07263
69.446,13.32065,99.00551999999999,0.20329,1.0726200000000001
69.546,13.331339999999999,98.98645,0.20381,1.07261
69.646,13.342070000000001,98.97454,0.20594,1.0726
69.746,13.3527,98.96758,0.2041,1.07259
69.846,13.363339999999999,98.94256,0.20469,1.0725799999999999
69.946,13.373970000000002,98.93834,0.20633,1.07256
70.046,13.38468,98.93885,0.20493000000000003,1.07255
70.146,13.39543,98.93873,0.20698000000000003,1.07254
70.246,13.40616,98.93873,0.20831999999999998,1.07253
70.346,13.41686,98.93883000000001,0.20615,1.0725200000000001
70.446,13.427589999999999,98.93851,0.20765,1.07251
70.546,13.438279999999999,98.93933,0.2056,1.07249
70.646,13.4489,98.9228,0.20555,1.0724799999999999
70.746,13.459539999999999,98.90549,0.20706,1.07247
70.846,13.47021,98.90592,0.20774,1.07246
70.946,13.48083,98.90573,0.2078,1.07245
71.046,13.491470000000001,98.90541,0.20795,1.07243
71.146,13.50211,98.89044,0.20751,1.0724200000000002
71.246,13.512720000000002,98.87045,0.20936,1.07241
71.346,13.52333,98.87418000000001,0.20961999999999997,1.0724
71.446,13.53395,98.87063,0.20834,1.07239
71.546,13.544579999999998,98.88578000000001,0.20922,1.07237
71.646,13.55524,98.90498000000001,0.2078,1.07236
71.746,13.56591,98.90612,0.20808000000000001,1.07235
71.846,13.57651,98.90596,0.20765,1.07234
71.946,13.58712,98.90605,0.20809,1.07233
72.046,13.597710000000001,98.90585,0.20838,1.07231
72.146,13.608279999999999,98.91261999999999,0.20967,1.0723
72.246,13.618829999999999,98.93068000000001,0.20901999999999998,1.07229
72.346,13.62938,98.90536999999999,0.20938,1.07228
72.446,13.639920000000002,98.90605,0.20995999999999998,1.07227
72.546,13.65051,98.9057,0.21138,1.07225
72.646,13.66106,98.90531999999999,0.21231999999999998,1.0722399999999999
72.746,13.671660000000001,98.9084,0.21081999999999998,1.07223
72.846,13.682260000000001,98.92856,0.21136,1.0722200000000002
72.946,13.692860000000001,98.94019,0.21111999999999997,1.0722
73.046,13.703370000000001,98.93786999999999,0.2108,1.07219
73.146,13.713920000000002,98.94099,0.21309,1.07218
73.246,13.72444,98.92655,0.21158000000000002,1.07217
73.346,13.734960000000001,98.9072,0.21068,1.07215
73.446,13.74555,98.90585,0.21131,1.0721399999999999
73.546,13.756089999999999,98.90608,0.21176999999999999,1.07213
73.646,13.76653,98.90584,0.21165,1.07212
73.746,13.777029999999998,98.91055,0.21051,1.0721
73.846,13.78765,98.93628000000001,0.20906999999999998,1.07209
73.946,13.798110000000001,98.93949,0.21173000000000003,1.07208
74.046,13.80855,98.93892,0.21105,1.07207
74.146,13.81905,98.93901,0.21189000000000002,1.07205
74.246,13.8296,98.9391,0.21208000000000002,1.0720399999999999
74.346,13.840129999999998,98.93815,0.21156999999999998,1.0720299999999998
74.446,13.850610000000001,98.91948000000001,0.2107,1.07202
74.546,13.861120000000001,98.90496999999999,0.21309,1.072
74.646,13.871620000000002,98.90632,0.21147,1.07199
74.746,13.882029999999999,98.90590999999999,0.21245999999999998,1.07198
74.846,13.892479999999999,98.90603,0.21474000000000001,1.07197
74.946,13.90293,98.90597,0.21319000000000002,1.07195
75.046,13.91342,98.90608,0.21358000000000002,1.07194
75.146,13.923929999999999,98.90569,0.21343,1.0719299999999998
75.246,13.934379999999999,98.90724,0.21268,1.0719100000000001
75.346,13.944820000000002,98.89824,0.21229,1.0719
75.446,13.955229999999998,98.87769,0.21400999999999998,1.07189
75.546,13.965679999999999,98.87244,0.21335,1.07188
75.646,13.9762,98.872,0.21527,1.07186
75.746,13.986629999999998,98.884,0.21406999999999998,1.07185
75.846,13.997029999999999,98.90357,0.21244000000000002,1.07184
75.946,14.007570000000001,98.90614000000001,0.21565,1.07182
76.046,14.01804,98.90568,0.2161,1.07181
76.146,14.02846,98.90576,0.21591,1.0718
76.246,14.038910000000001,98.90575,0.21465,1.07178
76.346,14.04935,98.90575,0.21427,1.0717700000000001
76.446,14.059729999999998,98.90575,0.21489,1.07176
76.546,14.070110000000001,98.90572,0.2169,1.07174
76.646,14.08053,98.90593,0.21728000000000003,1.0717299999999998
76.746,14.09101,98.91841,0.21714,1.07172
76.846,14.10144,98.94072,0.21795,1.07171
76.946,14.11176,98.93881,0.21694000000000002,1.07169
77.046,14.12217,98.93562,0.21438000000000001,1.07168
77.146,14.132520000000001,98.9156,0.21643,1.0716700000000001
77.246,14.142879999999998,98.90475,0.21704,1.07165
77.346,14.153329999999999,98.90626999999999,0.21743,1.07164
77.446,14.163770000000001,98.90616999999999,0.21828000000000003,1.0716299999999999
77.546,14.17421,98.90496999999999,0.21750999999999998,1.07161
77.646,14.184579999999999,98.91268000000001,0.216,1.0716
77.746,14.194970000000001,98.93624,0.21728000000000003,1.07158
77.846,14.20529,98.92409,0.21733000000000002,1.0715700000000001
77.946,14.215629999999999,98.91186,0.21752,1.07156
78.046,14.22601,98.91456,0.21895,1.07154
78.146,14.23652,98.91367,0.21839,1.0715299999999999
78.246,14.2469,98.91479,0.22048,1.07152
78.346,14.25724,98.90704000000001,0.22133000000000003,1.0715
78.446,14.26764,98.9055,0.21969,1.07149
78.546,14.2781,98.90579,0.21923,1.07148
78.646,14.28832,98.90576,0.2206,1.07146
78.746,14.29865,98.9057,0.22133000000000003,1.07145
78.846,14.30901,98.91368,0.21866,1.07144
78.946,14.319420000000001,98.9391,0.21591,1.07142
79.046,14.329839999999999,98.93852,0.21746,1.07141
79.146,14.340179999999998,98.93884,0.22118000000000002,1.07139
79.246,14.350539999999999,98.93871,0.21875,1.07138
79.346,14.36084,98.9388,0.21794000000000002,1.0713700000000002
79.446,14.37115,98.93856,0.22080999999999998,1.07135
79.546,14.3814,98.93956,0.22119,1.07134
79.646,14.3917,98.93504,0.21986999999999998,1.07133
79.746,14.40201,98.92094,0.2222,1.07131
79.846,14.412339999999999,98.92088000000001,0.22129000000000001,1.0713
79.946,14.4227,98.91036,0.22002,1.07128
80.046,14.43302,98.90541999999999,0.21994,1.0712700000000002
80.146,14.443270000000002,98.90612,0.22238000000000002,1.07126
80.246,14.45346,98.9061,0.22186999999999998,1.07124
80.346,14.46376,98.90544,0.22084,1.07123
80.446,14.474079999999999,98.90822,0.2216,1.07121
80.546,14.48431,98.89402,0.22280999999999998,1.0712
80.646,14.494729999999999,98.87418000000001,0.22155999999999998,1.07118
80.746,14.50515,98.87526,0.22159,1.0711700000000002
80.846,14.515429999999999,98.89799000000001,0.22383000000000003,1.0711600000000001
80.946,14.5257,98.90768,0.22323,1.07114
81.046,14.53599,98.90559,0.22136999999999998,1.07113
81.146,14.54623,98.90608,0.22221999999999997,1.07111
81.246,14.556510000000001,98.90606,0.22291999999999998,1.0711
81.346,14.56676,98.90571,0.22436,1.0710899999999999
81.446,14.576979999999999,98.90703,0.22414,1.07107
81.546,14.587279999999998,98.89366,0.22566,1.0710600000000001
81.646,14.597539999999999,98.87369,0.22448,1.07104
81.746,14.60774,98.88597,0.22446999999999998,1.07103
81.846,14.61806,98.9048,0.22675,1.07101
81.946,14.628279999999998,98.90595,0.22659,1.071
82.046,14.63853,98.9057,0.22666,1.0709799999999998
82.146,14.648760000000001,98.90579,0.22726999999999997,1.07097
82.246,14.658920000000002,98.90566,0.22635999999999998,1.0709600000000001
82.346,14.669170000000001,98.90575,0.2269,1.07094
82.446,14.67934,98.88091,0.22475,1.07093
82.546,14.68948,98.87293000000001,0.22571,1.07091
82.646,14.69955,98.87317,0.22713000000000003,1.0709
82.746,14.709589999999999,98.8817,0.22701,1.0708799999999998
82.846,14.71976,98.88971,0.22433000000000003,1.07087
82.946,14.72995,98.88943,0.22538000000000002,1.07085
83.046,14.74017,98.8895,0.22828,1.07084
83.146,14.75035,98.8896,0.22778,1.07082
83.246,14.760570000000001,98.88903,0.2277,1.07081
83.346,14.770760000000001,98.89158,0.2265,1.0708
83.446,14.780970000000002,98.90734,0.22678,1.0707799999999998
83.546,14.791160000000001,98.9056,0.22745,1.07077
83.646,14.80131,98.90616999999999,0.22834000000000002,1.07075
83.746,14.81146,98.90573,0.22794,1.07074
83.846,14.821579999999999,98.90706999999999,0.22978,1.0707200000000001
83.946,14.831660000000001,98.91766,0.22734000000000001,1.07071
84.046,14.84181,98.91901999999999,0.22854000000000002,1.07069
84.146,14.851939999999999,98.9039,0.22853,1.0706799999999999
84.246,14.862,98.90625,0.2276,1.07066
84.346,14.87212,98.90562,0.22973000000000002,1.07065
84.446,14.882270000000002,98.90579,0.22969,1.07063
84.546,14.8924,98.90574000000001,0.22951,1.0706200000000001
84.646,14.9026,98.90575,0.22906999999999997,1.0706
84.746,14.91283,98.90575,0.23167,1.07059
84.846,14.92296,98.90575,0.22964,1.07057
84.946,14.933060000000001,98.90575,0.22981,1.07056
85.046,14.943129999999998,98.90574000000001,0.22929000000000002,1.07054
85.146,14.95323,98.90579,0.23108,1.07053
85.246,14.96333,98.90561,0.23206999999999997,1.07051
85.346,14.97339,98.9069,0.22996999999999998,1.0705
85.446,14.98351,98.92534,0.22995,1.0704799999999999
85.546,14.993620000000002,98.94111,0.23103,1.07047
85.646,15.003689999999999,98.93828,0.23158,1.07045
85.746,15.013829999999999,98.93746,0.23181,1.07043
85.846,15.0239,98.91802,0.23078,1.0704200000000001
85.946,15.033920000000002,98.90346,0.23049,1.0704
86.046,15.04406,98.90639,0.23133,1.07039
86.146,15.054170000000001,98.90543000000001,0.23125,1.07037
86.246,15.06427,98.90641,0.23023000000000002,1.07036
86.346,15.07443,98.90341,0.23045,1.07034
86.446,15.084539999999999,98.91843,0.23131,1.07033
86.546,15.09464,98.93706999999999,0.23084000000000002,1.07031
86.646,15.10474,98.94015999999999,0.23198000000000002,1.0703
86.746,15.11484,98.93104,0.23256999999999997,1.07028
86.846,15.12496,98.91128,0.23176999999999998,1.07026
86.946,15.135029999999999,98.90491999999999,0.23109000000000002,1.07025
87.046,15.1451,98.90628000000001,0.23135,1.07023
87.146,15.155170000000002,98.90592,0.23085999999999998,1.0702200000000002
87.246,15.165220000000001,98.90602,0.23081999999999997,1.0702
87.346,15.17526,98.906,0.23167,1.07019
87.446,15.185360000000001,98.906,0.23271999999999998,1.07017
87.546,15.1954,98.90601,0.23275,1.07016
87.646,15.205470000000002,98.90596,0.23273000000000002,1.0701399999999999
87.746,15.215539999999999,98.90616,0.2333,1.0701200000000002
87.846,15.225570000000001,98.90321999999999,0.23296,1.0701100000000001
