7497.02206,0.83905
7495.09332,0.83848
7493.16458,0.83738
7491.23584,0.83917
7489.30709,0.84110
7487.37835,0.83563
7485.44961,0.82785
7483.52087,0.82613
7481.59212,0.82852
7479.66338,0.82911
7477.73464,0.82804
7475.80590,0.82962
7473.87715,0.83364
7471.94841,0.83554
7470.01967,0.83218
7468.09093,0.82697
7466.16218,0.82668
7464.23344,0.83026
7462.30470,0.82927
7460.37596,0.82135
7458.44721,0.81483
7456.51847,0.81591
7454.58973,0.81993
7452.66099,0.82083
7450.73224,0.82095
7448.80350,0.82318
7446.87476,0.82435
7444.94602,0.82197
7443.01727,0.81762
7441.08853,0.81621
7439.15979,0.81981
7437.23105,0.82428
7435.30230,0.82749
7433.37356,0.82997
7431.44482,0.83037
7429.51608,0.82685
7427.58733,0.82016
7425.65859,0.81554
7423.72985,0.81545
7421.80111,0.81504
7419.87236,0.81049
7417.94362,0.80476
7416.01488,0.80361
7414.08614,0.80711
7412.15739,0.80944
7410.22865,0.80872
7408.29991,0.80772
7406.37117,0.80665
7404.44242,0.80353
7402.51368,0.80097
7400.58494,0.80382
7398.65620,0.80918
7396.72745,0.81083
7394.79871,0.81044
7392.86997,0.81179
7390.94123,0.81217
7389.01248,0.80887
7387.08374,0.80399
7385.15500,0.80112
7383.22626,0.80333
7381.29751,0.80857
7379.36877,0.81119
7377.44003,0.81028
7375.51129,0.80860
7373.58254,0.80617
7371.65380,0.80033
7369.72506,0.79236
7367.79632,0.78847
7365.86757,0.79272
7363.93883,0.80093
7362.01009,0.80468
7360.08135,0.80239
7358.15260,0.79765
7356.22386,0.79298
7354.29512,0.79023
7352.36638,0.78981
7350.43763,0.78980
7348.50889,0.78719
7346.58015,0.78380
7344.65141,0.78227
7342.72266,0.78133
7340.79392,0.78336
7338.86518,0.78754
7336.93644,0.78712
7335.00769,0.78224
7333.07895,0.77818
7331.15021,0.77611
7329.22147,0.77442
7327.29272,0.77648
7325.36398,0.78409
7323.43524,0.78905
7321.50650,0.78778
7319.57775,0.78657
7317.64901,0.78753
7315.72027,0.78665
7313.79153,0.78186
7311.86278,0.77638
7309.93404,0.77581
7308.00530,0.78072
7306.07656,0.78538
7304.14781,0.78666
7302.21907,0.78572
7300.29033,0.78159
7298.36159,0.77545
7296.43284,0.77245
7294.50410,0.77292
7292.57536,0.77268
7290.64662,0.77121
7288.71787,0.77194
7286.78913,0.77396
7284.86039,0.77394
7282.93165,0.77439
7281.00290,0.77692
7279.07416,0.77894
7277.14542,0.77861
7275.21668,0.77410
7273.28793,0.76931
7271.35919,0.77029
7269.43045,0.77222
7267.50171,0.77018
7265.57296,0.76881
7263.64422,0.76997
7261.71548,0.77188
7259.78674,0.77502
7257.85799,0.77766
7255.92925,0.77710
7254.00051,0.77368
7252.07177,0.77042
7250.14302,0.77049
7248.21428,0.77239
7246.28554,0.77217
7244.35680,0.76933
7242.42805,0.76724
7240.49931,0.76967
7238.57057,0.77465
7236.64183,0.77737
7234.71308,0.77710
7232.78434,0.77534
7230.85560,0.77367
7228.92686,0.77229
7226.99811,0.76889
7225.06937,0.76414
7223.14063,0.76292
7221.21189,0.76558
7219.28314,0.76665
7217.35440,0.76377
7215.42566,0.76046
7213.49692,0.76053
7211.56817,0.76233
7209.63943,0.76181
7207.71069,0.76072
7205.78195,0.76261
7203.85320,0.76539
7201.92446,0.76554
7199.99572,0.76415
7198.06698,0.76384
7196.13823,0.76357
7194.20949,0.76168
7192.28075,0.76107
7190.35201,0.76171
7188.42326,0.75831
7186.49452,0.75316
7184.56578,0.75233
7182.63704,0.75495
7180.70829,0.75761
7178.77955,0.75801
7176.85081,0.75753
7174.92207,0.75921
7172.99332,0.76144
7171.06458,0.76008
7169.13584,0.75531
7167.20710,0.75084
7165.27835,0.74651
7163.34961,0.74165
7161.42087,0.74021
7159.49213,0.74379
7157.56338,0.74878
7155.63464,0.75100
7153.70590,0.74949
7151.77716,0.74630
7149.84841,0.74444
7147.91967,0.74641
7145.99093,0.74987
7144.06219,0.74953
7142.13344,0.74512
7140.20470,0.73976
7138.27596,0.73555
7136.34722,0.73477
7134.41847,0.73755
7132.48973,0.73959
7130.56099,0.73805
7128.63225,0.73436
7126.70351,0.73071
7124.77476,0.72839
7122.84602,0.72771
7120.91728,0.72815
7118.98854,0.72971
7117.05979,0.73140
7115.13105,0.73034
7113.20231,0.72616
7111.27357,0.72210
7109.34482,0.72166
7107.41608,0.72397
7105.48734,0.72349
7103.55860,0.71966
7101.62985,0.71700
7099.70111,0.71624
7097.77237,0.71648
7095.84363,0.71729
7093.91488,0.71667
7091.98614,0.71435
7090.05740,0.71260
7088.12866,0.71221
7086.19991,0.71157
7084.27117,0.70828
7082.34243,0.70228
7080.41369,0.69686
7078.48494,0.69463
7076.55620,0.69512
7074.62746,0.69760
7072.69872,0.70165
7070.76997,0.70353
7068.84123,0.69993
7066.91249,0.69377
7064.98375,0.68941
7063.05500,0.68771
7061.12626,0.68756
7059.19752,0.68852
7057.26878,0.68992
7055.34003,0.68968
7053.41129,0.68705
7051.48255,0.68326
7049.55381,0.67960
7047.62506,0.67662
7045.69632,0.67406
7043.76758,0.67370
7041.83884,0.67638
7039.91009,0.67790
7037.98135,0.67734
7036.05261,0.67697
7034.12387,0.67459
7032.19512,0.67051
7030.26638,0.66903
7028.33764,0.66942
7026.40890,0.66870
7024.48015,0.66723
7022.55141,0.66526
7020.62267,0.66295
7018.69393,0.66208
7016.76518,0.66261
7014.83644,0.66345
7012.90770,0.66408
7010.97896,0.66257
7009.05021,0.65909
7007.12147,0.65705
7005.19273,0.65614
7003.26399,0.65290
7001.33524,0.64937
6999.40650,0.64869
6997.47776,0.64939
6995.54902,0.65137
6993.62027,0.65331
6991.69153,0.65238
6989.76279,0.65047
6987.83405,0.64950
6985.90530,0.64905
6983.97656,0.64933
6982.04782,0.64929
6980.11908,0.64695
6978.19033,0.64350
6976.26159,0.64213
6974.33285,0.64330
6972.40411,0.64463
6970.47536,0.64385
6968.54662,0.64163
6966.61788,0.64093
6964.68914,0.64282
6962.76039,0.64466
6960.83165,0.64370
6958.90291,0.64130
6956.97417,0.63981
6955.04542,0.63835
6953.11668,0.63689
6951.18794,0.63756
6949.25920,0.63917
6947.33045,0.64017
6945.40171,0.64185
6943.47297,0.64196
6941.54423,0.63836
6939.61548,0.63474
6937.68674,0.63287
6935.75800,0.63160
6933.82926,0.63158
6931.90051,0.63294
6929.97177,0.63384
6928.04303,0.63375
6926.11429,0.63300
6924.18554,0.63212
6922.25680,0.63267
6920.32806,0.63434
6918.39932,0.63584
6916.47057,0.63668
6914.54183,0.63637
6912.61309,0.63497
6910.68435,0.63262
6908.75560,0.63055
6906.82686,0.63013
6904.89812,0.63052
6902.96938,0.63080
6901.04063,0.63107
6899.11189,0.63256
6897.18315,0.63475
6895.25441,0.63452
6893.32566,0.63208
6891.39692,0.62917
6889.46818,0.62608
6887.53944,0.62470
6885.61069,0.62597
6883.68195,0.62776
6881.75321,0.62893
6879.82447,0.62884
6877.89572,0.62694
6875.96698,0.62509
6874.03824,0.62405
6872.10950,0.62218
6870.18075,0.62093
6868.25201,0.62234
6866.32327,0.62371
6864.39453,0.62223
6862.46578,0.62089
6860.53704,0.62244
6858.60830,0.62379
6856.67956,0.62468
6854.75081,0.62830
6852.82207,0.63231
6850.89333,0.63323
6848.96459,0.63136
6847.03584,0.62836
6845.10710,0.62591
6843.17836,0.62499
6841.24962,0.62558
6839.32087,0.62637
6837.39213,0.62675
6835.46339,0.62708
6833.53465,0.62629
6831.60590,0.62456
6829.67716,0.62450
6827.74842,0.62600
6825.81968,0.62585
6823.89093,0.62352
6821.96219,0.62113
6820.03345,0.62087
6818.10471,0.62208
6816.17596,0.62107
6814.24722,0.61932
6812.31848,0.62039
6810.38974,0.62184
6808.46099,0.62210
6806.53225,0.62190
6804.60351,0.62001
6802.67477,0.61721
6800.74602,0.61685
6798.81728,0.61840
6796.88854,0.61852
6794.95980,0.61758
6793.03105,0.61716
6791.10231,0.61628
6789.17357,0.61506
6787.24483,0.61505
6785.31608,0.61514
6783.38734,0.61387
6781.45860,0.61358
6779.52986,0.61472
6777.60111,0.61396
6775.67237,0.61288
6773.74363,0.61475
6771.81489,0.61632
6769.88614,0.61443
6767.95740,0.61192
6766.02866,0.61172
6764.09992,0.61273
6762.17117,0.61389
6760.24243,0.61463
6758.31369,0.61294
6756.38495,0.61056
6754.45620,0.61142
6752.52746,0.61345
6750.59872,0.61367
6748.66998,0.61501
6746.74123,0.61815
6744.81249,0.61812
6742.88375,0.61454
6740.95501,0.61207
6739.02626,0.61222
6737.09752,0.61336
6735.16878,0.61342
6733.24004,0.61226
6731.31129,0.61157
6729.38255,0.61188
6727.45381,0.61288
6725.52507,0.61418
6723.59632,0.61440
6721.66758,0.61238
6719.73884,0.60964
6717.81010,0.60889
6715.88135,0.61021
6713.95261,0.61136
6712.02387,0.61153
6710.09513,0.61171
6708.16638,0.61256
6706.23764,0.61403
6704.30890,0.61457
6702.38016,0.61385
6700.45141,0.61418
6698.52267,0.61516
6696.59393,0.61530
6694.66519,0.61540
6692.73644,0.61537
6690.80770,0.61522
6688.87896,0.61569
6686.95022,0.61630
6685.02147,0.61689
6683.09273,0.61795
6681.16399,0.61898
6679.23525,0.61938
6677.30650,0.61874
6675.37776,0.61638
6673.44902,0.61355
6671.52028,0.61235
6669.59153,0.61267
6667.66279,0.61380
6665.73405,0.61487
6663.80531,0.61501
6661.87656,0.61500
6659.94782,0.61596
6658.01908,0.61739
6656.09034,0.61802
6654.16159,0.61789
6652.23285,0.61769
6650.30411,0.61743
6648.37537,0.61780
6646.44662,0.61971
6644.51788,0.62134
6642.58914,0.62117
6640.66040,0.62077
6638.73165,0.62070
6636.80291,0.62075
6634.87417,0.62110
6632.94543,0.62106
6631.01668,0.62064
6629.08794,0.61980
6627.15920,0.61891
6625.23046,0.61995
6623.30171,0.62223
6621.37297,0.62240
6619.44423,0.62051
6617.51549,0.62034
6615.58674,0.62296
6613.65800,0.62610
6611.72926,0.62771
6609.80052,0.62647
6607.87177,0.62382
6605.94303,0.62348
6604.01429,0.62590
6602.08555,0.62799
6600.15680,0.62888
6598.22806,0.63044
6596.29932,0.63179
6594.37058,0.63124
6592.44183,0.63063
6590.51309,0.63115
6588.58435,0.63178
6586.65561,0.63262
6584.72686,0.63310
6582.79812,0.63241
6580.86938,0.63220
6578.94064,0.63314
6577.01190,0.63302
6575.08315,0.63066
6573.15441,0.62895
6571.22567,0.63043
6569.29693,0.63304
6567.36818,0.63471
6565.43944,0.63507
6563.51070,0.63408
6561.58196,0.63394
6559.65321,0.63594
6557.72447,0.63792
6555.79573,0.63888
6553.86699,0.63832
6551.93824,0.63500
6550.00950,0.63152
6548.08076,0.63107
6546.15202,0.63261
6544.22327,0.63427
6542.29453,0.63563
6540.36579,0.63638
6538.43705,0.63673
6536.50830,0.63766
6534.57956,0.63833
6532.65082,0.63703
6530.72208,0.63506
6528.79333,0.63421
6526.86459,0.63410
6524.93585,0.63463
6523.00711,0.63718
6521.07836,0.64040
6519.14962,0.64055
6517.22088,0.63898
6515.29214,0.63892
6513.36339,0.63915
6511.43465,0.63887
6509.50591,0.63913
6507.57717,0.63984
6505.64842,0.64038
6503.71968,0.64000
6501.79094,0.63868
6499.86220,0.63776
6497.93345,0.63784
6496.00471,0.63814
6494.07597,0.63779
6492.14723,0.63753
6490.21848,0.63987
6488.28974,0.64396
6486.36100,0.64576
6484.43226,0.64504
6482.50351,0.64496
6480.57477,0.64556
6478.64603,0.64477
6476.71729,0.64442
6474.78854,0.64546
6472.85980,0.64465
6470.93106,0.64299
6469.00232,0.64417
6467.07357,0.64610
6465.14483,0.64507
6463.21609,0.64242
6461.28735,0.64131
6459.35860,0.64191
6457.42986,0.64248
6455.50112,0.64204
6453.57238,0.64156
6451.64363,0.64217
6449.71489,0.64344
6447.78615,0.64472
6445.85741,0.64534
6443.92866,0.64435
6441.99992,0.64170
6440.07118,0.63933
6438.14244,0.63995
6436.21369,0.64310
6434.28495,0.64533
6432.35621,0.64544
6430.42747,0.64619
6428.49872,0.64911
6426.56998,0.65079
6424.64124,0.64906
6422.71250,0.64722
6420.78375,0.64765
6418.85501,0.64880
6416.92627,0.64927
6414.99753,0.64972
6413.06878,0.65046
6411.14004,0.65018
6409.21130,0.64846
6407.28256,0.64662
6405.35381,0.64547
6403.42507,0.64524
6401.49633,0.64595
6399.56759,0.64697
6397.63884,0.64809
6395.71010,0.65014
6393.78136,0.65287
6391.85262,0.65376
6389.92387,0.65134
6387.99513,0.64866
6386.06639,0.64920
6384.13765,0.65119
6382.20890,0.65139
6380.28016,0.65033
6378.35142,0.64914
6376.42268,0.64794
6374.49393,0.64867
6372.56519,0.65225
6370.63645,0.65494
6368.70771,0.65350
6366.77896,0.65045
6364.85022,0.64917
6362.92148,0.64953
6360.99274,0.65075
6359.06399,0.65189
6357.13525,0.65196
6355.20651,0.65196
6353.27777,0.65287
6351.34902,0.65422
6349.42028,0.65571
6347.49154,0.65666
6345.56280,0.65534
6343.63405,0.65260
6341.70531,0.65227
6339.77657,0.65524
6337.84783,0.65838
6335.91908,0.65918
6333.99034,0.65866
6332.06160,0.65878
6330.13286,0.65837
6328.20411,0.65715
6326.27537,0.65773
6324.34663,0.65930
6322.41789,0.65914
6320.48914,0.65813
6318.56040,0.65849
6316.63166,0.66022
6314.70292,0.66097
6312.77417,0.65957
6310.84543,0.65814
6308.91669,0.65836
6306.98795,0.65946
6305.05920,0.65945
6303.13046,0.65759
6301.20172,0.65627
6299.27298,0.65728
6297.34423,0.65902
6295.41549,0.66076
6293.48675,0.66280
6291.55801,0.66411
6289.62926,0.66513
6287.70052,0.66635
6285.77178,0.66577
6283.84304,0.66369
6281.91429,0.66264
6279.98555,0.66194
6278.05681,0.66020
6276.12807,0.66000
6274.19932,0.66213
6272.27058,0.66282
6270.34184,0.66267
6268.41310,0.66520
6266.48435,0.66801
6264.55561,0.66769
6262.62687,0.66653
6260.69813,0.66726
6258.76938,0.66875
6256.84064,0.66945
6254.91190,0.66907
6252.98316,0.66737
6251.05441,0.66545
6249.12567,0.66483
6247.19693,0.66473
6245.26819,0.66512
6243.33944,0.66772
6241.41070,0.67109
6239.48196,0.67217
6237.55322,0.67167
6235.62447,0.67192
6233.69573,0.67308
6231.76699,0.67413
6229.83825,0.67453
6227.90950,0.67526
6225.98076,0.67748
6224.05202,0.67889
6222.12328,0.67776
6220.19453,0.67661
6218.26579,0.67701
6216.33705,0.67807
6214.40831,0.67885
6212.47956,0.67950
6210.55082,0.68025
6208.62208,0.68028
6206.69334,0.68051
6204.76459,0.68229
6202.83585,0.68405
6200.90711,0.68441
6198.97837,0.68431
6197.04962,0.68518
6195.12088,0.68688
6193.19214,0.68789
6191.26340,0.68715
6189.33465,0.68504
6187.40591,0.68385
6185.47717,0.68508
6183.54843,0.68701
6181.61968,0.68832
6179.69094,0.68944
6177.76220,0.68994
6175.83346,0.68951
6173.90471,0.68958
6171.97597,0.69121
6170.04723,0.69337
6168.11849,0.69388
6166.18974,0.69196
6164.26100,0.69001
6162.33226,0.68981
6160.40352,0.69000
6158.47477,0.68966
6156.54603,0.68961
6154.61729,0.69055
6152.68855,0.69110
6150.75980,0.68991
6148.83106,0.68881
6146.90232,0.68982
6144.97358,0.69249
6143.04483,0.69516
6141.11609,0.69656
6139.18735,0.69707
6137.25861,0.69725
6135.32986,0.69718
6133.40112,0.69746
6131.47238,0.69758
6129.54364,0.69662
6127.61489,0.69564
6125.68615,0.69510
6123.75741,0.69464
6121.82867,0.69502
6119.89992,0.69621
6117.97118,0.69707
6116.04244,0.69701
6114.11370,0.69673
6112.18495,0.69752
6110.25621,0.69887
6108.32747,0.69913
6106.39873,0.69804
6104.46998,0.69673
6102.54124,0.69586
6100.61250,0.69495
6098.68376,0.69445
6096.75501,0.69586
6094.82627,0.69810
6092.89753,0.69869
6090.96879,0.69843
6089.04004,0.69902
6087.11130,0.69951
6085.18256,0.69870
6083.25382,0.69708
6081.32507,0.69548
6079.39633,0.69452
6077.46759,0.69518
6075.53885,0.69611
6073.61010,0.69508
6071.68136,0.69385
6069.75262,0.69483
6067.82388,0.69704
6065.89513,0.69860
6063.96639,0.69886
6062.03765,0.69779
6060.10891,0.69572
6058.18016,0.69349
6056.25142,0.69169
6054.32268,0.69071
6052.39394,0.69116
6050.46519,0.69321
6048.53645,0.69515
6046.60771,0.69465
6044.67897,0.69249
6042.75022,0.69091
6040.82148,0.68986
6038.89274,0.68886
6036.96400,0.68856
6035.03525,0.68866
6033.10651,0.68838
6031.17777,0.68829
6029.24903,0.68822
6027.32029,0.68738
6025.39154,0.68643
6023.46280,0.68598
6021.53406,0.68607
6019.60532,0.68654
6017.67657,0.68662
6015.74783,0.68562
6013.81909,0.68398
6011.89035,0.68284
6009.96160,0.68329
6008.03286,0.68524
6006.10412,0.68648
6004.17538,0.68566
6002.24663,0.68456
6000.31789,0.68444
5998.38915,0.68365
5996.46041,0.68129
5994.53166,0.67948
5992.60292,0.68027
5990.67418,0.68247
5988.74544,0.68315
5986.81669,0.68210
5984.88795,0.68115
5982.95921,0.68045
5981.03047,0.68007
5979.10172,0.68059
5977.17298,0.68122
5975.24424,0.68123
5973.31550,0.68097
5971.38675,0.68080
5969.45801,0.68076
5967.52927,0.67998
5965.60053,0.67819
5963.67178,0.67716
5961.74304,0.67777
5959.81430,0.67897
5957.88556,0.67957
5955.95681,0.67901
5954.02807,0.67822
5952.09933,0.67859
5950.17059,0.67947
5948.24184,0.67893
5946.31310,0.67709
5944.38436,0.67644
5942.45562,0.67775
5940.52687,0.67866
5938.59813,0.67787
5936.66939,0.67749
5934.74065,0.67895
5932.81190,0.68053
5930.88316,0.68087
5928.95442,0.68052
5927.02568,0.67994
5925.09693,0.67886
5923.16819,0.67740
5921.23945,0.67636
5919.31071,0.67621
5917.38196,0.67633
5915.45322,0.67590
5913.52448,0.67550
5911.59574,0.67574
5909.66699,0.67581
5907.73825,0.67546
5905.80951,0.67493
5903.88077,0.67412
5901.95202,0.67324
5900.02328,0.67279
5898.09454,0.67346
5896.16580,0.67479
5894.23705,0.67544
5892.30831,0.67504
5890.37957,0.67400
5888.45083,0.67291
5886.52208,0.67195
5884.59334,0.67083
5882.66460,0.67033
5880.73586,0.67115
5878.80711,0.67193
5876.87837,0.67191
5874.94963,0.67157
5873.02089,0.67062
5871.09214,0.66953
5869.16340,0.66944
5867.23466,0.66976
5865.30592,0.66999
5863.37717,0.67062
5861.44843,0.67098
5859.51969,0.67026
5857.59095,0.66962
5855.66220,0.67026
5853.73346,0.67089
5851.80472,0.66978
5849.87598,0.66800
5847.94723,0.66768
5846.01849,0.66817
5844.08975,0.66817
5842.16101,0.66877
5840.23226,0.67044
5838.30352,0.67149
5836.37478,0.67063
5834.44604,0.66897
5832.51729,0.66829
5830.58855,0.66816
5828.65981,0.66793
5826.73107,0.66779
5824.80232,0.66746
5822.87358,0.66654
5820.94484,0.66554
5819.01610,0.66584
5817.08735,0.66699
5815.15861,0.66664
5813.22987,0.66481
5811.30113,0.66331
5809.37238,0.66302
5807.44364,0.66367
5805.51490,0.66460
5803.58616,0.66480
5801.65741,0.66367
5799.72867,0.66264
5797.79993,0.66323
5795.87119,0.66476
5793.94244,0.66608
5792.01370,0.66674
5790.08496,0.66620
5788.15622,0.66484
5786.22747,0.66399
5784.29873,0.66374
5782.36999,0.66368
5780.44125,0.66421
5778.51250,0.66532
5776.58376,0.66588
5774.65502,0.66552
5772.72628,0.66567
5770.79753,0.66657
5768.86879,0.66708
5766.94005,0.66803
5765.01131,0.66946
5763.08256,0.66958
5761.15382,0.66878
5759.22508,0.66846
5757.29634,0.66851
5755.36759,0.66868
5753.43885,0.66859
5751.51011,0.66811
5749.58137,0.66854
5747.65262,0.66994
5745.72388,0.67023
5743.79514,0.66940
5741.86640,0.66907
5739.93765,0.66923
5738.00891,0.66902
5736.08017,0.66870
5734.15143,0.66888
5732.22268,0.66895
5730.29394,0.66868
5728.36520,0.66878
5726.43646,0.66876
5724.50771,0.66832
5722.57897,0.66831
5720.65023,0.66907
5718.72149,0.67009
5716.79274,0.67042
5714.86400,0.67008
5712.93526,0.67024
5711.00652,0.67078
5709.07777,0.67079
5707.14903,0.67033
5705.22029,0.66937
5703.29155,0.66791
5701.36280,0.66725
5699.43406,0.66820
5697.50532,0.66960
5695.57658,0.67048
5693.64783,0.67125
5691.71909,0.67189
5689.79035,0.67176
5687.86161,0.67133
5685.93286,0.67110
5684.00412,0.67038
5682.07538,0.66965
5680.14664,0.67003
5678.21789,0.67066
5676.28915,0.67055
5674.36041,0.67017
5672.43167,0.66975
5670.50292,0.66941
5668.57418,0.66996
5666.64544,0.67115
5664.71670,0.67142
5662.78795,0.67021
5660.85921,0.66890
5658.93047,0.66852
5657.00173,0.66816
5655.07298,0.66738
5653.14424,0.66742
5651.21550,0.66854
5649.28676,0.66971
5647.35801,0.67028
5645.42927,0.67039
5643.50053,0.67035
5641.57179,0.67036
5639.64304,0.67009
5637.71430,0.66905
5635.78556,0.66826
5633.85682,0.66861
5631.92807,0.66895
5629.99933,0.66895
5628.07059,0.66935
5626.14185,0.66980
5624.21310,0.66986
5622.28436,0.66954
5620.35562,0.66927
5618.42688,0.66911
5616.49813,0.66815
5614.56939,0.66660
5612.64065,0.66612
5610.71191,0.66705
5608.78316,0.66847
5606.85442,0.66991
5604.92568,0.67063
5602.99694,0.67047
5601.06819,0.67051
5599.13945,0.67087
5597.21071,0.67069
5595.28197,0.66978
5593.35322,0.66914
5591.42448,0.66932
5589.49574,0.66936
5587.56700,0.66909
5585.63825,0.66885
5583.70951,0.66854
5581.78077,0.66892
5579.85203,0.66984
5577.92328,0.67014
5575.99454,0.66996
5574.06580,0.66987
5572.13706,0.67006
5570.20831,0.67078
5568.27957,0.67153
5566.35083,0.67127
5564.42209,0.67022
5562.49334,0.67005
5560.56460,0.67145
5558.63586,0.67299
5556.70712,0.67366
5554.77837,0.67393
5552.84963,0.67402
5550.92089,0.67362
5548.99215,0.67243
5547.06340,0.67134
5545.13466,0.67163
5543.20592,0.67255
5541.27718,0.67299
5539.34843,0.67329
5537.41969,0.67353
5535.49095,0.67345
5533.56221,0.67375
5531.63346,0.67499
5529.70472,0.67589
5527.77598,0.67495
5525.84724,0.67347
5523.91849,0.67376
5521.98975,0.67508
5520.06101,0.67519
5518.13227,0.67456
5516.20352,0.67488
5514.27478,0.67529
5512.34604,0.67465
5510.41730,0.67452
5508.48855,0.67584
5506.55981,0.67625
5504.63107,0.67482
5502.70233,0.67394
5500.77358,0.67451
5498.84484,0.67511
5496.91610,0.67516
5494.98736,0.67514
5493.05861,0.67517
5491.12987,0.67543
5489.20113,0.67653
5487.27239,0.67795
5485.34365,0.67856
5483.41490,0.67814
5481.48616,0.67773
5479.55742,0.67829
5477.62868,0.67876
5475.69993,0.67828
5473.77119,0.67793
5471.84245,0.67833
5469.91371,0.67890
5467.98496,0.67916
5466.05622,0.67867
5464.12748,0.67768
5462.19874,0.67733
5460.26999,0.67780
5458.34125,0.67837
5456.41251,0.67866
5454.48377,0.67862
5452.55502,0.67892
5450.62628,0.67964
5448.69754,0.67991
5446.76880,0.67973
5444.84005,0.67935
5442.91131,0.67941
5440.98257,0.68041
5439.05383,0.68144
5437.12508,0.68220
5435.19634,0.68300
5433.26760,0.68332
5431.33886,0.68299
5429.41011,0.68266
5427.48137,0.68317
5425.55263,0.68427
5423.62389,0.68453
5421.69514,0.68384
5419.76640,0.68396
5417.83766,0.68530
5415.90892,0.68666
5413.98017,0.68746
5412.05143,0.68769
5410.12269,0.68718
5408.19395,0.68642
5406.26520,0.68611
5404.33646,0.68575
5402.40772,0.68492
5400.47898,0.68466
5398.55023,0.68549
5396.62149,0.68677
5394.69275,0.68771
5392.76401,0.68794
5390.83526,0.68805
5388.90652,0.68831
5386.97778,0.68804
5385.04904,0.68717
5383.12029,0.68637
5381.19155,0.68619
5379.26281,0.68611
5377.33407,0.68531
5375.40532,0.68444
5373.47658,0.68415
5371.54784,0.68399
5369.61910,0.68374
5367.69035,0.68353
5365.76161,0.68341
5363.83287,0.68356
5361.90413,0.68396
5359.97538,0.68427
5358.04664,0.68437
5356.11790,0.68390
5354.18916,0.68304
5352.26041,0.68288
5350.33167,0.68314
5348.40293,0.68269
5346.47419,0.68185
5344.54544,0.68145
5342.61670,0.68164
5340.68796,0.68181
5338.75922,0.68119
5336.83047,0.67999
5334.90173,0.67868
5332.97299,0.67721
5331.04425,0.67606
5329.11550,0.67531
5327.18676,0.67420
5325.25802,0.67252
5323.32928,0.67113
5321.40053,0.67075
5319.47179,0.67040
5317.54305,0.66839
5315.61431,0.66547
5313.68556,0.66410
5311.75682,0.66374
5309.82808,0.66200
5307.89934,0.65932
5305.97059,0.65685
5304.04185,0.65431
5302.11311,0.65198
5300.18437,0.65027
5298.25562,0.64865
5296.32688,0.64660
5294.39814,0.64396
5292.46940,0.64096
5290.54065,0.63790
5288.61191,0.63466
5286.68317,0.63122
5284.75443,0.62800
5282.82568,0.62511
5280.89694,0.62212
5278.96820,0.61877
5277.03946,0.61511
5275.11071,0.61122
5273.18197,0.60714
5271.25323,0.60334
5269.32449,0.60049
5267.39574,0.59800
5265.46700,0.59453
5263.53826,0.59022
5261.60952,0.58620
5259.68077,0.58248
5257.75203,0.57861
5255.82329,0.57509
5253.89455,0.57237
5251.96580,0.56972
5250.03706,0.56652
5248.10832,0.56328
5246.17958,0.56072
5244.25083,0.55827
5242.32209,0.55535
5240.39335,0.55235
5238.46461,0.54944
5236.53586,0.54663
5234.60712,0.54418
5232.67838,0.54247
5230.74964,0.54138
5228.82089,0.54015
5226.89215,0.53878
5224.96341,0.53737
5223.03467,0.53558
5221.10592,0.53374
5219.17718,0.53231
5217.24844,0.53123
5215.31970,0.53018
5213.39095,0.52893
5211.46221,0.52776
5209.53347,0.52685
5207.60473,0.52603
5205.67598,0.52537
5203.74724,0.52497
5201.81850,0.52440
5199.88976,0.52350
5197.96101,0.52286
5196.03227,0.52292
5194.10353,0.52320
5192.17479,0.52288
5190.24604,0.52235
5188.31730,0.52227
5186.38856,0.52209
5184.45982,0.52147
5182.53107,0.52116
5180.60233,0.52183
5178.67359,0.52295
5176.74485,0.52342
5174.81610,0.52337
5172.88736,0.52363
5170.95862,0.52426
5169.02988,0.52491
5167.10113,0.52544
5165.17239,0.52611
5163.24365,0.52651
5161.31491,0.52591
5159.38616,0.52546
5157.45742,0.52637
5155.52868,0.52787
5153.59994,0.52909
5151.67119,0.53003
5149.74245,0.53064
5147.81371,0.53086
5145.88497,0.53113
5143.95622,0.53172
5142.02748,0.53226
5140.09874,0.53243
5138.17000,0.53278
5136.24125,0.53371
5134.31251,0.53471
5132.38377,0.53550
5130.45503,0.53608
5128.52628,0.53614
5126.59754,0.53569
5124.66880,0.53548
5122.74006,0.53614
5120.81131,0.53702
5118.88257,0.53733
5116.95383,0.53725
5115.02509,0.53689
5113.09634,0.53632
5111.16760,0.53605
5109.23886,0.53601
5107.31012,0.53585
5105.38137,0.53571
5103.45263,0.53532
5101.52389,0.53444
5099.59515,0.53359
5097.66640,0.53309
5095.73766,0.53295
5093.80892,0.53297
5091.88018,0.53263
5089.95143,0.53203
5088.02269,0.53163
5086.09395,0.53123
5084.16521,0.53076
5082.23646,0.53069
5080.30772,0.53072
5078.37898,0.53066
5076.45024,0.53093
5074.52149,0.53148
5072.59275,0.53214
5070.66401,0.53298
5068.73527,0.53384
5066.80652,0.53453
5064.87778,0.53531
5062.94904,0.53652
5061.02030,0.53756
5059.09155,0.53771
5057.16281,0.53755
5055.23407,0.53811
5053.30533,0.53920
5051.37658,0.53995
5049.44784,0.54079
5047.51910,0.54243
5045.59036,0.54395
5043.66161,0.54460
5041.73287,0.54523
5039.80413,0.54646
5037.87539,0.54773
5035.94664,0.54858
5034.01790,0.54921
5032.08916,0.55001
5030.16042,0.55086
5028.23167,0.55149
5026.30293,0.55221
5024.37419,0.55314
5022.44545,0.55380
5020.51670,0.55424
5018.58796,0.55499
5016.65922,0.55599
5014.73048,0.55667
5012.80173,0.55681
5010.87299,0.55703
5008.94425,0.55777
5007.01551,0.55881
5005.08676,0.56009
5003.15802,0.56134
5001.22928,0.56186
4999.30054,0.56183
4997.37179,0.56198
4995.44305,0.56216
4993.51431,0.56213
4991.58557,0.56232
4989.65682,0.56282
4987.72808,0.56328
4985.79934,0.56341
4983.87060,0.56347
4981.94185,0.56370
4980.01311,0.56361
4978.08437,0.56306
4976.15563,0.56276
4974.22688,0.56287
4972.29814,0.56304
4970.36940,0.56296
4968.44066,0.56222
4966.51191,0.56106
4964.58317,0.56029
4962.65443,0.56025
4960.72569,0.55994
4958.79694,0.55855
4956.86820,0.55708
4954.93946,0.55603
4953.01072,0.55456
4951.08197,0.55322
4949.15323,0.55281
4947.22449,0.55229
4945.29575,0.55089
4943.36700,0.54932
4941.43826,0.54825
4939.50952,0.54738
4937.58078,0.54608
4935.65204,0.54488
4933.72329,0.54440
4931.79455,0.54368
4929.86581,0.54229
4927.93707,0.54102
4926.00832,0.54004
4924.07958,0.53918
4922.15084,0.53835
4920.22210,0.53741
4918.29335,0.53658
4916.36461,0.53605
4914.43587,0.53563
4912.50713,0.53521
4910.57838,0.53475
4908.64964,0.53410
4906.72090,0.53329
4904.79216,0.53257
4902.86341,0.53205
4900.93467,0.53116
4899.00593,0.52947
4897.07719,0.52769
4895.14844,0.52662
4893.21970,0.52605
4891.29096,0.52550
4889.36222,0.52474
4887.43347,0.52371
4885.50473,0.52292
4883.57599,0.52254
4881.64725,0.52174
4879.71850,0.52048
4877.78976,0.51941
4875.86102,0.51862
4873.93228,0.51801
4872.00353,0.51737
4870.07479,0.51620
4868.14605,0.51455
4866.21731,0.51294
4864.28856,0.51137
4862.35982,0.50994
4860.43108,0.50925
4858.50234,0.50911
4856.57359,0.50837
4854.64485,0.50693
4852.71611,0.50602
4850.78737,0.50579
4848.85862,0.50517
4846.92988,0.50383
4845.00114,0.50223
4843.07240,0.50106
4841.14365,0.50042
4839.21491,0.49944
4837.28617,0.49802
4835.35743,0.49693
4833.42868,0.49654
4831.49994,0.49650
4829.57120,0.49625
4827.64246,0.49533
4825.71371,0.49376
4823.78497,0.49224
4821.85623,0.49140
4819.92749,0.49113
4817.99874,0.49095
4816.07000,0.49058
4814.14126,0.49000
4812.21252,0.48919
4810.28377,0.48815
4808.35503,0.48693
4806.42629,0.48584
4804.49755,0.48561
4802.56880,0.48599
4800.64006,0.48614
4798.71132,0.48599
4796.78258,0.48561
4794.85383,0.48514
4792.92509,0.48497
4790.99635,0.48499
4789.06761,0.48499
4787.13886,0.48509
4785.21012,0.48502
4783.28138,0.48470
4781.35264,0.48450
4779.42389,0.48442
4777.49515,0.48421
4775.56641,0.48395
4773.63767,0.48361
4771.70892,0.48318
4769.78018,0.48295
4767.85144,0.48276
4765.92270,0.48234
4763.99395,0.48211
4762.06521,0.48226
4760.13647,0.48234
4758.20773,0.48194
4756.27898,0.48123
4754.35024,0.48062
4752.42150,0.48023
4750.49276,0.48012
4748.56401,0.48024
4746.63527,0.48025
4744.70653,0.47994
4742.77779,0.47954
4740.84904,0.47956
4738.92030,0.48016
4736.99156,0.48082
4735.06282,0.48093
4733.13407,0.48055
4731.20533,0.48026
4729.27659,0.48032
4727.34785,0.48068
4725.41910,0.48107
4723.49036,0.48126
4721.56162,0.48125
4719.63288,0.48119
4717.70413,0.48129
4715.77539,0.48144
4713.84665,0.48134
4711.91791,0.48119
4709.98916,0.48112
4708.06042,0.48096
4706.13168,0.48075
4704.20294,0.48063
4702.27419,0.48064
4700.34545,0.48084
4698.41671,0.48105
4696.48797,0.48102
4694.55922,0.48101
4692.63048,0.48123
4690.70174,0.48154
4688.77300,0.48181
4686.84425,0.48184
4684.91551,0.48149
4682.98677,0.48094
4681.05803,0.48055
4679.12928,0.48057
4677.20054,0.48094
4675.27180,0.48140
4673.34306,0.48206
4671.41431,0.48300
4669.48557,0.48388
4667.55683,0.48440
4665.62809,0.48462
4663.69934,0.48476
4661.77060,0.48466
4659.84186,0.48409
4657.91312,0.48363
4655.98437,0.48389
4654.05563,0.48457
4652.12689,0.48514
4650.19815,0.48535
4648.26940,0.48535
4646.34066,0.48537
4644.41192,0.48557
4642.48318,0.48593
4640.55443,0.48626
4638.62569,0.48655
4636.69695,0.48702
4634.76821,0.48770
4632.83946,0.48826
4630.91072,0.48864
4628.98198,0.48905
4627.05324,0.48950
4625.12449,0.48998
4623.19575,0.49068
4621.26701,0.49161
4619.33827,0.49266
4617.40952,0.49338
4615.48078,0.49348
4613.55204,0.49365
4611.62330,0.49444
4609.69455,0.49536
4607.76581,0.49598
4605.83707,0.49645
4603.90833,0.49699
4601.97958,0.49783
4600.05084,0.49872
4598.12210,0.49904
4596.19336,0.49900
4594.26461,0.49928
4592.33587,0.49998
4590.40713,0.50079
4588.47839,0.50132
4586.54964,0.50133
4584.62090,0.50136
4582.69216,0.50198
4580.76342,0.50272
4578.83467,0.50290
4576.90593,0.50296
4574.97719,0.50341
4573.04845,0.50387
4571.11970,0.50443
4569.19096,0.50557
4567.26222,0.50659
4565.33348,0.50654
4563.40473,0.50571
4561.47599,0.50517
4559.54725,0.50528
4557.61851,0.50539
4555.68976,0.50524
4553.76102,0.50537
4551.83228,0.50598
4549.90354,0.50660
4547.97479,0.50674
4546.04605,0.50669
4544.11731,0.50694
4542.18857,0.50733
4540.25982,0.50762
4538.33108,0.50787
4536.40234,0.50811
4534.47360,0.50830
4532.54485,0.50841
4530.61611,0.50856
4528.68737,0.50888
4526.75863,0.50911
4524.82988,0.50914
4522.90114,0.50929
4520.97240,0.50969
4519.04366,0.51007
4517.11491,0.50987
4515.18617,0.50927
4513.25743,0.50926
4511.32869,0.50996
4509.39994,0.51064
4507.47120,0.51082
4505.54246,0.51048
4503.61372,0.50992
4501.68497,0.50948
4499.75623,0.50924
4497.82749,0.50878
4495.89875,0.50810
4493.97000,0.50763
4492.04126,0.50733
4490.11252,0.50688
4488.18378,0.50580
4486.25503,0.50395
4484.32629,0.50224
4482.39755,0.50133
4480.46881,0.50072
4478.54006,0.49964
4476.61132,0.49775
4474.68258,0.49561
4472.75384,0.49393
4470.82509,0.49241
4468.89635,0.49052
4466.96761,0.48851
4465.03887,0.48701
4463.11012,0.48591
4461.18138,0.48444
4459.25264,0.48217
4457.32390,0.47941
4455.39515,0.47692
4453.46641,0.47512
4451.53767,0.47346
4449.60893,0.47152
4447.68018,0.46955
4445.75144,0.46759
4443.82270,0.46553
4441.89396,0.46338
4439.96521,0.46089
4438.03647,0.45809
4436.10773,0.45564
4434.17899,0.45388
4432.25024,0.45217
4430.32150,0.44992
4428.39276,0.44745
4426.46402,0.44534
4424.53527,0.44361
4422.60653,0.44188
4420.67779,0.43984
4418.74905,0.43761
4416.82030,0.43560
4414.89156,0.43405
4412.96282,0.43305
4411.03408,0.43224
4409.10533,0.43122
4407.17659,0.43030
4405.24785,0.42974
4403.31911,0.42920
4401.39036,0.42855
4399.46162,0.42810
4397.53288,0.42821
4395.60414,0.42888
4393.67539,0.42966
4391.74665,0.43022
4389.81791,0.43061
4387.88917,0.43107
4385.96043,0.43176
4384.03168,0.43235
4382.10294,0.43267
4380.17420,0.43332
4378.24546,0.43442
4376.31671,0.43549
4374.38797,0.43657
4372.45923,0.43780
4370.53049,0.43907
4368.60174,0.44045
4366.67300,0.44177
4364.74426,0.44276
4362.81552,0.44339
4360.88677,0.44365
4358.95803,0.44401
4357.02929,0.44471
4355.10055,0.44526
4353.17180,0.44567
4351.24306,0.44606
4349.31432,0.44603
4347.38558,0.44573
4345.45683,0.44563
4343.52809,0.44562
4341.59935,0.44561
4339.67061,0.44558
4337.74186,0.44523
4335.81312,0.44450
4333.88438,0.44373
4331.95564,0.44305
4330.02689,0.44240
4328.09815,0.44175
4326.16941,0.44095
4324.24067,0.44007
4322.31192,0.43945
4320.38318,0.43916
4318.45444,0.43891
4316.52570,0.43856
4314.59695,0.43818
4312.66821,0.43793
4310.73947,0.43771
4308.81073,0.43732
4306.88198,0.43682
4304.95324,0.43635
4303.02450,0.43568
4301.09576,0.43470
4299.16701,0.43389
4297.23827,0.43329
4295.30953,0.43248
4293.38079,0.43159
4291.45204,0.43087
4289.52330,0.43030
4287.59456,0.42976
4285.66582,0.42911
4283.73707,0.42854
4281.80833,0.42837
4279.87959,0.42830
4277.95085,0.42816
4276.02210,0.42834
4274.09336,0.42883
4272.16462,0.42941
4270.23588,0.42992
4268.30713,0.43021
4266.37839,0.43062
4264.44965,0.43141
4262.52091,0.43208
4260.59216,0.43227
4258.66342,0.43220
4256.73468,0.43235
4254.80594,0.43288
4252.87719,0.43340
4250.94845,0.43359
4249.01971,0.43375
4247.09097,0.43413
4245.16222,0.43461
4243.23348,0.43504
4241.30474,0.43535
4239.37600,0.43547
4237.44725,0.43542
4235.51851,0.43545
4233.58977,0.43563
4231.66103,0.43570
4229.73228,0.43566
4227.80354,0.43578
4225.87480,0.43613
4223.94606,0.43642
4222.01731,0.43646
4220.08857,0.43660
4218.15983,0.43695
4216.23109,0.43703
4214.30234,0.43667
4212.37360,0.43620
4210.44486,0.43595
4208.51612,0.43596
4206.58737,0.43597
4204.65863,0.43580
4202.72989,0.43548
4200.80115,0.43531
4198.87240,0.43540
4196.94366,0.43556
4195.01492,0.43565
4193.08618,0.43574
4191.15743,0.43586
4189.22869,0.43595
4187.29995,0.43615
4185.37121,0.43646
4183.44246,0.43675
4181.51372,0.43725
4179.58498,0.43798
4177.65624,0.43849
4175.72749,0.43875
4173.79875,0.43912
4171.87001,0.43967
4169.94127,0.44039
4168.01252,0.44102
4166.08378,0.44131
4164.15504,0.44155
4162.22630,0.44195
4160.29755,0.44220
4158.36881,0.44200
4156.44007,0.44147
4154.51133,0.44090
4152.58258,0.44041
4150.65384,0.44014
4148.72510,0.44000
4146.79636,0.43949
4144.86761,0.43853
4142.93887,0.43747
4141.01013,0.43653
4139.08139,0.43572
4137.15264,0.43497
4135.22390,0.43419
4133.29516,0.43330
4131.36642,0.43220
4129.43767,0.43090
4127.50893,0.42955
4125.58019,0.42838
4123.65145,0.42744
4121.72270,0.42655
4119.79396,0.42543
4117.86522,0.42408
4115.93648,0.42271
4114.00773,0.42119
4112.07899,0.41939
4110.15025,0.41773
4108.22151,0.41642
4106.29276,0.41513
4104.36402,0.41373
4102.43528,0.41230
4100.50654,0.41079
4098.57779,0.40921
4096.64905,0.40767
4094.72031,0.40614
4092.79157,0.40454
4090.86282,0.40288
4088.93408,0.40123
4087.00534,0.39965
4085.07660,0.39806
4083.14785,0.39641
4081.21911,0.39479
4079.29037,0.39315
4077.36163,0.39137
4075.43288,0.38945
4073.50414,0.38725
4071.57540,0.38503
4069.64666,0.38338
4067.71791,0.38214
4065.78917,0.38067
4063.86043,0.37885
4061.93169,0.37697
4060.00294,0.37511
4058.07420,0.37317
4056.14546,0.37138
4054.21672,0.36992
4052.28797,0.36846
4050.35923,0.36675
4048.43049,0.36503
4046.50175,0.36346
4044.57300,0.36201
4042.64426,0.36040
4040.71552,0.35863
4038.78678,0.35712
4036.85803,0.35587
4034.92929,0.35466
4033.00055,0.35362
4031.07181,0.35271
4029.14306,0.35173
4027.21432,0.35081
4025.28558,0.35008
4023.35684,0.34924
4021.42809,0.34825
4019.49935,0.34752
4017.57061,0.34723
4015.64187,0.34725
4013.71312,0.34725
4011.78438,0.34690
4009.85564,0.34649
4007.92690,0.34672
4005.99815,0.34755
4004.06941,0.34830
4002.14067,0.34873
4000.21193,0.34892
3998.28318,0.34891
3996.35444,0.34906
3994.42570,0.34957
3992.49696,0.35026
3990.56821,0.35098
3988.63947,0.35155
3986.71073,0.35205
3984.78199,0.35273
3982.85324,0.35355
3980.92450,0.35414
3978.99576,0.35431
3977.06702,0.35445
3975.13827,0.35507
3973.20953,0.35600
3971.28079,0.35675
3969.35205,0.35743
3967.42330,0.35830
3965.49456,0.35931
3963.56582,0.36024
3961.63708,0.36092
3959.70833,0.36154
3957.77959,0.36234
3955.85085,0.36317
3953.92211,0.36404
3951.99336,0.36501
3950.06462,0.36592
3948.13588,0.36680
3946.20714,0.36793
3944.27839,0.36916
3942.34965,0.37020
3940.42091,0.37089
3938.49217,0.37132
3936.56342,0.37193
3934.63468,0.37275
3932.70594,0.37345
3930.77720,0.37413
3928.84845,0.37489
3926.91971,0.37554
3924.99097,0.37627
3923.06223,0.37720
3921.13348,0.37820
3919.20474,0.37936
3917.27600,0.38046
3915.34726,0.38119
3913.41851,0.38173
3911.48977,0.38234
3909.56103,0.38311
3907.63229,0.38393
3905.70354,0.38469
3903.77480,0.38543
3901.84606,0.38614
3899.91732,0.38672
3897.98857,0.38735
3896.05983,0.38825
3894.13109,0.38913
3892.20235,0.38969
3890.27360,0.39019
3888.34486,0.39079
3886.41612,0.39128
3884.48738,0.39154
3882.55863,0.39193
3880.62989,0.39260
3878.70115,0.39328
3876.77241,0.39409
3874.84366,0.39516
3872.91492,0.39611
3870.98618,0.39677
3869.05744,0.39746
3867.12869,0.39843
3865.19995,0.39960
3863.27121,0.40063
3861.34247,0.40134
3859.41372,0.40231
3857.48498,0.40398
3855.55624,0.40581
3853.62750,0.40685
3851.69875,0.40712
3849.77001,0.40756
3847.84127,0.40843
3845.91253,0.40955
3843.98378,0.41057
3842.05504,0.41134
3840.12630,0.41207
3838.19756,0.41277
3836.26882,0.41330
3834.34007,0.41402
3832.41133,0.41495
3830.48259,0.41538
3828.55385,0.41508
3826.62510,0.41457
3824.69636,0.41441
3822.76762,0.41486
3820.83888,0.41565
3818.91013,0.41611
3816.98139,0.41613
3815.05265,0.41595
3813.12391,0.41577
3811.19516,0.41578
3809.26642,0.41593
3807.33768,0.41591
3805.40894,0.41565
3803.48019,0.41547
3801.55145,0.41552
3799.62271,0.41554
3797.69397,0.41542
3795.76522,0.41531
3793.83648,0.41520
3791.90774,0.41497
3789.97900,0.41472
3788.05025,0.41461
3786.12151,0.41444
3784.19277,0.41398
3782.26403,0.41348
3780.33528,0.41317
3778.40654,0.41284
3776.47780,0.41230
3774.54906,0.41175
3772.62031,0.41117
3770.69157,0.41052
3768.76283,0.41001
3766.83409,0.40961
3764.90534,0.40902
3762.97660,0.40817
3761.04786,0.40721
3759.11912,0.40632
3757.19037,0.40557
3755.26163,0.40494
3753.33289,0.40451
3751.40415,0.40415
3749.47540,0.40344
3747.54666,0.40235
3745.61792,0.40081
3743.68918,0.39897
3741.76043,0.39780
3739.83169,0.39724
3737.90295,0.39644
3735.97421,0.39503
3734.04546,0.39322
3732.11672,0.39133
3730.18798,0.38967
3728.25924,0.38818
3726.33049,0.38647
3724.40175,0.38445
3722.47301,0.38215
3720.54427,0.37966
3718.61552,0.37724
3716.68678,0.37511
3714.75804,0.37312
3712.82930,0.37074
3710.90055,0.36772
3708.97181,0.36450
3707.04307,0.36135
3705.11433,0.35818
3703.18558,0.35475
3701.25684,0.35077
3699.32810,0.34643
3697.39936,0.34199
3695.47061,0.33759
3693.54187,0.33342
3691.61313,0.32918
3689.68439,0.32407
3687.75564,0.31786
3685.82690,0.31143
3683.89816,0.30536
3681.96942,0.29932
3680.04067,0.29302
3678.11193,0.28649
3676.18319,0.27914
3674.25445,0.27117
3672.32570,0.26372
3670.39696,0.25603
3668.46822,0.24816
3666.53948,0.24138
3664.61073,0.23503
3662.68199,0.22847
3660.75325,0.22197
3658.82451,0.21564
3656.89576,0.20910
3654.96702,0.20257
3653.03828,0.19686
3651.10954,0.19169
3649.18079,0.18630
3647.25205,0.18075
3645.32331,0.17571
3643.39457,0.17147
3641.46582,0.16756
3639.53708,0.16352
3637.60834,0.15948
3635.67960,0.15571
3633.75085,0.15220
3631.82211,0.14894
3629.89337,0.14560
3627.96463,0.14189
3626.03588,0.13830
3624.10714,0.13523
3622.17840,0.13259
3620.24966,0.13001
3618.32091,0.12719
3616.39217,0.12436
3614.46343,0.12164
3612.53469,0.11892
3610.60594,0.11630
3608.67720,0.11396
3606.74846,0.11185
3604.81972,0.10960
3602.89097,0.10712
3600.96223,0.10468
3599.03349,0.10234
3597.10475,0.10026
3595.17600,0.09857
3593.24726,0.09683
3591.31852,0.09487
3589.38978,0.09295
3587.46103,0.09106
3585.53229,0.08921
3583.60355,0.08741
3581.67481,0.08569
3579.74606,0.08427
3577.81732,0.08302
3575.88858,0.08158
3573.95984,0.08011
3572.03109,0.07877
3570.10235,0.07751
3568.17361,0.07630
3566.24487,0.07499
3564.31612,0.07375
3562.38738,0.07270
3560.45864,0.07169
3558.52990,0.07055
3556.60115,0.06935
3554.67241,0.06846
3552.74367,0.06781
3550.81493,0.06678
3548.88618,0.06552
3546.95744,0.06465
3545.02870,0.06401
3543.09996,0.06320
3541.17121,0.06238
3539.24247,0.06174
3537.31373,0.06108
3535.38499,0.06018
3533.45624,0.05917
3531.52750,0.05831
3529.59876,0.05776
3527.67002,0.05745
3525.74127,0.05701
3523.81253,0.05643
3521.88379,0.05571
3519.95505,0.05486
3518.02630,0.05395
3516.09756,0.05296
3514.16882,0.05213
3512.24008,0.05149
3510.31133,0.05078
3508.38259,0.05005
3506.45385,0.04959
3504.52511,0.04944
3502.59636,0.04930
3500.66762,0.04894
3498.73888,0.04828
3496.81014,0.04748
3494.88139,0.04689
3492.95265,0.04652
3491.02391,0.04611
3489.09517,0.04572
3487.16642,0.04547
3485.23768,0.04512
3483.30894,0.04467
3481.38020,0.04436
3479.45145,0.04422
3477.52271,0.04396
3475.59397,0.04345
3473.66523,0.04297
3471.73648,0.04267
3469.80774,0.04238
3467.87900,0.04214
3465.95026,0.04205
3464.02151,0.04188
3462.09277,0.04155
3460.16403,0.04146
3458.23529,0.04169
3456.30654,0.04169
3454.37780,0.04120
3452.44906,0.04070
3450.52032,0.04074
3448.59157,0.04114
3446.66283,0.04127
3444.73409,0.04093
3442.80535,0.04049
3440.87660,0.04039
3438.94786,0.04053
3437.01912,0.04056
3435.09038,0.04042
3433.16163,0.04029
3431.23289,0.04025
3429.30415,0.04028
3427.37541,0.04032
3425.44666,0.04023
3423.51792,0.03998
3421.58918,0.03995
3419.66044,0.04029
3417.73169,0.04057
3415.80295,0.04046
3413.87421,0.04021
3411.94547,0.04008
3410.01672,0.03997
3408.08798,0.03974
3406.15924,0.03971
3404.23050,0.04010
3402.30175,0.04039
3400.37301,0.04027
3398.44427,0.04009
3396.51553,0.03999
3394.58678,0.03993
3392.65804,0.03996
3390.72930,0.04008
3388.80056,0.04028
3386.87181,0.04046
3384.94307,0.04052
3383.01433,0.04040
3381.08559,0.04025
3379.15684,0.04034
3377.22810,0.04047
3375.29936,0.04030
3373.37062,0.04000
3371.44187,0.03982
3369.51313,0.03964
3367.58439,0.03941
3365.65565,0.03944
3363.72690,0.03984
3361.79816,0.04027
3359.86942,0.04053
3357.94068,0.04068
3356.01193,0.04088
3354.08319,0.04113
3352.15445,0.04125
3350.22571,0.04134
3348.29696,0.04142
3346.36822,0.04145
3344.43948,0.04174
3342.51074,0.04240
3340.58199,0.04292
3338.65325,0.04300
3336.72451,0.04289
3334.79577,0.04303
3332.86702,0.04344
3330.93828,0.04378
3329.00954,0.04394
3327.08080,0.04404
3325.15205,0.04411
3323.22331,0.04430
3321.29457,0.04480
3319.36583,0.04541
3317.43708,0.04578
3315.50834,0.04587
3313.57960,0.04591
3311.65086,0.04592
3309.72211,0.04594
3307.79337,0.04616
3305.86463,0.04652
3303.93589,0.04681
3302.00714,0.04709
3300.07840,0.04739
3298.14966,0.04762
3296.22092,0.04789
3294.29217,0.04817
3292.36343,0.04832
3290.43469,0.04838
3288.50595,0.04834
3286.57721,0.04830
3284.64846,0.04859
3282.71972,0.04919
3280.79098,0.04968
3278.86224,0.04986
3276.93349,0.05000
3275.00475,0.05028
3273.07601,0.05060
3271.14727,0.05092
3269.21852,0.05130
3267.28978,0.05175
3265.36104,0.05236
3263.43230,0.05297
3261.50355,0.05323
3259.57481,0.05326
3257.64607,0.05347
3255.71733,0.05380
3253.78858,0.05394
3251.85984,0.05416
3249.93110,0.05470
3248.00236,0.05509
3246.07361,0.05520
3244.14487,0.05547
3242.21613,0.05602
3240.28739,0.05670
3238.35864,0.05727
3236.42990,0.05753
3234.50116,0.05759
3232.57242,0.05781
3230.64367,0.05838
3228.71493,0.05903
3226.78619,0.05942
3224.85745,0.05965
3222.92870,0.05999
3220.99996,0.06043
3219.07122,0.06081
3217.14248,0.06112
3215.21373,0.06146
3213.28499,0.06190
3211.35625,0.06245
3209.42751,0.06298
3207.49876,0.06335
3205.57002,0.06372
3203.64128,0.06436
3201.71254,0.06513
3199.78379,0.06563
3197.85505,0.06580
3195.92631,0.06594
3193.99757,0.06633
3192.06882,0.06692
3190.14008,0.06763
3188.21134,0.06849
3186.28260,0.06931
3184.35385,0.06982
3182.42511,0.07021
3180.49637,0.07063
3178.56763,0.07106
3176.63888,0.07159
3174.71014,0.07216
3172.78140,0.07276
3170.85266,0.07354
3168.92391,0.07438
3166.99517,0.07518
3165.06643,0.07604
3163.13769,0.07695
3161.20894,0.07775
3159.28020,0.07839
3157.35146,0.07893
3155.42272,0.07948
3153.49397,0.08013
3151.56523,0.08088
3149.63649,0.08153
3147.70775,0.08198
3145.77900,0.08243
3143.85026,0.08308
3141.92152,0.08386
3139.99278,0.08458
3138.06403,0.08501
3136.13529,0.08524
3134.20655,0.08556
3132.27781,0.08629
3130.34906,0.08726
3128.42032,0.08793
3126.49158,0.08825
3124.56284,0.08861
3122.63409,0.08905
3120.70535,0.08967
3118.77661,0.09047
3116.84787,0.09096
3114.91912,0.09118
3112.99038,0.09167
3111.06164,0.09240
3109.13290,0.09298
3107.20415,0.09344
3105.27541,0.09394
3103.34667,0.09438
3101.41793,0.09485
3099.48918,0.09551
3097.56044,0.09608
3095.63170,0.09631
3093.70296,0.09641
3091.77421,0.09656
3089.84547,0.09678
3087.91673,0.09734
3085.98799,0.09826
3084.05924,0.09901
3082.13050,0.09923
3080.20176,0.09912
3078.27302,0.09919
3076.34427,0.09975
3074.41553,0.10038
3072.48679,0.10051
3070.55805,0.10043
3068.62930,0.10073
3066.70056,0.10145
3064.77182,0.10215
3062.84308,0.10249
3060.91433,0.10271
3058.98559,0.10318
3057.05685,0.10357
3055.12811,0.10365
3053.19936,0.10391
3051.27062,0.10458
3049.34188,0.10522
3047.41314,0.10557
3045.48439,0.10575
3043.55565,0.10603
3041.62691,0.10634
3039.69817,0.10654
3037.76942,0.10683
3035.84068,0.10731
3033.91194,0.10772
3031.98320,0.10787
3030.05445,0.10774
3028.12571,0.10763
3026.19697,0.10779
3024.26823,0.10801
3022.33948,0.10783
3020.41074,0.10731
3018.48200,0.10689
3016.55326,0.10675
3014.62451,0.10662
3012.69577,0.10617
3010.76703,0.10538
3008.83829,0.10452
3006.90954,0.10391
3004.98080,0.10355
3003.05206,0.10323
3001.12332,0.10283
2999.19457,0.10231
2997.26583,0.10195
2995.33709,0.10181
2993.40835,0.10154
2991.47960,0.10100
2989.55086,0.10029
2987.62212,0.09930
2985.69338,0.09792
2983.76463,0.09632
2981.83589,0.09463
2979.90715,0.09273
2977.97841,0.09066
2976.04966,0.08852
2974.12092,0.08626
2972.19218,0.08406
2970.26344,0.08226
2968.33469,0.08079
2966.40595,0.07941
2964.47721,0.07820
2962.54847,0.07734
2960.61972,0.07670
2958.69098,0.07607
2956.76224,0.07520
2954.83350,0.07411
2952.90475,0.07325
2950.97601,0.07261
2949.04727,0.07166
2947.11853,0.07053
2945.18978,0.06969
2943.26104,0.06922
2941.33230,0.06890
2939.40356,0.06857
2937.47481,0.06834
2935.54607,0.06833
2933.61733,0.06848
2931.68859,0.06867
2929.75984,0.06884
2927.83110,0.06894
2925.90236,0.06886
2923.97362,0.06852
2922.04487,0.06806
2920.11613,0.06779
2918.18739,0.06788
2916.25865,0.06806
2914.32990,0.06831
2912.40116,0.06885
2910.47242,0.06946
2908.54368,0.06975
2906.61493,0.06982
2904.68619,0.06994
2902.75745,0.07030
2900.82871,0.07092
2898.89996,0.07154
2896.97122,0.07201
2895.04248,0.07245
2893.11374,0.07292
2891.18499,0.07343
2889.25625,0.07396
2887.32751,0.07440
2885.39877,0.07464
2883.47002,0.07481
2881.54128,0.07499
2879.61254,0.07524
2877.68380,0.07564
2875.75505,0.07618
2873.82631,0.07675
2871.89757,0.07721
2869.96883,0.07751
2868.04008,0.07784
2866.11134,0.07850
2864.18260,0.07949
2862.25386,0.08051
2860.32511,0.08118
2858.39637,0.08146
2856.46763,0.08176
2854.53889,0.08242
2852.61014,0.08317
2850.68140,0.08368
2848.75266,0.08442
2846.82392,0.08600
2844.89517,0.08813
2842.96643,0.09009
2841.03769,0.09170
2839.10895,0.09345
2837.18020,0.09562
2835.25146,0.09809
2833.32272,0.10076
2831.39398,0.10355
2829.46523,0.10619
2827.53649,0.10860
2825.60775,0.11091
2823.67901,0.11320
2821.75026,0.11544
2819.82152,0.11750
2817.89278,0.11937
2815.96404,0.12125
2814.03529,0.12319
2812.10655,0.12504
2810.17781,0.12674
2808.24907,0.12837
2806.32032,0.12991
2804.39158,0.13123
2802.46284,0.13238
2800.53410,0.13354
2798.60535,0.13467
2796.67661,0.13576
2794.74787,0.13695
2792.81913,0.13805
2790.89038,0.13895
2788.96164,0.13988
2787.03290,0.14090
2785.10416,0.14179
2783.17541,0.14245
2781.24667,0.14286
2779.31793,0.14318
2777.38919,0.14374
2775.46044,0.14455
2773.53170,0.14522
2771.60296,0.14565
2769.67422,0.14618
2767.74547,0.14679
2765.81673,0.14715
2763.88799,0.14734
2761.95925,0.14773
2760.03050,0.14830
2758.10176,0.14880
2756.17302,0.14909
2754.24428,0.14914
2752.31553,0.14912
2750.38679,0.14925
2748.45805,0.14950
2746.52931,0.14968
2744.60056,0.14976
2742.67182,0.14991
2740.74308,0.15014
2738.81434,0.15024
2736.88560,0.15029
2734.95685,0.15062
2733.02811,0.15129
2731.09937,0.15195
2729.17063,0.15232
2727.24188,0.15252
2725.31314,0.15282
2723.38440,0.15336
2721.45566,0.15406
2719.52691,0.15464
2717.59817,0.15509
2715.66943,0.15576
2713.74069,0.15678
2711.81194,0.15783
2709.88320,0.15874
2707.95446,0.15953
2706.02572,0.16030
2704.09697,0.16121
2702.16823,0.16223
2700.23949,0.16315
2698.31075,0.16393
2696.38200,0.16463
2694.45326,0.16515
2692.52452,0.16569
2690.59578,0.16660
2688.66703,0.16771
2686.73829,0.16863
2684.80955,0.16944
2682.88081,0.17026
2680.95206,0.17107
2679.02332,0.17186
2677.09458,0.17262
2675.16584,0.17328
2673.23709,0.17383
2671.30835,0.17434
2669.37961,0.17495
2667.45087,0.17553
2665.52212,0.17599
2663.59338,0.17640
2661.66464,0.17679
2659.73590,0.17711
2657.80715,0.17756
2655.87841,0.17828
2653.94967,0.17886
2652.02093,0.17914
2650.09218,0.17951
2648.16344,0.18013
2646.23470,0.18079
2644.30596,0.18148
2642.37721,0.18230
2640.44847,0.18314
2638.51973,0.18395
2636.59099,0.18472
2634.66224,0.18544
2632.73350,0.18629
2630.80476,0.18726
2628.87602,0.18812
2626.94727,0.18888
2625.01853,0.18960
2623.08979,0.19028
2621.16105,0.19093
2619.23230,0.19158
2617.30356,0.19206
2615.37482,0.19239
2613.44608,0.19287
2611.51733,0.19357
2609.58859,0.19430
2607.65985,0.19491
2605.73111,0.19528
2603.80236,0.19556
2601.87362,0.19599
2599.94488,0.19667
2598.01614,0.19750
2596.08739,0.19833
2594.15865,0.19902
2592.22991,0.19956
2590.30117,0.20012
2588.37242,0.20083
2586.44368,0.20151
2584.51494,0.20205
2582.58620,0.20252
2580.65745,0.20290
2578.72871,0.20315
2576.79997,0.20348
2574.87123,0.20391
2572.94248,0.20438
2571.01374,0.20484
2569.08500,0.20520
2567.15626,0.20539
2565.22751,0.20552
2563.29877,0.20576
2561.37003,0.20610
2559.44129,0.20638
2557.51254,0.20658
2555.58380,0.20677
2553.65506,0.20705
2551.72632,0.20739
2549.79757,0.20766
2547.86883,0.20789
2545.94009,0.20825
2544.01135,0.20865
2542.08260,0.20913
2540.15386,0.20981
2538.22512,0.21054
2536.29638,0.21104
2534.36763,0.21134
2532.43889,0.21167
2530.51015,0.21221
2528.58141,0.21295
2526.65266,0.21362
2524.72392,0.21422
2522.79518,0.21490
2520.86644,0.21553
2518.93769,0.21606
2517.00895,0.21667
2515.08021,0.21744
2513.15147,0.21840
2511.22272,0.21946
2509.29398,0.22038
2507.36524,0.22116
2505.43650,0.22201
2503.50775,0.22293
2501.57901,0.22389
2499.65027,0.22500
2497.72153,0.22622
2495.79278,0.22732
2493.86404,0.22828
2491.93530,0.22921
2490.00656,0.23014
2488.07781,0.23104
2486.14907,0.23179
2484.22033,0.23235
2482.29159,0.23298
2480.36284,0.23393
2478.43410,0.23504
2476.50536,0.23608
2474.57662,0.23695
2472.64787,0.23754
2470.71913,0.23793
2468.79039,0.23840
2466.86165,0.23908
2464.93290,0.23984
2463.00416,0.24055
2461.07542,0.24118
2459.14668,0.24169
2457.21793,0.24209
2455.28919,0.24246
2453.36045,0.24298
2451.43171,0.24385
2449.50296,0.24490
2447.57422,0.24596
2445.64548,0.24697
2443.71674,0.24789
2441.78799,0.24869
2439.85925,0.24946
2437.93051,0.25035
2436.00177,0.25140
2434.07302,0.25246
2432.14428,0.25336
2430.21554,0.25429
2428.28680,0.25546
2426.35805,0.25660
2424.42931,0.25750
2422.50057,0.25840
2420.57183,0.25952
2418.64308,0.26078
2416.71434,0.26203
2414.78560,0.26331
2412.85686,0.26461
2410.92811,0.26570
2408.99937,0.26659
2407.07063,0.26769
2405.14189,0.26911
2403.21314,0.27053
2401.28440,0.27171
2399.35566,0.27272
2397.42692,0.27381
2395.49817,0.27490
2393.56943,0.27567
2391.64069,0.27620
2389.71195,0.27692
2387.78320,0.27794
2385.85446,0.27900
2383.92572,0.27992
2381.99698,0.28080
2380.06823,0.28167
2378.13949,0.28237
2376.21075,0.28301
2374.28201,0.28384
2372.35326,0.28487
2370.42452,0.28589
2368.49578,0.28673
2366.56704,0.28739
2364.63829,0.28808
2362.70955,0.28879
2360.78081,0.28944
2358.85207,0.29011
2356.92332,0.29087
2354.99458,0.29172
2353.06584,0.29242
2351.13710,0.29285
2349.20835,0.29328
2347.27961,0.29387
2345.35087,0.29454
2343.42213,0.29512
2341.49338,0.29555
2339.56464,0.29591
2337.63590,0.29625
2335.70716,0.29647
2333.77841,0.29674
2331.84967,0.29718
2329.92093,0.29760
2327.99219,0.29797
2326.06344,0.29839
2324.13470,0.29878
2322.20596,0.29904
2320.27722,0.29916
2318.34847,0.29926
2316.41973,0.29935
2314.49099,0.29948
2312.56225,0.29976
2310.63350,0.30006
2308.70476,0.30011
2306.77602,0.29998
2304.84728,0.29982
2302.91853,0.29955
2300.98979,0.29918
2299.06105,0.29890
2297.13231,0.29878
2295.20356,0.29876
2293.27482,0.29874
2291.34608,0.29874
2289.41734,0.29872
2287.48859,0.29862
2285.55985,0.29849
2283.63111,0.29845
2281.70237,0.29844
2279.77362,0.29827
2277.84488,0.29798
2275.91614,0.29772
2273.98740,0.29742
2272.05865,0.29698
2270.12991,0.29635
2268.20117,0.29565
2266.27243,0.29496
2264.34368,0.29427
2262.41494,0.29352
2260.48620,0.29264
2258.55746,0.29172
2256.62871,0.29092
2254.69997,0.29027
2252.77123,0.28965
2250.84249,0.28911
2248.91374,0.28878
2246.98500,0.28840
2245.05626,0.28777
2243.12752,0.28715
2241.19877,0.28675
2239.27003,0.28657
2237.34129,0.28659
2235.41255,0.28670
2233.48380,0.28669
2231.55506,0.28655
2229.62632,0.28657
2227.69758,0.28693
2225.76883,0.28734
2223.84009,0.28760
2221.91135,0.28782
2219.98261,0.28809
2218.05386,0.28824
2216.12512,0.28808
2214.19638,0.28783
2212.26764,0.28773
2210.33889,0.28767
2208.41015,0.28749
2206.48141,0.28723
2204.55267,0.28687
2202.62392,0.28632
2200.69518,0.28563
2198.76644,0.28478
2196.83770,0.28381
2194.90895,0.28290
2192.98021,0.28196
2191.05147,0.28096
2189.12273,0.28001
2187.19399,0.27905
2185.26524,0.27809
2183.33650,0.27700
2181.40776,0.27561
2179.47902,0.27409
2177.55027,0.27269
2175.62153,0.27150
2173.69279,0.27033
2171.76405,0.26906
2169.83530,0.26783
2167.90656,0.26671
2165.97782,0.26559
2164.04908,0.26453
2162.12033,0.26365
2160.19159,0.26292
2158.26285,0.26230
2156.33411,0.26165
2154.40536,0.26092
2152.47662,0.26029
2150.54788,0.25990
2148.61914,0.25969
2146.69039,0.25951
2144.76165,0.25920
2142.83291,0.25871
2140.90417,0.25821
2138.97542,0.25790
2137.04668,0.25784
2135.11794,0.25802
2133.18920,0.25823
2131.26045,0.25830
2129.33171,0.25829
2127.40297,0.25834
2125.47423,0.25864
2123.54548,0.25916
2121.61674,0.25962
2119.68800,0.25998
2117.75926,0.26043
2115.83051,0.26098
2113.90177,0.26148
2111.97303,0.26185
2110.04429,0.26211
2108.11554,0.26243
2106.18680,0.26285
2104.25806,0.26328
2102.32932,0.26379
2100.40057,0.26441
2098.47183,0.26498
2096.54309,0.26547
2094.61435,0.26597
2092.68560,0.26642
2090.75686,0.26667
2088.82812,0.26678
2086.89938,0.26684
2084.97063,0.26694
2083.04189,0.26707
2081.11315,0.26692
2079.18441,0.26643
2077.25566,0.26603
2075.32692,0.26581
2073.39818,0.26543
2071.46944,0.26496
2069.54069,0.26467
2067.61195,0.26454
2065.68321,0.26438
2063.75447,0.26421
2061.82572,0.26411
2059.89698,0.26396
2057.96824,0.26388
2056.03950,0.26400
2054.11075,0.26419
2052.18201,0.26438
2050.25327,0.26460
2048.32453,0.26489
2046.39578,0.26537
2044.46704,0.26596
2042.53830,0.26656
2040.60956,0.26725
2038.68081,0.26799
2036.75207,0.26860
2034.82333,0.26921
2032.89459,0.27018
2030.96584,0.27142
2029.03710,0.27263
2027.10836,0.27387
2025.17962,0.27519
2023.25087,0.27640
2021.32213,0.27746
2019.39339,0.27855
2017.46465,0.27977
2015.53590,0.28100
2013.60716,0.28214
2011.67842,0.28323
2009.74968,0.28426
2007.82093,0.28509
2005.89219,0.28579
2003.96345,0.28646
2002.03471,0.28705
2000.10596,0.28764
1998.17722,0.28837
1996.24848,0.28910
1994.31974,0.28965
1992.39099,0.29012
1990.46225,0.29072
1988.53351,0.29133
1986.60477,0.29182
1984.67602,0.29218
1982.74728,0.29245
1980.81854,0.29278
1978.88980,0.29309
1976.96105,0.29326
1975.03231,0.29341
1973.10357,0.29354
1971.17483,0.29361
1969.24608,0.29372
1967.31734,0.29384
1965.38860,0.29384
1963.45986,0.29384
1961.53111,0.29395
1959.60237,0.29409
1957.67363,0.29426
1955.74489,0.29455
1953.81614,0.29499
1951.88740,0.29562
1949.95866,0.29637
1948.02992,0.29715
1946.10117,0.29792
1944.17243,0.29874
1942.24369,0.29974
1940.31495,0.30093
1938.38620,0.30218
1936.45746,0.30344
1934.52872,0.30470
1932.59998,0.30591
1930.67123,0.30713
1928.74249,0.30831
1926.81375,0.30929
1924.88501,0.31014
1922.95626,0.31099
1921.02752,0.31174
1919.09878,0.31233
1917.17004,0.31284
1915.24129,0.31325
1913.31255,0.31360
1911.38381,0.31392
1909.45507,0.31419
1907.52632,0.31435
1905.59758,0.31437
1903.66884,0.31428
1901.74010,0.31419
1899.81135,0.31412
1897.88261,0.31391
1895.95387,0.31360
1894.02513,0.31340
1892.09638,0.31327
1890.16764,0.31306
1888.23890,0.31276
1886.31016,0.31242
1884.38141,0.31212
1882.45267,0.31193
1880.52393,0.31175
1878.59519,0.31139
1876.66644,0.31086
1874.73770,0.31034
1872.80896,0.30990
1870.88022,0.30949
1868.95147,0.30896
1867.02273,0.30829
1865.09399,0.30753
1863.16525,0.30667
1861.23650,0.30576
1859.30776,0.30495
1857.37902,0.30432
1855.45028,0.30372
1853.52153,0.30295
1851.59279,0.30208
1849.66405,0.30121
1847.73531,0.30024
1845.80656,0.29911
1843.87782,0.29797
1841.94908,0.29684
1840.02034,0.29571
1838.09159,0.29458
1836.16285,0.29333
1834.23411,0.29196
1832.30537,0.29053
1830.37662,0.28895
1828.44788,0.28725
1826.51914,0.28560
1824.59040,0.28383
1822.66165,0.28192
1820.73291,0.28002
1818.80417,0.27806
1816.87543,0.27598
1814.94668,0.27377
1813.01794,0.27132
1811.08920,0.26870
1809.16046,0.26608
1807.23171,0.26349
1805.30297,0.26084
1803.37423,0.25810
1801.44549,0.25518
1799.51674,0.25206
1797.58800,0.24880
1795.65926,0.24548
1793.73052,0.24202
1791.80177,0.23824
1789.87303,0.23435
1787.94429,0.23040
1786.01555,0.22608
1784.08680,0.22133
1782.15806,0.21611
1780.22932,0.21015
1778.30058,0.20346
1776.37183,0.19628
1774.44309,0.18824
1772.51435,0.17886
1770.58561,0.16877
1768.65686,0.15840
1766.72812,0.14771
1764.79938,0.13760
1762.87064,0.12795
1760.94189,0.11861
1759.01315,0.11056
1757.08441,0.10379
1755.15567,0.09818
1753.22692,0.09374
1751.29818,0.08988
1749.36944,0.08639
1747.44070,0.08345
1745.51195,0.08104
1743.58321,0.07917
1741.65447,0.07792
1739.72573,0.07714
1737.79698,0.07671
1735.86824,0.07678
1733.93950,0.07746
1732.01076,0.07858
1730.08201,0.08004
1728.15327,0.08180
1726.22453,0.08364
1724.29579,0.08541
1722.36704,0.08695
1720.43830,0.08820
1718.50956,0.08920
1716.58082,0.08979
1714.65207,0.08975
1712.72333,0.08920
1710.79459,0.08836
1708.86585,0.08725
1706.93710,0.08553
1705.00836,0.08323
1703.07962,0.08089
1701.15088,0.07818
1699.22213,0.07496
1697.29339,0.07187
1695.36465,0.06848
1693.43591,0.06512
1691.50716,0.06227
1689.57842,0.05959
1687.64968,0.05723
1685.72094,0.05501
1683.79219,0.05243
1681.86345,0.05020
1679.93471,0.04888
1678.00597,0.04807
1676.07722,0.04720
1674.14848,0.04630
1672.21974,0.04577
1670.29100,0.04561
1668.36225,0.04551
1666.43351,0.04552
1664.50477,0.04574
1662.57603,0.04610
1660.64728,0.04661
1658.71854,0.04728
1656.78980,0.04802
1654.86106,0.04882
1652.93231,0.04984
1651.00357,0.05087
1649.07483,0.05168
1647.14609,0.05219
1645.21735,0.05246
1643.28860,0.05282
1641.35986,0.05321
1639.43112,0.05352
1637.50238,0.05367
1635.57363,0.05348
1633.64489,0.05322
1631.71615,0.05326
1629.78741,0.05358
1627.85866,0.05398
1625.92992,0.05433
1624.00118,0.05456
1622.07244,0.05478
1620.14369,0.05506
1618.21495,0.05534
1616.28621,0.05554
1614.35747,0.05559
1612.42872,0.05555
1610.49998,0.05546
1608.57124,0.05536
1606.64250,0.05539
1604.71375,0.05562
1602.78501,0.05578
1600.85627,0.05570
1598.92753,0.05564
1596.99878,0.05579
1595.07004,0.05618
1593.14130,0.05702
1591.21256,0.05854
1589.28381,0.06056
1587.35507,0.06283
1585.42633,0.06541
1583.49759,0.06821
1581.56884,0.07110
1579.64010,0.07401
1577.71136,0.07688
1575.78262,0.07955
1573.85387,0.08160
1571.92513,0.08311
1569.99639,0.08422
1568.06765,0.08475
1566.13890,0.08476
1564.21016,0.08465
1562.28142,0.08464
1560.35268,0.08435
1558.42393,0.08342
1556.49519,0.08256
1554.56645,0.08213
1552.63771,0.08180
1550.70896,0.08134
1548.78022,0.08070
1546.85148,0.08007
1544.92274,0.07961
1542.99399,0.07911
1541.06525,0.07833
1539.13651,0.07736
1537.20777,0.07663
1535.27902,0.07617
1533.35028,0.07541
1531.42154,0.07408
1529.49280,0.07249
1527.56405,0.07072
1525.63531,0.06864
1523.70657,0.06624
1521.77783,0.06320
1519.84908,0.05972
1517.92034,0.05672
1515.99160,0.05448
1514.06286,0.05305
1512.13411,0.05241
1510.20537,0.05231
1508.27663,0.05251
1506.34789,0.05298
1504.41914,0.05386
1502.49040,0.05520
1500.56166,0.05703
1498.63292,0.05924
1496.70417,0.06142
1494.77543,0.06329
1492.84669,0.06484
1490.91795,0.06609
1488.98920,0.06685
1487.06046,0.06690
1485.13172,0.06641
1483.20298,0.06553
1481.27423,0.06409
1479.34549,0.06215
1477.41675,0.05990
1475.48801,0.05738
1473.55926,0.05458
1471.63052,0.05190
1469.70178,0.05002
1467.77304,0.04897
1465.84429,0.04837
1463.91555,0.04811
1461.98681,0.04834
1460.05807,0.04881
1458.12932,0.04917
1456.20058,0.04952
1454.27184,0.05010
1452.34310,0.05082
1450.41435,0.05157
1448.48561,0.05233
1446.55687,0.05294
1444.62813,0.05331
1442.69938,0.05350
1440.77064,0.05356
1438.84190,0.05327
1436.91316,0.05248
1434.98441,0.05145
1433.05567,0.05057
1431.12693,0.05002
1429.19819,0.04997
1427.26944,0.05023
1425.34070,0.05055
1423.41196,0.05107
1421.48322,0.05189
1419.55447,0.05294
1417.62573,0.05425
1415.69699,0.05577
1413.76825,0.05729
1411.83950,0.05859
1409.91076,0.05953
1407.98202,0.06013
1406.05328,0.06044
1404.12453,0.06055
1402.19579,0.06044
1400.26705,0.06007
1398.33831,0.05959
1396.40956,0.05916
1394.48082,0.05848
1392.55208,0.05742
1390.62334,0.05621
1388.69459,0.05489
1386.76585,0.05346
1384.83711,0.05216
1382.90837,0.05092
1380.97962,0.04972
1379.05088,0.04888
1377.12214,0.04845
1375.19340,0.04828
1373.26465,0.04840
1371.33591,0.04876
1369.40717,0.04929
1367.47843,0.04994
1365.54968,0.05058
1363.62094,0.05119
1361.69220,0.05177
1359.76346,0.05225
1357.83471,0.05265
1355.90597,0.05296
1353.97723,0.05323
1352.04849,0.05351
1350.11974,0.05365
1348.19100,0.05356
1346.26226,0.05329
1344.33352,0.05280
1342.40477,0.05212
1340.47603,0.05133
1338.54729,0.05057
1336.61855,0.05007
1334.68980,0.04987
1332.76106,0.04984
1330.83232,0.04993
1328.90358,0.05008
1326.97483,0.05027
1325.04609,0.05063
1323.11735,0.05115
1321.18861,0.05166
1319.25986,0.05209
1317.33112,0.05260
1315.40238,0.05328
1313.47364,0.05405
1311.54489,0.05482
1309.61615,0.05563
1307.68741,0.05644
1305.75867,0.05707
1303.82992,0.05750
1301.90118,0.05777
1299.97244,0.05786
1298.04370,0.05775
1296.11495,0.05741
1294.18621,0.05681
1292.25747,0.05594
1290.32873,0.05486
1288.39998,0.05370
1286.47124,0.05253
1284.54250,0.05140
1282.61376,0.05055
1280.68501,0.05009
1278.75627,0.04983
1276.82753,0.04949
1274.89879,0.04898
1272.97004,0.04843
1271.04130,0.04795
1269.11256,0.04761
1267.18382,0.04752
1265.25507,0.04752
1263.32633,0.04738
1261.39759,0.04737
1259.46885,0.04760
1257.54010,0.04766
1255.61136,0.04750
1253.68262,0.04751
1251.75388,0.04757
1249.82513,0.04729
1247.89639,0.04684
1245.96765,0.04651
1244.03891,0.04629
1242.11016,0.04614
1240.18142,0.04612
1238.25268,0.04626
1236.32394,0.04632
1234.39519,0.04637
1232.46645,0.04673
1230.53771,0.04730
1228.60897,0.04777
1226.68022,0.04814
1224.75148,0.04859
1222.82274,0.04922
1220.89400,0.05003
1218.96525,0.05093
1217.03651,0.05158
1215.10777,0.05186
1213.17903,0.05214
1211.25028,0.05259
1209.32154,0.05301
1207.39280,0.05326
1205.46406,0.05338
1203.53531,0.05339
1201.60657,0.05323
1199.67783,0.05313
1197.74909,0.05331
1195.82034,0.05352
1193.89160,0.05338
1191.96286,0.05283
1190.03412,0.05190
1188.10537,0.05068
1186.17663,0.04947
1184.24789,0.04840
1182.31915,0.04721
1180.39040,0.04565
1178.46166,0.04376
1176.53292,0.04184
1174.60418,0.04026
1172.67543,0.03931
1170.74669,0.03897
1168.81795,0.03909
1166.88921,0.03970
1164.96046,0.04071
1163.03172,0.04187
1161.10298,0.04298
1159.17424,0.04391
1157.24549,0.04456
1155.31675,0.04488
1153.38801,0.04503
1151.45927,0.04510
1149.53052,0.04503
1147.60178,0.04464
1145.67304,0.04393
1143.74430,0.04317
1141.81555,0.04248
1139.88681,0.04162
1137.95807,0.04045
1136.02933,0.03927
1134.10058,0.03836
1132.17184,0.03793
1130.24310,0.03814
1128.31436,0.03878
1126.38561,0.03958
1124.45687,0.04047
1122.52813,0.04113
1120.59939,0.04128
1118.67064,0.04129
1116.74190,0.04154
1114.81316,0.04204
1112.88442,0.04265
1110.95567,0.04344
1109.02693,0.04436
1107.09819,0.04511
1105.16945,0.04561
1103.24070,0.04595
1101.31196,0.04595
1099.38322,0.04548
1097.45448,0.04479
1095.52574,0.04419
1093.59699,0.04367
1091.66825,0.04332
1089.73951,0.04312
1087.81077,0.04262
1085.88202,0.04183
1083.95328,0.04143
1082.02454,0.04183
1080.09580,0.04268
1078.16705,0.04350
1076.23831,0.04411
1074.30957,0.04476
1072.38083,0.04595
1070.45208,0.04752
1068.52334,0.04886
1066.59460,0.05011
1064.66586,0.05166
1062.73711,0.05359
1060.80837,0.05578
1058.87963,0.05772
1056.95089,0.05920
1055.02214,0.06032
1053.09340,0.06089
1051.16466,0.06107
1049.23592,0.06124
1047.30717,0.06123
1045.37843,0.06081
1043.44969,0.06043
1041.52095,0.06073
1039.59220,0.06165
1037.66346,0.06291
1035.73472,0.06452
1033.80598,0.06595
1031.87723,0.06657
1029.94849,0.06705
1028.01975,0.06805
1026.09101,0.06902
1024.16226,0.06950
1022.23352,0.06973
1020.30478,0.06998
1018.37604,0.07060
1016.44729,0.07176
1014.51855,0.07303
1012.58981,0.07389
1010.66107,0.07429
1008.73232,0.07454
1006.80358,0.07498
1004.87484,0.07573
1002.94610,0.07670
1001.01735,0.07772
999.08861,0.07860
997.15987,0.07934
995.23113,0.08003
993.30238,0.08076
991.37364,0.08182
989.44490,0.08350
987.51616,0.08580
985.58741,0.08862
983.65867,0.09186
981.72993,0.09522
979.80119,0.09809
977.87244,0.10017
975.94370,0.10174
974.01496,0.10308
972.08622,0.10433
970.15747,0.10559
968.22873,0.10697
966.29999,0.10852
964.37125,0.11026
962.44250,0.11232
960.51376,0.11479
958.58502,0.11755
956.65628,0.12029
954.72753,0.12272
952.79879,0.12494
950.87005,0.12720
948.94131,0.12926
947.01256,0.13059
945.08382,0.13115
943.15508,0.13139
941.22634,0.13150
939.29759,0.13150
937.36885,0.13155
935.44011,0.13166
933.51137,0.13168
931.58262,0.13161
929.65388,0.13163
927.72514,0.13168
925.79640,0.13170
923.86765,0.13165
921.93891,0.13139
920.01017,0.13069
918.08143,0.12951
916.15268,0.12811
914.22394,0.12669
912.29520,0.12525
910.36646,0.12360
908.43771,0.12159
906.50897,0.11933
904.58023,0.11704
902.65149,0.11492
900.72274,0.11322
898.79400,0.11227
896.86526,0.11231
894.93652,0.11350
893.00777,0.11577
891.07903,0.11850
889.15029,0.12103
887.22155,0.12306
885.29280,0.12443
883.36406,0.12538
881.43532,0.12623
879.50658,0.12684
877.57783,0.12717
875.64909,0.12745
873.72035,0.12765
871.79161,0.12780
869.86286,0.12789
867.93412,0.12791
866.00538,0.12802
864.07664,0.12793
862.14789,0.12743
860.21915,0.12679
858.29041,0.12636
856.36167,0.12628
854.43292,0.12627
852.50418,0.12607
850.57544,0.12586
848.64670,0.12563
846.71795,0.12523
844.78921,0.12475
842.86047,0.12420
840.93173,0.12343
839.00298,0.12246
837.07424,0.12136
835.14550,0.12028
833.21676,0.11948
831.28801,0.11885
829.35927,0.11840
827.43053,0.11841
825.50179,0.11855
823.57304,0.11845
821.64430,0.11839
819.71556,0.11834
817.78682,0.11802
815.85807,0.11772
813.92933,0.11780
812.00059,0.11799
810.07185,0.11785
808.14310,0.11773
806.21436,0.11783
804.28562,0.11755
802.35688,0.11685
800.42813,0.11629
798.49939,0.11601
796.57065,0.11581
794.64191,0.11544
792.71316,0.11488
790.78442,0.11423
788.85568,0.11355
786.92694,0.11284
784.99819,0.11212
783.06945,0.11143
781.14071,0.11052
779.21197,0.10904
777.28322,0.10738
775.35448,0.10636
773.42574,0.10586
771.49700,0.10521
769.56825,0.10455
767.63951,0.10409
765.71077,0.10351
763.78203,0.10267
761.85328,0.10149
759.92454,0.10006
757.99580,0.09861
756.06706,0.09737
754.13831,0.09645
752.20957,0.09553
750.28083,0.09439
748.35209,0.09340
746.42334,0.09247
744.49460,0.09123
742.56586,0.09023
740.63712,0.08985
738.70837,0.08963
736.77963,0.08906
734.85089,0.08793
732.92215,0.08671
730.99340,0.08575
729.06466,0.08472
727.13592,0.08362
725.20718,0.08268
723.27843,0.08194
721.34969,0.08126
719.42095,0.08054
717.49221,0.08026
715.56346,0.08058
713.63472,0.08067
711.70598,0.07981
709.77724,0.07875
707.84849,0.07842
705.91975,0.07845
703.99101,0.07823
702.06227,0.07775
700.13352,0.07722
698.20478,0.07709
696.27604,0.07742
694.34730,0.07745
692.41855,0.07668
690.48981,0.07572
688.56107,0.07520
686.63233,0.07487
684.70358,0.07442
682.77484,0.07371
680.84610,0.07242
678.91736,0.07095
676.98861,0.07024
675.05987,0.06995
673.13113,0.06943
671.20239,0.06915
669.27364,0.06938
667.34490,0.06946
665.41616,0.06903
663.48742,0.06888
661.55867,0.06955
659.62993,0.07026
657.70119,0.07050
655.77245,0.07036
653.84370,0.06972
651.91496,0.06917
649.98622,0.06929
648.05748,0.06933
646.12873,0.06898
644.19999,0.06899
642.27125,0.06929
640.34251,0.06895
638.41376,0.06777
636.48502,0.06667
634.55628,0.06652
632.62754,0.06654
630.69879,0.06584
628.77005,0.06562
626.84131,0.06608
624.91257,0.06584
622.98382,0.06488
621.05508,0.06398
619.12634,0.06332
617.19760,0.06308
615.26885,0.06385
613.34011,0.06574
611.41137,0.06736
609.48263,0.06777
607.55388,0.06778
605.62514,0.06767
603.69640,0.06672
601.76766,0.06590
599.83891,0.06646
