7497.02206,0.84145
7495.09332,0.84020
7493.16458,0.84376
7491.23584,0.84798
7489.30709,0.84670
7487.37835,0.83999
7485.44961,0.83584
7483.52087,0.83960
7481.59212,0.84585
7479.66338,0.84562
7477.73464,0.84039
7475.80590,0.83781
7473.87715,0.83828
7471.94841,0.83822
7470.01967,0.83503
7468.09093,0.82982
7466.16218,0.82914
7464.23344,0.83326
7462.30470,0.83568
7460.37596,0.83459
7458.44721,0.83349
7456.51847,0.83493
7454.58973,0.83618
7452.66099,0.83616
7450.73224,0.83690
7448.80350,0.83626
7446.87476,0.83390
7444.94602,0.83341
7443.01727,0.83264
7441.08853,0.82812
7439.15979,0.82354
7437.23105,0.82065
7435.30230,0.81710
7433.37356,0.81314
7431.44482,0.80898
7429.51608,0.80607
7427.58733,0.80761
7425.65859,0.81382
7423.72985,0.82037
7421.80111,0.82251
7419.87236,0.82134
7417.94362,0.81834
7416.01488,0.81453
7414.08614,0.81468
7412.15739,0.81728
7410.22865,0.81718
7408.29991,0.81547
7406.37117,0.81439
7404.44242,0.81457
7402.51368,0.81441
7400.58494,0.81226
7398.65620,0.81060
7396.72745,0.81048
7394.79871,0.81109
7392.86997,0.81162
7390.94123,0.81001
7389.01248,0.80671
7387.08374,0.80474
7385.15500,0.80684
7383.22626,0.81221
7381.29751,0.81590
7379.36877,0.81530
7377.44003,0.81276
7375.51129,0.81032
7373.58254,0.80702
7371.65380,0.80336
7369.72506,0.80177
7367.79632,0.80246
7365.86757,0.80457
7363.93883,0.80549
7362.01009,0.80374
7360.08135,0.80138
7358.15260,0.79950
7356.22386,0.80050
7354.29512,0.80466
7352.36638,0.80621
7350.43763,0.80338
7348.50889,0.79933
7346.58015,0.79627
7344.65141,0.79628
7342.72266,0.79936
7340.79392,0.80036
7338.86518,0.79502
7336.93644,0.78627
7335.00769,0.78195
7333.07895,0.78609
7331.15021,0.79215
7329.22147,0.79536
7327.29272,0.79783
7325.36398,0.79721
7323.43524,0.79309
7321.50650,0.78973
7319.57775,0.78849
7317.64901,0.79010
7315.72027,0.79262
7313.79153,0.79192
7311.86278,0.78825
7309.93404,0.78512
7308.00530,0.78553
7306.07656,0.78826
7304.14781,0.78898
7302.21907,0.78808
7300.29033,0.78736
7298.36159,0.78508
7296.43284,0.78200
7294.50410,0.77951
7292.57536,0.77806
7290.64662,0.77840
7288.71787,0.77726
7286.78913,0.77478
7284.86039,0.77686
7282.93165,0.78154
7281.00290,0.78278
7279.07416,0.78283
7277.14542,0.78478
7275.21668,0.78526
7273.28793,0.78299
7271.35919,0.78130
7269.43045,0.78051
7267.50171,0.77854
7265.57296,0.77694
7263.64422,0.77764
7261.71548,0.77874
7259.78674,0.77863
7257.85799,0.77824
7255.92925,0.77851
7254.00051,0.77914
7252.07177,0.77864
7250.14302,0.77598
7248.21428,0.77383
7246.28554,0.77497
7244.35680,0.77857
7242.42805,0.78353
7240.49931,0.78666
7238.57057,0.78408
7236.64183,0.77931
7234.71308,0.77845
7232.78434,0.78023
7230.85560,0.78015
7228.92686,0.78057
7226.99811,0.78226
7225.06937,0.77955
7223.14063,0.77499
7221.21189,0.77634
7219.28314,0.78104
7217.35440,0.78341
7215.42566,0.78577
7213.49692,0.78798
7211.56817,0.78533
7209.63943,0.78046
7207.71069,0.77875
7205.78195,0.77870
7203.85320,0.77645
7201.92446,0.77310
7199.99572,0.77139
7198.06698,0.77029
7196.13823,0.76948
7194.20949,0.77148
7192.28075,0.77476
7190.35201,0.77471
7188.42326,0.77239
7186.49452,0.77185
7184.56578,0.77266
7182.63704,0.77287
7180.70829,0.77194
7178.77955,0.77066
7176.85081,0.77087
7174.92207,0.77185
7172.99332,0.76976
7171.06458,0.76471
7169.13584,0.76132
7167.20710,0.75931
7165.27835,0.75694
7163.34961,0.75713
7161.42087,0.75983
7159.49213,0.76100
7157.56338,0.75925
7155.63464,0.75625
7153.70590,0.75453
7151.77716,0.75545
7149.84841,0.75847
7147.91967,0.76206
7145.99093,0.76427
7144.06219,0.76460
7142.13344,0.76320
7140.20470,0.75985
7138.27596,0.75644
7136.34722,0.75446
7134.41847,0.75233
7132.48973,0.74953
7130.56099,0.74758
7128.63225,0.74746
7126.70351,0.74852
7124.77476,0.74866
7122.84602,0.74803
7120.91728,0.74756
7118.98854,0.74507
7117.05979,0.74091
7115.13105,0.73797
7113.20231,0.73692
7111.27357,0.73847
7109.34482,0.74045
7107.41608,0.73825
7105.48734,0.73449
7103.55860,0.73403
7101.62985,0.73583
7099.70111,0.73901
7097.77237,0.74114
7095.84363,0.73684
7093.91488,0.72907
7091.98614,0.72471
7090.05740,0.72413
7088.12866,0.72461
7086.19991,0.72275
7084.27117,0.71787
7082.34243,0.71480
7080.41369,0.71577
7078.48494,0.71701
7076.55620,0.71684
7074.62746,0.71736
7072.69872,0.71710
7070.76997,0.71300
7068.84123,0.70891
7066.91249,0.70892
7064.98375,0.70969
7063.05500,0.70908
7061.12626,0.70876
7059.19752,0.70887
7057.26878,0.70816
7055.34003,0.70498
7053.41129,0.70059
7051.48255,0.69783
7049.55381,0.69617
7047.62506,0.69515
7045.69632,0.69423
7043.76758,0.69204
7041.83884,0.69158
7039.91009,0.69370
7037.98135,0.69260
7036.05261,0.68852
7034.12387,0.68713
7032.19512,0.68741
7030.26638,0.68573
7028.33764,0.68336
7026.40890,0.68210
7024.48015,0.68087
7022.55141,0.67948
7020.62267,0.67941
7018.69393,0.68029
7016.76518,0.67976
7014.83644,0.67757
7012.90770,0.67578
7010.97896,0.67375
7009.05021,0.66995
7007.12147,0.66663
7005.19273,0.66636
7003.26399,0.66873
7001.33524,0.67137
6999.40650,0.67107
6997.47776,0.66644
6995.54902,0.66025
6993.62027,0.65609
6991.69153,0.65529
6989.76279,0.65686
6987.83405,0.65805
6985.90530,0.65760
6983.97656,0.65700
6982.04782,0.65608
6980.11908,0.65377
6978.19033,0.65439
6976.26159,0.66039
6974.33285,0.66466
6972.40411,0.66368
6970.47536,0.66105
6968.54662,0.65809
6966.61788,0.65537
6964.68914,0.65266
6962.76039,0.64907
6960.83165,0.64710
6958.90291,0.64863
6956.97417,0.65125
6955.04542,0.65238
6953.11668,0.65268
6951.18794,0.65332
6949.25920,0.65254
6947.33045,0.64956
6945.40171,0.64768
6943.47297,0.64752
6941.54423,0.64784
6939.61548,0.64900
6937.68674,0.64852
6935.75800,0.64590
6933.82926,0.64422
6931.90051,0.64321
6929.97177,0.64167
6928.04303,0.64097
6926.11429,0.64307
6924.18554,0.64644
6922.25680,0.64773
6920.32806,0.64680
6918.39932,0.64489
6916.47057,0.64373
6914.54183,0.64386
6912.61309,0.64277
6910.68435,0.64058
6908.75560,0.64065
6906.82686,0.64187
6904.89812,0.64101
6902.96938,0.64061
6901.04063,0.64281
6899.11189,0.64379
6897.18315,0.64148
6895.25441,0.63821
6893.32566,0.63742
6891.39692,0.64049
6889.46818,0.64465
6887.53944,0.64628
6885.61069,0.64367
6883.68195,0.63947
6881.75321,0.63853
6879.82447,0.63929
6877.89572,0.63829
6875.96698,0.63732
6874.03824,0.63807
6872.10950,0.63949
6870.18075,0.63969
6868.25201,0.63879
6866.32327,0.63905
6864.39453,0.63955
6862.46578,0.63821
6860.53704,0.63638
6858.60830,0.63603
6856.67956,0.63578
6854.75081,0.63319
6852.82207,0.63088
6850.89333,0.63195
6848.96459,0.63415
6847.03584,0.63415
6845.10710,0.63244
6843.17836,0.63370
6841.24962,0.63891
6839.32087,0.64221
6837.39213,0.64085
6835.46339,0.63761
6833.53465,0.63454
6831.60590,0.63240
6829.67716,0.63334
6827.74842,0.63654
6825.81968,0.63706
6823.89093,0.63485
6821.96219,0.63310
6820.03345,0.63209
6818.10471,0.63167
6816.17596,0.63167
6814.24722,0.63273
6812.31848,0.63518
6810.38974,0.63607
6808.46099,0.63357
6806.53225,0.63063
6804.60351,0.63039
6802.67477,0.63191
6800.74602,0.63220
6798.81728,0.63012
6796.88854,0.62874
6794.95980,0.63096
6793.03105,0.63192
6791.10231,0.62699
6789.17357,0.62308
6787.24483,0.62616
6785.31608,0.62980
6783.38734,0.62910
6781.45860,0.62836
6779.52986,0.62956
6777.60111,0.62938
6775.67237,0.62681
6773.74363,0.62542
6771.81489,0.62582
6769.88614,0.62412
6767.95740,0.62102
6766.02866,0.62031
6764.09992,0.62140
6762.17117,0.62216
6760.24243,0.62241
6758.31369,0.62282
6756.38495,0.62401
6754.45620,0.62545
6752.52746,0.62546
6750.59872,0.62292
6748.66998,0.61960
6746.74123,0.61976
6744.81249,0.62271
6742.88375,0.62430
6740.95501,0.62350
6739.02626,0.62012
6737.09752,0.61699
6735.16878,0.61823
6733.24004,0.62169
6731.31129,0.62287
6729.38255,0.62200
6727.45381,0.62237
6725.52507,0.62364
6723.59632,0.62355
6721.66758,0.62280
6719.73884,0.62198
6717.81010,0.62144
6715.88135,0.62212
6713.95261,0.62276
6712.02387,0.62206
6710.09513,0.62168
6708.16638,0.62243
6706.23764,0.62261
6704.30890,0.62229
6702.38016,0.62325
6700.45141,0.62488
6698.52267,0.62399
6696.59393,0.62082
6694.66519,0.61970
6692.73644,0.61997
6690.80770,0.61772
6688.87896,0.61513
6686.95022,0.61750
6685.02147,0.62445
6683.09273,0.62943
6681.16399,0.62893
6679.23525,0.62590
6677.30650,0.62273
6675.37776,0.62091
6673.44902,0.62225
6671.52028,0.62437
6669.59153,0.62422
6667.66279,0.62349
6665.73405,0.62502
6663.80531,0.62878
6661.87656,0.63149
6659.94782,0.63117
6658.01908,0.62876
6656.09034,0.62496
6654.16159,0.62184
6652.23285,0.62222
6650.30411,0.62488
6648.37537,0.62661
6646.44662,0.62668
6644.51788,0.62606
6642.58914,0.62566
6640.66040,0.62643
6638.73165,0.62888
6636.80291,0.63090
6634.87417,0.63001
6632.94543,0.62838
6631.01668,0.62844
6629.08794,0.62784
6627.15920,0.62534
6625.23046,0.62424
6623.30171,0.62746
6621.37297,0.63268
6619.44423,0.63483
6617.51549,0.63294
6615.58674,0.63076
6613.65800,0.63101
6611.72926,0.63297
6609.80052,0.63453
6607.87177,0.63408
6605.94303,0.63243
6604.01429,0.63207
6602.08555,0.63297
6600.15680,0.63348
6598.22806,0.63439
6596.29932,0.63647
6594.37058,0.63714
6592.44183,0.63551
6590.51309,0.63412
6588.58435,0.63450
6586.65561,0.63569
6584.72686,0.63587
6582.79812,0.63537
6580.86938,0.63572
6578.94064,0.63688
6577.01190,0.63840
6575.08315,0.64011
6573.15441,0.64115
6571.22567,0.64053
6569.29693,0.63935
6567.36818,0.63991
6565.43944,0.64240
6563.51070,0.64407
6561.58196,0.64352
6559.65321,0.64322
6557.72447,0.64356
6555.79573,0.64263
6553.86699,0.64144
6551.93824,0.64179
6550.00950,0.64358
6548.08076,0.64591
6546.15202,0.64654
6544.22327,0.64399
6542.29453,0.64212
6540.36579,0.64473
6538.43705,0.64869
6536.50830,0.64937
6534.57956,0.64716
6532.65082,0.64519
6530.72208,0.64448
6528.79333,0.64494
6526.86459,0.64625
6524.93585,0.64726
6523.00711,0.64800
6521.07836,0.64828
6519.14962,0.64755
6517.22088,0.64694
6515.29214,0.64729
6513.36339,0.64802
6511.43465,0.64877
6509.50591,0.64944
6507.57717,0.64898
6505.64842,0.64740
6503.71968,0.64638
6501.79094,0.64628
6499.86220,0.64602
6497.93345,0.64602
6496.00471,0.64781
6494.07597,0.65086
6492.14723,0.65288
6490.21848,0.65276
6488.28974,0.65165
6486.36100,0.65092
6484.43226,0.65079
6482.50351,0.65179
6480.57477,0.65301
6478.64603,0.65231
6476.71729,0.64997
6474.78854,0.64787
6472.85980,0.64814
6470.93106,0.65067
6469.00232,0.65267
6467.07357,0.65364
6465.14483,0.65488
6463.21609,0.65591
6461.28735,0.65630
6459.35860,0.65636
6457.42986,0.65561
6455.50112,0.65373
6453.57238,0.65185
6451.64363,0.65143
6449.71489,0.65199
6447.78615,0.65210
6445.85741,0.65237
6443.92866,0.65352
6441.99992,0.65353
6440.07118,0.65163
6438.14244,0.65088
6436.21369,0.65327
6434.28495,0.65645
6432.35621,0.65657
6430.42747,0.65385
6428.49872,0.65192
6426.56998,0.65233
6424.64124,0.65397
6422.71250,0.65580
6420.78375,0.65741
6418.85501,0.65743
6416.92627,0.65564
6414.99753,0.65497
6413.06878,0.65586
6411.14004,0.65569
6409.21130,0.65446
6407.28256,0.65395
6405.35381,0.65495
6403.42507,0.65633
6401.49633,0.65645
6399.56759,0.65652
6397.63884,0.65777
6395.71010,0.65870
6393.78136,0.65920
6391.85262,0.66045
6389.92387,0.66136
6387.99513,0.66110
6386.06639,0.66019
6384.13765,0.65882
6382.20890,0.65788
6380.28016,0.65900
6378.35142,0.66181
6376.42268,0.66331
6374.49393,0.66221
6372.56519,0.66156
6370.63645,0.66323
6368.70771,0.66432
6366.77896,0.66308
6364.85022,0.66169
6362.92148,0.66175
6360.99274,0.66349
6359.06399,0.66623
6357.13525,0.66800
6355.20651,0.66782
6353.27777,0.66623
6351.34902,0.66453
6349.42028,0.66360
6347.49154,0.66320
6345.56280,0.66386
6343.63405,0.66593
6341.70531,0.66735
6339.77657,0.66644
6337.84783,0.66555
6335.91908,0.66743
6333.99034,0.66980
6332.06160,0.66941
6330.13286,0.66729
6328.20411,0.66614
6326.27537,0.66642
6324.34663,0.66704
6322.41789,0.66797
6320.48914,0.66915
6318.56040,0.66913
6316.63166,0.66739
6314.70292,0.66563
6312.77417,0.66541
6310.84543,0.66670
6308.91669,0.66903
6306.98795,0.67101
6305.05920,0.67102
6303.13046,0.67049
6301.20172,0.67099
6299.27298,0.67124
6297.34423,0.67037
6295.41549,0.66916
6293.48675,0.66893
6291.55801,0.66974
6289.62926,0.66995
6287.70052,0.66954
6285.77178,0.66967
6283.84304,0.67037
6281.91429,0.67172
6279.98555,0.67329
6278.05681,0.67410
6276.12807,0.67499
6274.19932,0.67652
6272.27058,0.67771
6270.34184,0.67834
6268.41310,0.67821
6266.48435,0.67769
6264.55561,0.67774
6262.62687,0.67808
6260.69813,0.67855
6258.76938,0.67864
6256.84064,0.67780
6254.91190,0.67730
6252.98316,0.67671
6251.05441,0.67570
6249.12567,0.67694
6247.19693,0.68066
6245.26819,0.68430
6243.33944,0.68620
6241.41070,0.68525
6239.48196,0.68282
6237.55322,0.68270
6235.62447,0.68437
6233.69573,0.68389
6231.76699,0.68231
6229.83825,0.68338
6227.90950,0.68624
6225.98076,0.68802
6224.05202,0.68866
6222.12328,0.68871
6220.19453,0.68792
6218.26579,0.68720
6216.33705,0.68727
6214.40831,0.68719
6212.47956,0.68746
6210.55082,0.68942
6208.62208,0.69157
6206.69334,0.69163
6204.76459,0.69062
6202.83585,0.69138
6200.90711,0.69406
6198.97837,0.69629
6197.04962,0.69729
6195.12088,0.69763
6193.19214,0.69732
6191.26340,0.69705
6189.33465,0.69768
6187.40591,0.69907
6185.47717,0.69987
6183.54843,0.69856
6181.61968,0.69636
6179.69094,0.69534
6177.76220,0.69542
6175.83346,0.69611
6173.90471,0.69689
6171.97597,0.69711
6170.04723,0.69750
6168.11849,0.69828
6166.18974,0.69883
6164.26100,0.69971
6162.33226,0.70116
6160.40352,0.70221
6158.47477,0.70282
6156.54603,0.70353
6154.61729,0.70415
6152.68855,0.70431
6150.75980,0.70382
6148.83106,0.70286
6146.90232,0.70177
6144.97358,0.70085
6143.04483,0.70084
6141.11609,0.70142
6139.18735,0.70118
6137.25861,0.70069
6135.32986,0.70181
6133.40112,0.70351
6131.47238,0.70375
6129.54364,0.70402
6127.61489,0.70484
6125.68615,0.70432
6123.75741,0.70282
6121.82867,0.70191
6119.89992,0.70218
6117.97118,0.70313
6116.04244,0.70405
6114.11370,0.70512
6112.18495,0.70624
6110.25621,0.70653
6108.32747,0.70617
6106.39873,0.70626
6104.46998,0.70636
6102.54124,0.70599
6100.61250,0.70614
6098.68376,0.70693
6096.75501,0.70816
6094.82627,0.70933
6092.89753,0.70894
6090.96879,0.70673
6089.04004,0.70412
6087.11130,0.70281
6085.18256,0.70337
6083.25382,0.70486
6081.32507,0.70588
6079.39633,0.70543
6077.46759,0.70427
6075.53885,0.70404
6073.61010,0.70416
6071.68136,0.70413
6069.75262,0.70503
6067.82388,0.70610
6065.89513,0.70577
6063.96639,0.70424
6062.03765,0.70326
6060.10891,0.70378
6058.18016,0.70398
6056.25142,0.70232
6054.32268,0.70049
6052.39394,0.70068
6050.46519,0.70211
6048.53645,0.70273
6046.60771,0.70275
6044.67897,0.70265
6042.75022,0.70192
6040.82148,0.70089
6038.89274,0.70004
6036.96400,0.69893
6035.03525,0.69776
6033.10651,0.69744
6031.17777,0.69742
6029.24903,0.69703
6027.32029,0.69718
6025.39154,0.69762
6023.46280,0.69715
6021.53406,0.69620
6019.60532,0.69552
6017.67657,0.69494
6015.74783,0.69372
6013.81909,0.69168
6011.89035,0.69020
6009.96160,0.69006
6008.03286,0.69047
6006.10412,0.69111
6004.17538,0.69229
6002.24663,0.69323
6000.31789,0.69245
5998.38915,0.69030
5996.46041,0.68865
5994.53166,0.68808
5992.60292,0.68751
5990.67418,0.68699
5988.74544,0.68789
5986.81669,0.68900
5984.88795,0.68897
5982.95921,0.68859
5981.03047,0.68786
5979.10172,0.68715
5977.17298,0.68713
5975.24424,0.68677
5973.31550,0.68523
5971.38675,0.68344
5969.45801,0.68251
5967.52927,0.68237
5965.60053,0.68306
5963.67178,0.68468
5961.74304,0.68633
5959.81430,0.68718
5957.88556,0.68690
5955.95681,0.68546
5954.02807,0.68402
5952.09933,0.68423
5950.17059,0.68549
5948.24184,0.68601
5946.31310,0.68588
5944.38436,0.68524
5942.45562,0.68404
5940.52687,0.68374
5938.59813,0.68509
5936.66939,0.68601
5934.74065,0.68541
5932.81190,0.68476
5930.88316,0.68395
5928.95442,0.68301
5927.02568,0.68384
5925.09693,0.68530
5923.16819,0.68525
5921.23945,0.68509
5919.31071,0.68612
5917.38196,0.68626
5915.45322,0.68407
5913.52448,0.68194
5911.59574,0.68149
5909.66699,0.68155
5907.73825,0.68109
5905.80951,0.67966
5903.88077,0.67808
5901.95202,0.67771
5900.02328,0.67853
5898.09454,0.67999
5896.16580,0.68091
5894.23705,0.67988
5892.30831,0.67780
5890.37957,0.67686
5888.45083,0.67736
5886.52208,0.67759
5884.59334,0.67700
5882.66460,0.67702
5880.73586,0.67787
5878.80711,0.67863
5876.87837,0.67888
5874.94963,0.67802
5873.02089,0.67663
5871.09214,0.67645
5869.16340,0.67744
5867.23466,0.67812
5865.30592,0.67754
5863.37717,0.67630
5861.44843,0.67583
5859.51969,0.67635
5857.59095,0.67706
5855.66220,0.67715
5853.73346,0.67570
5851.80472,0.67357
5849.87598,0.67332
5847.94723,0.67499
5846.01849,0.67630
5844.08975,0.67672
5842.16101,0.67698
5840.23226,0.67733
5838.30352,0.67767
5836.37478,0.67713
5834.44604,0.67580
5832.51729,0.67519
5830.58855,0.67466
5828.65981,0.67334
5826.73107,0.67273
5824.80232,0.67299
5822.87358,0.67257
5820.94484,0.67165
5819.01610,0.67153
5817.08735,0.67222
5815.15861,0.67300
5813.22987,0.67345
5811.30113,0.67290
5809.37238,0.67140
5807.44364,0.67040
5805.51490,0.67060
5803.58616,0.67086
5801.65741,0.67081
5799.72867,0.67127
5797.79993,0.67205
5795.87119,0.67232
5793.94244,0.67179
5792.01370,0.67121
5790.08496,0.67145
5788.15622,0.67190
5786.22747,0.67183
5784.29873,0.67143
5782.36999,0.67089
5780.44125,0.67038
5778.51250,0.67051
5776.58376,0.67147
5774.65502,0.67305
5772.72628,0.67485
5770.79753,0.67549
5768.86879,0.67488
5766.94005,0.67484
5765.01131,0.67552
5763.08256,0.67548
5761.15382,0.67479
5759.22508,0.67450
5757.29634,0.67464
5755.36759,0.67549
5753.43885,0.67689
5751.51011,0.67722
5749.58137,0.67682
5747.65262,0.67734
5745.72388,0.67799
5743.79514,0.67759
5741.86640,0.67722
5739.93765,0.67733
5738.00891,0.67712
5736.08017,0.67682
5734.15143,0.67630
5732.22268,0.67524
5730.29394,0.67457
5728.36520,0.67492
5726.43646,0.67608
5724.50771,0.67714
5722.57897,0.67761
5720.65023,0.67829
5718.72149,0.67914
5716.79274,0.67943
5714.86400,0.67892
5712.93526,0.67768
5711.00652,0.67651
5709.07777,0.67595
5707.14903,0.67611
5705.22029,0.67745
5703.29155,0.67923
5701.36280,0.67964
5699.43406,0.67873
5697.50532,0.67786
5695.57658,0.67762
5693.64783,0.67765
5691.71909,0.67750
5689.79035,0.67738
5687.86161,0.67781
5685.93286,0.67879
5684.00412,0.67943
5682.07538,0.67870
5680.14664,0.67778
5678.21789,0.67822
5676.28915,0.67892
5674.36041,0.67868
5672.43167,0.67809
5670.50292,0.67814
5668.57418,0.67837
5666.64544,0.67800
5664.71670,0.67782
5662.78795,0.67784
5660.85921,0.67735
5658.93047,0.67706
5657.00173,0.67756
5655.07298,0.67845
5653.14424,0.67909
5651.21550,0.67910
5649.28676,0.67880
5647.35801,0.67860
5645.42927,0.67809
5643.50053,0.67728
5641.57179,0.67716
5639.64304,0.67745
5637.71430,0.67742
5635.78556,0.67797
5633.85682,0.67898
5631.92807,0.67893
5629.99933,0.67790
5628.07059,0.67752
5626.14185,0.67807
5624.21310,0.67793
5622.28436,0.67696
5620.35562,0.67690
5618.42688,0.67760
5616.49813,0.67789
5614.56939,0.67783
5612.64065,0.67731
5610.71191,0.67646
5608.78316,0.67636
5606.85442,0.67714
5604.92568,0.67784
5602.99694,0.67792
5601.06819,0.67806
5599.13945,0.67865
5597.21071,0.67906
5595.28197,0.67892
5593.35322,0.67791
5591.42448,0.67685
5589.49574,0.67730
5587.56700,0.67879
5585.63825,0.67999
5583.70951,0.68054
5581.78077,0.68045
5579.85203,0.67974
5577.92328,0.67899
5575.99454,0.67876
5574.06580,0.67861
5572.13706,0.67842
5570.20831,0.67841
5568.27957,0.67829
5566.35083,0.67832
5564.42209,0.67907
5562.49334,0.68052
5560.56460,0.68174
5558.63586,0.68157
5556.70712,0.68083
5554.77837,0.68123
5552.84963,0.68246
5550.92089,0.68279
5548.99215,0.68206
5547.06340,0.68193
5545.13466,0.68297
5543.20592,0.68375
5541.27718,0.68350
5539.34843,0.68294
5537.41969,0.68266
5535.49095,0.68264
5533.56221,0.68331
5531.63346,0.68422
5529.70472,0.68371
5527.77598,0.68213
5525.84724,0.68139
5523.91849,0.68168
5521.98975,0.68274
5520.06101,0.68422
5518.13227,0.68473
5516.20352,0.68434
5514.27478,0.68450
5512.34604,0.68483
5510.41730,0.68441
5508.48855,0.68391
5506.55981,0.68383
5504.63107,0.68383
5502.70233,0.68387
5500.77358,0.68394
5498.84484,0.68399
5496.91610,0.68399
5494.98736,0.68410
5493.05861,0.68471
5491.12987,0.68565
5489.20113,0.68608
5487.27239,0.68557
5485.34365,0.68490
5483.41490,0.68498
5481.48616,0.68542
5479.55742,0.68546
5477.62868,0.68532
5475.69993,0.68567
5473.77119,0.68653
5471.84245,0.68715
5469.91371,0.68718
5467.98496,0.68698
5466.05622,0.68681
5464.12748,0.68661
5462.19874,0.68666
5460.26999,0.68760
5458.34125,0.68891
5456.41251,0.68894
5454.48377,0.68784
5452.55502,0.68759
5450.62628,0.68880
5448.69754,0.69032
5446.76880,0.69096
5444.84005,0.69062
5442.91131,0.69008
5440.98257,0.69030
5439.05383,0.69113
5437.12508,0.69135
5435.19634,0.69113
5433.26760,0.69144
5431.33886,0.69172
5429.41011,0.69156
5427.48137,0.69175
5425.55263,0.69241
5423.62389,0.69299
5421.69514,0.69312
5419.76640,0.69278
5417.83766,0.69298
5415.90892,0.69438
5413.98017,0.69539
5412.05143,0.69497
5410.12269,0.69446
5408.19395,0.69456
5406.26520,0.69474
5404.33646,0.69523
5402.40772,0.69602
5400.47898,0.69617
5398.55023,0.69556
5396.62149,0.69516
5394.69275,0.69544
5392.76401,0.69601
5390.83526,0.69643
5388.90652,0.69653
5386.97778,0.69642
5385.04904,0.69611
5383.12029,0.69571
5381.19155,0.69600
5379.26281,0.69716
5377.33407,0.69796
5375.40532,0.69731
5373.47658,0.69570
5371.54784,0.69478
5369.61910,0.69558
5367.69035,0.69684
5365.76161,0.69715
5363.83287,0.69705
5361.90413,0.69726
5359.97538,0.69756
5358.04664,0.69707
5356.11790,0.69589
5354.18916,0.69592
5352.26041,0.69745
5350.33167,0.69843
5348.40293,0.69788
5346.47419,0.69651
5344.54544,0.69528
5342.61670,0.69443
5340.68796,0.69398
5338.75922,0.69406
5336.83047,0.69408
5334.90173,0.69348
5332.97299,0.69276
5331.04425,0.69224
5329.11550,0.69165
5327.18676,0.69094
5325.25802,0.69013
5323.32928,0.68953
5321.40053,0.68915
5319.47179,0.68813
5317.54305,0.68642
5315.61431,0.68529
5313.68556,0.68527
5311.75682,0.68521
5309.82808,0.68367
5307.89934,0.68097
5305.97059,0.67876
5304.04185,0.67741
5302.11311,0.67606
5300.18437,0.67471
5298.25562,0.67388
5296.32688,0.67315
5294.39814,0.67130
5292.46940,0.66766
5290.54065,0.66364
5288.61191,0.66156
5286.68317,0.66090
5284.75443,0.65975
5282.82568,0.65810
5280.89694,0.65618
5278.96820,0.65375
5277.03946,0.65111
5275.11071,0.64833
5273.18197,0.64498
5271.25323,0.64129
5269.32449,0.63815
5267.39574,0.63547
5265.46700,0.63267
5263.53826,0.62993
5261.60952,0.62734
5259.68077,0.62470
5257.75203,0.62209
5255.82329,0.61936
5253.89455,0.61632
5251.96580,0.61321
5250.03706,0.61018
5248.10832,0.60778
5246.17958,0.60605
5244.25083,0.60375
5242.32209,0.60111
5240.39335,0.59928
5238.46461,0.59767
5236.53586,0.59566
5234.60712,0.59372
5232.67838,0.59221
5230.74964,0.59111
5228.82089,0.58988
5226.89215,0.58797
5224.96341,0.58604
5223.03467,0.58500
5221.10592,0.58469
5219.17718,0.58429
5217.24844,0.58340
5215.31970,0.58247
5213.39095,0.58161
5211.46221,0.58053
5209.53347,0.57974
5207.60473,0.57967
5205.67598,0.57983
5203.74724,0.57955
5201.81850,0.57842
5199.88976,0.57695
5197.96101,0.57637
5196.03227,0.57650
5194.10353,0.57612
5192.17479,0.57547
5190.24604,0.57510
5188.31730,0.57481
5186.38856,0.57473
5184.45982,0.57497
5182.53107,0.57509
5180.60233,0.57503
5178.67359,0.57506
5176.74485,0.57484
5174.81610,0.57444
5172.88736,0.57457
5170.95862,0.57503
5169.02988,0.57529
5167.10113,0.57548
5165.17239,0.57577
5163.24365,0.57608
5161.31491,0.57647
5159.38616,0.57690
5157.45742,0.57725
5155.52868,0.57764
5153.59994,0.57819
5151.67119,0.57845
5149.74245,0.57830
5147.81371,0.57788
5145.88497,0.57720
5143.95622,0.57707
5142.02748,0.57812
5140.09874,0.57959
5138.17000,0.58062
5136.24125,0.58086
5134.31251,0.58013
5132.38377,0.57920
5130.45503,0.57911
5128.52628,0.57930
5126.59754,0.57937
5124.66880,0.58015
5122.74006,0.58115
5120.81131,0.58111
5118.88257,0.58004
5116.95383,0.57861
5115.02509,0.57721
5113.09634,0.57615
5111.16760,0.57537
5109.23886,0.57456
5107.31012,0.57400
5105.38137,0.57365
5103.45263,0.57269
5101.52389,0.57100
5099.59515,0.56958
5097.66640,0.56935
5095.73766,0.56988
5093.80892,0.56946
5091.88018,0.56746
5089.95143,0.56504
5088.02269,0.56349
5086.09395,0.56301
5084.16521,0.56288
5082.23646,0.56236
5080.30772,0.56165
5078.37898,0.56163
5076.45024,0.56210
5074.52149,0.56206
5072.59275,0.56147
5070.66401,0.56102
5068.73527,0.56146
5066.80652,0.56269
5064.87778,0.56375
5062.94904,0.56450
5061.02030,0.56548
5059.09155,0.56650
5057.16281,0.56710
5055.23407,0.56744
5053.30533,0.56795
5051.37658,0.56893
5049.44784,0.57002
5047.51910,0.57043
5045.59036,0.57037
5043.66161,0.57076
5041.73287,0.57214
5039.80413,0.57414
5037.87539,0.57554
5035.94664,0.57579
5034.01790,0.57567
5032.08916,0.57624
5030.16042,0.57734
5028.23167,0.57800
5026.30293,0.57827
5024.37419,0.57888
5022.44545,0.57966
5020.51670,0.58014
5018.58796,0.58067
5016.65922,0.58154
5014.73048,0.58249
5012.80173,0.58316
5010.87299,0.58350
5008.94425,0.58384
5007.01551,0.58412
5005.08676,0.58438
5003.15802,0.58471
5001.22928,0.58486
4999.30054,0.58495
4997.37179,0.58482
4995.44305,0.58434
4993.51431,0.58449
4991.58557,0.58544
4989.65682,0.58593
4987.72808,0.58550
4985.79934,0.58481
4983.87060,0.58453
4981.94185,0.58454
4980.01311,0.58415
4978.08437,0.58350
4976.15563,0.58318
4974.22688,0.58313
4972.29814,0.58304
4970.36940,0.58222
4968.44066,0.58038
4966.51191,0.57857
4964.58317,0.57779
4962.65443,0.57738
4960.72569,0.57626
4958.79694,0.57473
4956.86820,0.57363
4954.93946,0.57261
4953.01072,0.57118
4951.08197,0.56974
4949.15323,0.56839
4947.22449,0.56683
4945.29575,0.56503
4943.36700,0.56288
4941.43826,0.56107
4939.50952,0.56038
4937.58078,0.55989
4935.65204,0.55860
4933.72329,0.55706
4931.79455,0.55593
4929.86581,0.55497
4927.93707,0.55383
4926.00832,0.55261
4924.07958,0.55148
4922.15084,0.55032
4920.22210,0.54911
4918.29335,0.54767
4916.36461,0.54582
4914.43587,0.54431
4912.50713,0.54366
4910.57838,0.54331
4908.64964,0.54271
4906.72090,0.54171
4904.79216,0.54071
4902.86341,0.54004
4900.93467,0.53914
4899.00593,0.53806
4897.07719,0.53731
4895.14844,0.53643
4893.21970,0.53514
4891.29096,0.53386
4889.36222,0.53293
4887.43347,0.53239
4885.50473,0.53189
4883.57599,0.53103
4881.64725,0.52971
4879.71850,0.52809
4877.78976,0.52666
4875.86102,0.52566
4873.93228,0.52485
4872.00353,0.52400
4870.07479,0.52294
4868.14605,0.52153
4866.21731,0.52024
4864.28856,0.51935
4862.35982,0.51845
4860.43108,0.51744
4858.50234,0.51639
4856.57359,0.51527
4854.64485,0.51419
4852.71611,0.51312
4850.78737,0.51215
4848.85862,0.51144
4846.92988,0.51053
4845.00114,0.50912
4843.07240,0.50785
4841.14365,0.50695
4839.21491,0.50583
4837.28617,0.50446
4835.35743,0.50329
4833.42868,0.50250
4831.49994,0.50178
4829.57120,0.50080
4827.64246,0.49985
4825.71371,0.49914
4823.78497,0.49828
4821.85623,0.49717
4819.92749,0.49615
4817.99874,0.49559
4816.07000,0.49542
4814.14126,0.49490
4812.21252,0.49370
4810.28377,0.49269
4808.35503,0.49247
4806.42629,0.49264
4804.49755,0.49286
4802.56880,0.49282
4800.64006,0.49229
4798.71132,0.49167
4796.78258,0.49148
4794.85383,0.49152
4792.92509,0.49121
4790.99635,0.49058
4789.06761,0.48993
4787.13886,0.48937
4785.21012,0.48908
4783.28138,0.48934
4781.35264,0.49008
4779.42389,0.49062
4777.49515,0.49056
4775.56641,0.49032
4773.63767,0.49010
4771.70892,0.48951
4769.78018,0.48861
4767.85144,0.48797
4765.92270,0.48761
4763.99395,0.48728
4762.06521,0.48709
4760.13647,0.48706
4758.20773,0.48694
4756.27898,0.48683
4754.35024,0.48703
4752.42150,0.48723
4750.49276,0.48705
4748.56401,0.48684
4746.63527,0.48671
4744.70653,0.48645
4742.77779,0.48631
4740.84904,0.48663
4738.92030,0.48708
4736.99156,0.48719
4735.06282,0.48683
4733.13407,0.48625
4731.20533,0.48609
4729.27659,0.48671
4727.34785,0.48753
4725.41910,0.48758
4723.49036,0.48681
4721.56162,0.48630
4719.63288,0.48653
4717.70413,0.48697
4715.77539,0.48705
4713.84665,0.48700
4711.91791,0.48750
4709.98916,0.48824
4708.06042,0.48837
4706.13168,0.48796
4704.20294,0.48747
4702.27419,0.48708
4700.34545,0.48698
4698.41671,0.48728
4696.48797,0.48751
4694.55922,0.48748
4692.63048,0.48751
4690.70174,0.48730
4688.77300,0.48674
4686.84425,0.48642
4684.91551,0.48649
4682.98677,0.48675
4681.05803,0.48696
4679.12928,0.48710
4677.20054,0.48765
4675.27180,0.48853
4673.34306,0.48896
4671.41431,0.48880
4669.48557,0.48878
4667.55683,0.48923
4665.62809,0.48943
4663.69934,0.48908
4661.77060,0.48887
4659.84186,0.48910
4657.91312,0.48951
4655.98437,0.49002
4654.05563,0.49062
4652.12689,0.49110
4650.19815,0.49132
4648.26940,0.49153
4646.34066,0.49198
4644.41192,0.49240
4642.48318,0.49251
4640.55443,0.49252
4638.62569,0.49278
4636.69695,0.49318
4634.76821,0.49344
4632.83946,0.49354
4630.91072,0.49377
4628.98198,0.49451
4627.05324,0.49566
4625.12449,0.49665
4623.19575,0.49715
4621.26701,0.49748
4619.33827,0.49804
4617.40952,0.49880
4615.48078,0.49980
4613.55204,0.50102
4611.62330,0.50176
4609.69455,0.50181
4607.76581,0.50212
4605.83707,0.50300
4603.90833,0.50368
4601.97958,0.50412
4600.05084,0.50477
4598.12210,0.50551
4596.19336,0.50612
4594.26461,0.50648
4592.33587,0.50673
4590.40713,0.50737
4588.47839,0.50831
4586.54964,0.50885
4584.62090,0.50878
4582.69216,0.50876
4580.76342,0.50940
4578.83467,0.51037
4576.90593,0.51089
4574.97719,0.51090
4573.04845,0.51085
4571.11970,0.51092
4569.19096,0.51100
4567.26222,0.51111
4565.33348,0.51136
4563.40473,0.51167
4561.47599,0.51175
4559.54725,0.51171
4557.61851,0.51187
4555.68976,0.51195
4553.76102,0.51174
4551.83228,0.51175
4549.90354,0.51243
4547.97479,0.51338
4546.04605,0.51388
4544.11731,0.51392
4542.18857,0.51380
4540.25982,0.51367
4538.33108,0.51376
4536.40234,0.51404
4534.47360,0.51420
4532.54485,0.51425
4530.61611,0.51462
4528.68737,0.51516
4526.75863,0.51554
4524.82988,0.51588
4522.90114,0.51596
4520.97240,0.51573
4519.04366,0.51567
4517.11491,0.51603
4515.18617,0.51669
4513.25743,0.51737
4511.32869,0.51759
4509.39994,0.51707
4507.47120,0.51620
4505.54246,0.51588
4503.61372,0.51627
4501.68497,0.51669
4499.75623,0.51647
4497.82749,0.51551
4495.89875,0.51444
4493.97000,0.51378
4492.04126,0.51347
4490.11252,0.51312
4488.18378,0.51240
4486.25503,0.51124
4484.32629,0.50994
4482.39755,0.50866
4480.46881,0.50714
4478.54006,0.50540
4476.61132,0.50387
4474.68258,0.50263
4472.75384,0.50130
4470.82509,0.49959
4468.89635,0.49764
4466.96761,0.49554
4465.03887,0.49339
4463.11012,0.49136
4461.18138,0.48938
4459.25264,0.48741
4457.32390,0.48540
4455.39515,0.48336
4453.46641,0.48143
4451.53767,0.47945
4449.60893,0.47706
4447.68018,0.47429
4445.75144,0.47162
4443.82270,0.46938
4441.89396,0.46731
4439.96521,0.46513
4438.03647,0.46297
4436.10773,0.46104
4434.17899,0.45903
4432.25024,0.45684
4430.32150,0.45484
4428.39276,0.45283
4426.46402,0.45037
4424.53527,0.44782
4422.60653,0.44557
4420.67779,0.44344
4418.74905,0.44138
4416.82030,0.43968
4414.89156,0.43835
4412.96282,0.43697
4411.03408,0.43547
4409.10533,0.43429
4407.17659,0.43344
4405.24785,0.43254
4403.31911,0.43172
4401.39036,0.43161
4399.46162,0.43218
4397.53288,0.43277
4395.60414,0.43311
4393.67539,0.43317
4391.74665,0.43308
4389.81791,0.43316
4387.88917,0.43365
4385.96043,0.43448
4384.03168,0.43524
4382.10294,0.43572
4380.17420,0.43640
4378.24546,0.43780
4376.31671,0.43950
4374.38797,0.44064
4372.45923,0.44117
4370.53049,0.44177
4368.60174,0.44270
4366.67300,0.44366
4364.74426,0.44464
4362.81552,0.44573
4360.88677,0.44678
4358.95803,0.44763
4357.02929,0.44821
4355.10055,0.44853
4353.17180,0.44871
4351.24306,0.44910
4349.31432,0.44967
4347.38558,0.45004
4345.45683,0.45032
4343.52809,0.45049
4341.59935,0.45024
4339.67061,0.44981
4337.74186,0.44932
4335.81312,0.44870
4333.88438,0.44838
4331.95564,0.44824
4330.02689,0.44743
4328.09815,0.44608
4326.16941,0.44506
4324.24067,0.44444
4322.31192,0.44373
4320.38318,0.44308
4318.45444,0.44300
4316.52570,0.44320
4314.59695,0.44312
4312.66821,0.44272
4310.73947,0.44221
4308.81073,0.44182
4306.88198,0.44142
4304.95324,0.44079
4303.02450,0.44014
4301.09576,0.43951
4299.16701,0.43862
4297.23827,0.43752
4295.30953,0.43651
4293.38079,0.43562
4291.45204,0.43495
4289.52330,0.43466
4287.59456,0.43440
4285.66582,0.43397
4283.73707,0.43364
4281.80833,0.43334
4279.87959,0.43315
4277.95085,0.43354
4276.02210,0.43409
4274.09336,0.43414
4272.16462,0.43417
4270.23588,0.43462
4268.30713,0.43518
4266.37839,0.43570
4264.44965,0.43632
4262.52091,0.43694
4260.59216,0.43756
4258.66342,0.43813
4256.73468,0.43843
4254.80594,0.43841
4252.87719,0.43834
4250.94845,0.43861
4249.01971,0.43912
4247.09097,0.43954
4245.16222,0.43987
4243.23348,0.44020
4241.30474,0.44056
4239.37600,0.44080
4237.44725,0.44096
4235.51851,0.44123
4233.58977,0.44163
4231.66103,0.44213
4229.73228,0.44257
4227.80354,0.44272
4225.87480,0.44277
4223.94606,0.44302
4222.01731,0.44317
4220.08857,0.44297
4218.15983,0.44279
4216.23109,0.44269
4214.30234,0.44258
4212.37360,0.44250
4210.44486,0.44249
4208.51612,0.44278
4206.58737,0.44317
4204.65863,0.44299
4202.72989,0.44232
4200.80115,0.44200
4198.87240,0.44232
4196.94366,0.44276
4195.01492,0.44287
4193.08618,0.44283
4191.15743,0.44299
4189.22869,0.44321
4187.29995,0.44337
4185.37121,0.44366
4183.44246,0.44406
4181.51372,0.44423
4179.58498,0.44432
4177.65624,0.44483
4175.72749,0.44570
4173.79875,0.44675
4171.87001,0.44783
4169.94127,0.44881
4168.01252,0.44968
4166.08378,0.45033
4164.15504,0.45061
4162.22630,0.45051
4160.29755,0.45033
4158.36881,0.45017
4156.44007,0.44999
4154.51133,0.45002
4152.58258,0.45010
4150.65384,0.44985
4148.72510,0.44926
4146.79636,0.44866
4144.86761,0.44816
4142.93887,0.44748
4141.01013,0.44654
4139.08139,0.44563
4137.15264,0.44486
4135.22390,0.44394
4133.29516,0.44284
4131.36642,0.44182
4129.43767,0.44075
4127.50893,0.43944
4125.58019,0.43815
4123.65145,0.43705
4121.72270,0.43591
4119.79396,0.43447
4117.86522,0.43284
4115.93648,0.43148
4114.00773,0.43036
4112.07899,0.42907
4110.15025,0.42769
4108.22151,0.42632
4106.29276,0.42487
4104.36402,0.42348
4102.43528,0.42221
4100.50654,0.42082
4098.57779,0.41910
4096.64905,0.41727
4094.72031,0.41553
4092.79157,0.41397
4090.86282,0.41263
4088.93408,0.41143
4087.00534,0.41011
4085.07660,0.40835
4083.14785,0.40624
4081.21911,0.40405
4079.29037,0.40196
4077.36163,0.40022
4075.43288,0.39871
4073.50414,0.39695
4071.57540,0.39494
4069.64666,0.39312
4067.71791,0.39156
4065.78917,0.38990
4063.86043,0.38807
4061.93169,0.38618
4060.00294,0.38422
4058.07420,0.38217
4056.14546,0.38004
4054.21672,0.37805
4052.28797,0.37627
4050.35923,0.37458
4048.43049,0.37291
4046.50175,0.37110
4044.57300,0.36926
4042.64426,0.36794
4040.71552,0.36704
4038.78678,0.36588
4036.85803,0.36430
4034.92929,0.36262
4033.00055,0.36106
4031.07181,0.35988
4029.14306,0.35903
4027.21432,0.35797
4025.28558,0.35686
4023.35684,0.35635
4021.42809,0.35617
4019.49935,0.35578
4017.57061,0.35529
4015.64187,0.35485
4013.71312,0.35459
4011.78438,0.35446
4009.85564,0.35442
4007.92690,0.35468
4005.99815,0.35507
4004.06941,0.35538
4002.14067,0.35579
4000.21193,0.35621
3998.28318,0.35650
3996.35444,0.35698
3994.42570,0.35770
3992.49696,0.35852
3990.56821,0.35933
3988.63947,0.35998
3986.71073,0.36056
3984.78199,0.36122
3982.85324,0.36186
3980.92450,0.36240
3978.99576,0.36297
3977.06702,0.36358
3975.13827,0.36400
3973.20953,0.36441
3971.28079,0.36524
3969.35205,0.36634
3967.42330,0.36718
3965.49456,0.36782
3963.56582,0.36864
3961.63708,0.36959
3959.70833,0.37055
3957.77959,0.37158
3955.85085,0.37255
3953.92211,0.37332
3951.99336,0.37406
3950.06462,0.37493
3948.13588,0.37595
3946.20714,0.37717
3944.27839,0.37850
3942.34965,0.37981
3940.42091,0.38108
3938.49217,0.38209
3936.56342,0.38267
3934.63468,0.38303
3932.70594,0.38350
3930.77720,0.38422
3928.84845,0.38514
3926.91971,0.38611
3924.99097,0.38711
3923.06223,0.38813
3921.13348,0.38906
3919.20474,0.38989
3917.27600,0.39065
3915.34726,0.39138
3913.41851,0.39220
3911.48977,0.39310
3909.56103,0.39392
3907.63229,0.39460
3905.70354,0.39519
3903.77480,0.39586
3901.84606,0.39681
3899.91732,0.39772
3897.98857,0.39819
3896.05983,0.39852
3894.13109,0.39902
3892.20235,0.39968
3890.27360,0.40040
3888.34486,0.40117
3886.41612,0.40202
3884.48738,0.40286
3882.55863,0.40355
3880.62989,0.40415
3878.70115,0.40489
3876.77241,0.40583
3874.84366,0.40687
3872.91492,0.40783
3870.98618,0.40877
3869.05744,0.40985
3867.12869,0.41087
3865.19995,0.41173
3863.27121,0.41274
3861.34247,0.41397
3859.41372,0.41521
3857.48498,0.41633
3855.55624,0.41728
3853.62750,0.41818
3851.69875,0.41933
3849.77001,0.42064
3847.84127,0.42190
3845.91253,0.42297
3843.98378,0.42382
3842.05504,0.42462
3840.12630,0.42548
3838.19756,0.42650
3836.26882,0.42773
3834.34007,0.42880
3832.41133,0.42942
3830.48259,0.42971
3828.55385,0.42995
3826.62510,0.43025
3824.69636,0.43050
3822.76762,0.43084
3820.83888,0.43122
3818.91013,0.43130
3816.98139,0.43137
3815.05265,0.43175
3813.12391,0.43211
3811.19516,0.43241
3809.26642,0.43286
3807.33768,0.43332
3805.40894,0.43350
3803.48019,0.43346
3801.55145,0.43361
3799.62271,0.43401
3797.69397,0.43421
3795.76522,0.43410
3793.83648,0.43400
3791.90774,0.43392
3789.97900,0.43379
3788.05025,0.43384
3786.12151,0.43414
3784.19277,0.43438
3782.26403,0.43432
3780.33528,0.43404
3778.40654,0.43371
3776.47780,0.43355
3774.54906,0.43351
3772.62031,0.43332
3770.69157,0.43284
3768.76283,0.43237
3766.83409,0.43212
3764.90534,0.43191
3762.97660,0.43156
3761.04786,0.43121
3759.11912,0.43077
3757.19037,0.42999
3755.26163,0.42918
3753.33289,0.42864
3751.40415,0.42806
3749.47540,0.42727
3747.54666,0.42659
3745.61792,0.42592
3743.68918,0.42511
3741.76043,0.42425
3739.83169,0.42333
3737.90295,0.42245
3735.97421,0.42168
3734.04546,0.42085
3732.11672,0.41992
3730.18798,0.41875
3728.25924,0.41714
3726.33049,0.41542
3724.40175,0.41389
3722.47301,0.41229
3720.54427,0.41050
3718.61552,0.40872
3716.68678,0.40700
3714.75804,0.40522
3712.82930,0.40311
3710.90055,0.40062
3708.97181,0.39825
3707.04307,0.39619
3705.11433,0.39397
3703.18558,0.39120
3701.25684,0.38780
3699.32810,0.38422
3697.39936,0.38088
3695.47061,0.37758
3693.54187,0.37388
3691.61313,0.36967
3689.68439,0.36501
3687.75564,0.35998
3685.82690,0.35503
3683.89816,0.35018
3681.96942,0.34506
3680.04067,0.33965
3678.11193,0.33387
3676.18319,0.32701
3674.25445,0.31954
3672.32570,0.31295
3670.39696,0.30656
3668.46822,0.29972
3666.53948,0.29321
3664.61073,0.28699
3662.68199,0.28067
3660.75325,0.27446
3658.82451,0.26835
3656.89576,0.26179
3654.96702,0.25515
3653.03828,0.24937
3651.10954,0.24388
3649.18079,0.23796
3647.25205,0.23226
3645.32331,0.22715
3643.39457,0.22220
3641.46582,0.21720
3639.53708,0.21228
3637.60834,0.20763
3635.67960,0.20314
3633.75085,0.19872
3631.82211,0.19442
3629.89337,0.18984
3627.96463,0.18497
3626.03588,0.18084
3624.10714,0.17736
3622.17840,0.17380
3620.24966,0.16988
3618.32091,0.16584
3616.39217,0.16197
3614.46343,0.15806
3612.53469,0.15398
3610.60594,0.14994
3608.67720,0.14594
3606.74846,0.14206
3604.81972,0.13849
3602.89097,0.13509
3600.96223,0.13163
3599.03349,0.12823
3597.10475,0.12495
3595.17600,0.12164
3593.24726,0.11842
3591.31852,0.11566
3589.38978,0.11330
3587.46103,0.11079
3585.53229,0.10800
3583.60355,0.10531
3581.67481,0.10290
3579.74606,0.10081
3577.81732,0.09869
3575.88858,0.09620
3573.95984,0.09367
3572.03109,0.09169
3570.10235,0.09030
3568.17361,0.08882
3566.24487,0.08667
3564.31612,0.08451
3562.38738,0.08299
3560.45864,0.08188
3558.52990,0.08083
3556.60115,0.07952
3554.67241,0.07778
3552.74367,0.07587
3550.81493,0.07422
3548.88618,0.07288
3546.95744,0.07167
3545.02870,0.07049
3543.09996,0.06945
3541.17121,0.06846
3539.24247,0.06736
3537.31373,0.06647
3535.38499,0.06590
3533.45624,0.06514
3531.52750,0.06404
3529.59876,0.06296
3527.67002,0.06207
3525.74127,0.06121
3523.81253,0.06014
3521.88379,0.05907
3519.95505,0.05819
3518.02630,0.05735
3516.09756,0.05670
3514.16882,0.05620
3512.24008,0.05556
3510.31133,0.05460
3508.38259,0.05342
3506.45385,0.05247
3504.52511,0.05179
3502.59636,0.05108
3500.66762,0.05038
3498.73888,0.04972
3496.81014,0.04907
3494.88139,0.04853
3492.95265,0.04810
3491.02391,0.04755
3489.09517,0.04685
3487.16642,0.04636
3485.23768,0.04635
3483.30894,0.04643
3481.38020,0.04604
3479.45145,0.04556
3477.52271,0.04535
3475.59397,0.04497
3473.66523,0.04429
3471.73648,0.04373
3469.80774,0.04349
3467.87900,0.04342
3465.95026,0.04348
3464.02151,0.04356
3462.09277,0.04351
3460.16403,0.04326
3458.23529,0.04275
3456.30654,0.04234
3454.37780,0.04231
3452.44906,0.04233
3450.52032,0.04219
3448.59157,0.04206
3446.66283,0.04203
3444.73409,0.04184
3442.80535,0.04133
3440.87660,0.04099
3438.94786,0.04122
3437.01912,0.04162
3435.09038,0.04164
3433.16163,0.04130
3431.23289,0.04101
3429.30415,0.04105
3427.37541,0.04115
3425.44666,0.04090
3423.51792,0.04045
3421.58918,0.04018
3419.66044,0.04014
3417.73169,0.04024
3415.80295,0.04036
3413.87421,0.04035
3411.94547,0.04029
3410.01672,0.04042
3408.08798,0.04084
3406.15924,0.04125
3404.23050,0.04139
3402.30175,0.04123
3400.37301,0.04108
3398.44427,0.04127
3396.51553,0.04171
3394.58678,0.04196
3392.65804,0.04178
3390.72930,0.04129
3388.80056,0.04077
3386.87181,0.04056
3384.94307,0.04058
3383.01433,0.04053
3381.08559,0.04046
3379.15684,0.04060
3377.22810,0.04068
3375.29936,0.04056
3373.37062,0.04064
3371.44187,0.04097
3369.51313,0.04118
3367.58439,0.04113
3365.65565,0.04108
3363.72690,0.04114
3361.79816,0.04111
3359.86942,0.04097
3357.94068,0.04088
3356.01193,0.04097
3354.08319,0.04111
3352.15445,0.04132
3350.22571,0.04177
3348.29696,0.04227
3346.36822,0.04250
3344.43948,0.04253
3342.51074,0.04253
3340.58199,0.04265
3338.65325,0.04292
3336.72451,0.04331
3334.79577,0.04366
3332.86702,0.04383
3330.93828,0.04404
3329.00954,0.04454
3327.08080,0.04511
3325.15205,0.04544
3323.22331,0.04556
3321.29457,0.04573
3319.36583,0.04611
3317.43708,0.04662
3315.50834,0.04692
3313.57960,0.04688
3311.65086,0.04686
3309.72211,0.04714
3307.79337,0.04743
3305.86463,0.04759
3303.93589,0.04785
3302.00714,0.04818
3300.07840,0.04840
3298.14966,0.04852
3296.22092,0.04852
3294.29217,0.04838
3292.36343,0.04840
3290.43469,0.04868
3288.50595,0.04893
3286.57721,0.04920
3284.64846,0.04975
3282.71972,0.05043
3280.79098,0.05093
3278.86224,0.05128
3276.93349,0.05158
3275.00475,0.05178
3273.07601,0.05202
3271.14727,0.05252
3269.21852,0.05310
3267.28978,0.05342
3265.36104,0.05353
3263.43230,0.05375
3261.50355,0.05410
3259.57481,0.05450
3257.64607,0.05505
3255.71733,0.05581
3253.78858,0.05641
3251.85984,0.05669
3249.93110,0.05684
3248.00236,0.05695
3246.07361,0.05723
3244.14487,0.05770
3242.21613,0.05813
3240.28739,0.05847
3238.35864,0.05871
3236.42990,0.05904
3234.50116,0.05964
3232.57242,0.06032
3230.64367,0.06099
3228.71493,0.06165
3226.78619,0.06218
3224.85745,0.06254
3222.92870,0.06296
3220.99996,0.06348
3219.07122,0.06379
3217.14248,0.06382
3215.21373,0.06397
3213.28499,0.06459
3211.35625,0.06541
3209.42751,0.06598
3207.49876,0.06624
3205.57002,0.06653
3203.64128,0.06714
3201.71254,0.06793
3199.78379,0.06856
3197.85505,0.06900
3195.92631,0.06959
3193.99757,0.07034
3192.06882,0.07092
3190.14008,0.07140
3188.21134,0.07194
3186.28260,0.07261
3184.35385,0.07340
3182.42511,0.07411
3180.49637,0.07476
3178.56763,0.07549
3176.63888,0.07632
3174.71014,0.07716
3172.78140,0.07781
3170.85266,0.07829
3168.92391,0.07887
3166.99517,0.07961
3165.06643,0.08042
3163.13769,0.08128
3161.20894,0.08219
3159.28020,0.08305
3157.35146,0.08379
3155.42272,0.08447
3153.49397,0.08518
3151.56523,0.08577
3149.63649,0.08617
3147.70775,0.08665
3145.77900,0.08731
3143.85026,0.08798
3141.92152,0.08879
3139.99278,0.08981
3138.06403,0.09080
3136.13529,0.09149
3134.20655,0.09178
3132.27781,0.09208
3130.34906,0.09273
3128.42032,0.09351
3126.49158,0.09423
3124.56284,0.09487
3122.63409,0.09545
3120.70535,0.09604
3118.77661,0.09673
3116.84787,0.09755
3114.91912,0.09839
3112.99038,0.09910
3111.06164,0.09961
3109.13290,0.09993
3107.20415,0.10004
3105.27541,0.10025
3103.34667,0.10091
3101.41793,0.10179
3099.48918,0.10246
3097.56044,0.10290
3095.63170,0.10331
3093.70296,0.10385
3091.77421,0.10435
3089.84547,0.10463
3087.91673,0.10494
3085.98799,0.10530
3084.05924,0.10560
3082.13050,0.10611
3080.20176,0.10670
3078.27302,0.10682
3076.34427,0.10665
3074.41553,0.10674
3072.48679,0.10722
3070.55805,0.10776
3068.62930,0.10803
3066.70056,0.10819
3064.77182,0.10866
3062.84308,0.10945
3060.91433,0.11005
3058.98559,0.11032
3057.05685,0.11064
3055.12811,0.11109
3053.19936,0.11159
3051.27062,0.11208
3049.34188,0.11236
3047.41314,0.11240
3045.48439,0.11257
3043.55565,0.11303
3041.62691,0.11347
3039.69817,0.11376
3037.76942,0.11410
3035.84068,0.11434
3033.91194,0.11412
3031.98320,0.11390
3030.05445,0.11419
3028.12571,0.11461
3026.19697,0.11474
3024.26823,0.11447
3022.33948,0.11392
3020.41074,0.11345
3018.48200,0.11323
3016.55326,0.11295
3014.62451,0.11229
3012.69577,0.11142
3010.76703,0.11053
3008.83829,0.10967
3006.90954,0.10889
3004.98080,0.10820
3003.05206,0.10763
3001.12332,0.10726
2999.19457,0.10683
2997.26583,0.10613
2995.33709,0.10536
2993.40835,0.10469
2991.47960,0.10409
2989.55086,0.10335
2987.62212,0.10223
2985.69338,0.10080
2983.76463,0.09919
2981.83589,0.09738
2979.90715,0.09533
2977.97841,0.09311
2976.04966,0.09080
2974.12092,0.08848
2972.19218,0.08616
2970.26344,0.08394
2968.33469,0.08213
2966.40595,0.08093
2964.47721,0.08009
2962.54847,0.07907
2960.61972,0.07783
2958.69098,0.07689
2956.76224,0.07621
2954.83350,0.07517
2952.90475,0.07369
2950.97601,0.07227
2949.04727,0.07125
2947.11853,0.07048
2945.18978,0.06991
2943.26104,0.06959
2941.33230,0.06938
2939.40356,0.06928
2937.47481,0.06919
2935.54607,0.06887
2933.61733,0.06863
2931.68859,0.06883
2929.75984,0.06895
2927.83110,0.06848
2925.90236,0.06790
2923.97362,0.06768
2922.04487,0.06765
2920.11613,0.06760
2918.18739,0.06757
2916.25865,0.06769
2914.32990,0.06798
2912.40116,0.06842
2910.47242,0.06910
2908.54368,0.06981
2906.61493,0.07023
2904.68619,0.07047
2902.75745,0.07082
2900.82871,0.07127
2898.89996,0.07165
2896.97122,0.07203
2895.04248,0.07245
2893.11374,0.07298
2891.18499,0.07367
2889.25625,0.07445
2887.32751,0.07514
2885.39877,0.07556
2883.47002,0.07583
2881.54128,0.07600
2879.61254,0.07595
2877.68380,0.07589
2875.75505,0.07601
2873.82631,0.07618
2871.89757,0.07653
2869.96883,0.07725
2868.04008,0.07807
2866.11134,0.07883
2864.18260,0.07970
2862.25386,0.08058
2860.32511,0.08115
2858.39637,0.08145
2856.46763,0.08173
2854.53889,0.08211
2852.61014,0.08267
2850.68140,0.08351
2848.75266,0.08484
2846.82392,0.08667
2844.89517,0.08867
2842.96643,0.09068
2841.03769,0.09267
2839.10895,0.09478
2837.18020,0.09705
2835.25146,0.09913
2833.32272,0.10122
2831.39398,0.10389
2829.46523,0.10704
2827.53649,0.10999
2825.60775,0.11251
2823.67901,0.11490
2821.75026,0.11713
2819.82152,0.11911
2817.89278,0.12112
2815.96404,0.12324
2814.03529,0.12538
2812.10655,0.12733
2810.17781,0.12896
2808.24907,0.13047
2806.32032,0.13212
2804.39158,0.13379
2802.46284,0.13528
2800.53410,0.13660
2798.60535,0.13782
2796.67661,0.13903
2794.74787,0.14019
2792.81913,0.14110
2790.89038,0.14193
2788.96164,0.14298
2787.03290,0.14408
2785.10416,0.14492
2783.17541,0.14547
2781.24667,0.14598
2779.31793,0.14680
2777.38919,0.14775
2775.46044,0.14847
2773.53170,0.14906
2771.60296,0.14960
2769.67422,0.15001
2767.74547,0.15041
2765.81673,0.15084
2763.88799,0.15122
2761.95925,0.15167
2760.03050,0.15217
2758.10176,0.15258
2756.17302,0.15289
2754.24428,0.15313
2752.31553,0.15328
2750.38679,0.15338
2748.45805,0.15352
2746.52931,0.15374
2744.60056,0.15387
2742.67182,0.15392
2740.74308,0.15408
2738.81434,0.15445
2736.88560,0.15483
2734.95685,0.15484
2733.02811,0.15475
2731.09937,0.15501
2729.17063,0.15552
2727.24188,0.15608
2725.31314,0.15661
2723.38440,0.15712
2721.45566,0.15774
2719.52691,0.15850
2717.59817,0.15933
2715.66943,0.16008
2713.74069,0.16062
2711.81194,0.16115
2709.88320,0.16197
2707.95446,0.16305
2706.02572,0.16411
2704.09697,0.16504
2702.16823,0.16596
2700.23949,0.16684
2698.31075,0.16764
2696.38200,0.16842
2694.45326,0.16925
2692.52452,0.17015
2690.59578,0.17107
2688.66703,0.17197
2686.73829,0.17282
2684.80955,0.17352
2682.88081,0.17416
2680.95206,0.17487
2679.02332,0.17560
2677.09458,0.17635
2675.16584,0.17702
2673.23709,0.17753
2671.30835,0.17809
2669.37961,0.17876
2667.45087,0.17936
2665.52212,0.17999
2663.59338,0.18058
2661.66464,0.18093
2659.73590,0.18131
2657.80715,0.18187
2655.87841,0.18241
2653.94967,0.18290
2652.02093,0.18336
2650.09218,0.18374
2648.16344,0.18415
2646.23470,0.18475
2644.30596,0.18539
2642.37721,0.18599
2640.44847,0.18673
2638.51973,0.18761
2636.59099,0.18844
2634.66224,0.18921
2632.73350,0.19002
2630.80476,0.19095
2628.87602,0.19193
2626.94727,0.19281
2625.01853,0.19353
2623.08979,0.19418
2621.16105,0.19484
2619.23230,0.19543
2617.30356,0.19597
2615.37482,0.19655
2613.44608,0.19717
2611.51733,0.19774
2609.58859,0.19816
2607.65985,0.19854
2605.73111,0.19910
2603.80236,0.19976
2601.87362,0.20036
2599.94488,0.20094
2598.01614,0.20149
2596.08739,0.20209
2594.15865,0.20279
2592.22991,0.20344
2590.30117,0.20398
2588.37242,0.20453
2586.44368,0.20509
2584.51494,0.20568
2582.58620,0.20623
2580.65745,0.20667
2578.72871,0.20706
2576.79997,0.20742
2574.87123,0.20779
2572.94248,0.20814
2571.01374,0.20839
2569.08500,0.20859
2567.15626,0.20884
2565.22751,0.20925
2563.29877,0.20984
2561.37003,0.21030
2559.44129,0.21055
2557.51254,0.21079
2555.58380,0.21115
2553.65506,0.21158
2551.72632,0.21187
2549.79757,0.21193
2547.86883,0.21204
2545.94009,0.21245
2544.01135,0.21297
2542.08260,0.21335
2540.15386,0.21373
2538.22512,0.21429
2536.29638,0.21488
2534.36763,0.21547
2532.43889,0.21624
2530.51015,0.21716
2528.58141,0.21798
2526.65266,0.21858
2524.72392,0.21906
2522.79518,0.21941
2520.86644,0.21968
2518.93769,0.22015
2517.00895,0.22079
2515.08021,0.22144
2513.15147,0.22218
2511.22272,0.22309
2509.29398,0.22409
2507.36524,0.22505
2505.43650,0.22604
2503.50775,0.22710
2501.57901,0.22813
2499.65027,0.22922
2497.72153,0.23047
2495.79278,0.23176
2493.86404,0.23303
2491.93530,0.23415
2490.00656,0.23496
2488.07781,0.23561
2486.14907,0.23624
2484.22033,0.23684
2482.29159,0.23769
2480.36284,0.23875
2478.43410,0.23967
2476.50536,0.24056
2474.57662,0.24155
2472.64787,0.24237
2470.71913,0.24287
2468.79039,0.24320
2466.86165,0.24351
2464.93290,0.24399
2463.00416,0.24467
2461.07542,0.24531
2459.14668,0.24588
2457.21793,0.24659
2455.28919,0.24737
2453.36045,0.24808
2451.43171,0.24882
2449.50296,0.24971
2447.57422,0.25071
2445.64548,0.25168
2443.71674,0.25254
2441.78799,0.25340
2439.85925,0.25428
2437.93051,0.25522
2436.00177,0.25634
2434.07302,0.25755
2432.14428,0.25860
2430.21554,0.25950
2428.28680,0.26033
2426.35805,0.26121
2424.42931,0.26229
2422.50057,0.26357
2420.57183,0.26484
2418.64308,0.26607
2416.71434,0.26735
2414.78560,0.26871
2412.85686,0.27009
2410.92811,0.27141
2408.99937,0.27270
2407.07063,0.27403
2405.14189,0.27527
2403.21314,0.27630
2401.28440,0.27731
2399.35566,0.27843
2397.42692,0.27953
2395.49817,0.28052
2393.56943,0.28156
2391.64069,0.28271
2389.71195,0.28378
2387.78320,0.28470
2385.85446,0.28561
2383.92572,0.28644
2381.99698,0.28732
2380.06823,0.28853
2378.13949,0.28979
2376.21075,0.29076
2374.28201,0.29156
2372.35326,0.29230
2370.42452,0.29299
2368.49578,0.29372
2366.56704,0.29447
2364.63829,0.29527
2362.70955,0.29627
2360.78081,0.29739
2358.85207,0.29839
2356.92332,0.29920
2354.99458,0.29991
2353.06584,0.30069
2351.13710,0.30153
2349.20835,0.30227
2347.27961,0.30280
2345.35087,0.30326
2343.42213,0.30389
2341.49338,0.30468
2339.56464,0.30541
2337.63590,0.30605
2335.70716,0.30662
2333.77841,0.30708
2331.84967,0.30743
2329.92093,0.30776
2327.99219,0.30813
2326.06344,0.30847
2324.13470,0.30879
2322.20596,0.30918
2320.27722,0.30953
2318.34847,0.30980
2316.41973,0.31003
2314.49099,0.31012
2312.56225,0.31006
2310.63350,0.31009
2308.70476,0.31026
2306.77602,0.31036
2304.84728,0.31019
2302.91853,0.30987
2300.98979,0.30975
2299.06105,0.30992
2297.13231,0.31006
2295.20356,0.30999
2293.27482,0.30981
2291.34608,0.30969
2289.41734,0.30969
2287.48859,0.30994
2285.55985,0.31033
2283.63111,0.31064
2281.70237,0.31075
2279.77362,0.31057
2277.84488,0.31018
2275.91614,0.30974
2273.98740,0.30940
2272.05865,0.30906
2270.12991,0.30850
2268.20117,0.30783
2266.27243,0.30727
2264.34368,0.30669
2262.41494,0.30581
2260.48620,0.30477
2258.55746,0.30398
2256.62871,0.30345
2254.69997,0.30292
2252.77123,0.30230
2250.84249,0.30174
2248.91374,0.30146
2246.98500,0.30130
2245.05626,0.30098
2243.12752,0.30053
2241.19877,0.30024
2239.27003,0.30023
2237.34129,0.30037
2235.41255,0.30043
2233.48380,0.30048
2231.55506,0.30076
2229.62632,0.30120
2227.69758,0.30148
2225.76883,0.30160
2223.84009,0.30184
2221.91135,0.30230
2219.98261,0.30281
2218.05386,0.30319
2216.12512,0.30347
2214.19638,0.30364
2212.26764,0.30363
2210.33889,0.30349
2208.41015,0.30327
2206.48141,0.30297
2204.55267,0.30253
2202.62392,0.30192
2200.69518,0.30121
2198.76644,0.30040
2196.83770,0.29959
2194.90895,0.29884
2192.98021,0.29794
2191.05147,0.29686
2189.12273,0.29586
2187.19399,0.29488
2185.26524,0.29367
2183.33650,0.29232
2181.40776,0.29107
2179.47902,0.28989
2177.55027,0.28862
2175.62153,0.28724
2173.69279,0.28596
2171.76405,0.28483
2169.83530,0.28359
2167.90656,0.28212
2165.97782,0.28072
2164.04908,0.27968
2162.12033,0.27893
2160.19159,0.27834
2158.26285,0.27780
2156.33411,0.27717
2154.40536,0.27648
2152.47662,0.27591
2150.54788,0.27552
2148.61914,0.27519
2146.69039,0.27480
2144.76165,0.27437
2142.83291,0.27393
2140.90417,0.27369
2138.97542,0.27376
2137.04668,0.27385
2135.11794,0.27378
2133.18920,0.27381
2131.26045,0.27405
2129.33171,0.27435
2127.40297,0.27467
2125.47423,0.27495
2123.54548,0.27517
2121.61674,0.27544
2119.68800,0.27584
2117.75926,0.27632
2115.83051,0.27682
2113.90177,0.27735
2111.97303,0.27800
2110.04429,0.27866
2108.11554,0.27914
2106.18680,0.27951
2104.25806,0.27998
2102.32932,0.28067
2100.40057,0.28153
2098.47183,0.28228
2096.54309,0.28274
2094.61435,0.28301
2092.68560,0.28325
2090.75686,0.28357
2088.82812,0.28392
2086.89938,0.28412
2084.97063,0.28410
2083.04189,0.28393
2081.11315,0.28375
2079.18441,0.28357
2077.25566,0.28327
2075.32692,0.28279
2073.39818,0.28222
2071.46944,0.28163
2069.54069,0.28111
2067.61195,0.28070
2065.68321,0.28030
2063.75447,0.27999
2061.82572,0.27983
2059.89698,0.27969
2057.96824,0.27959
2056.03950,0.27966
2054.11075,0.27982
2052.18201,0.27996
2050.25327,0.28011
2048.32453,0.28037
2046.39578,0.28086
2044.46704,0.28151
2042.53830,0.28215
2040.60956,0.28271
2038.68081,0.28332
2036.75207,0.28414
2034.82333,0.28504
2032.89459,0.28591
2030.96584,0.28683
2029.03710,0.28788
2027.10836,0.28903
2025.17962,0.29023
2023.25087,0.29142
2021.32213,0.29260
2019.39339,0.29388
2017.46465,0.29527
2015.53590,0.29655
2013.60716,0.29757
2011.67842,0.29843
2009.74968,0.29943
2007.82093,0.30055
2005.89219,0.30152
2003.96345,0.30221
2002.03471,0.30273
2000.10596,0.30326
1998.17722,0.30390
1996.24848,0.30454
1994.31974,0.30509
1992.39099,0.30566
1990.46225,0.30626
1988.53351,0.30675
1986.60477,0.30716
1984.67602,0.30745
1982.74728,0.30761
1980.81854,0.30790
1978.88980,0.30823
1976.96105,0.30829
1975.03231,0.30820
1973.10357,0.30819
1971.17483,0.30816
1969.24608,0.30800
1967.31734,0.30784
1965.38860,0.30782
1963.45986,0.30785
1961.53111,0.30789
1959.60237,0.30802
1957.67363,0.30822
1955.74489,0.30837
1953.81614,0.30863
1951.88740,0.30920
1949.95866,0.30994
1948.02992,0.31071
1946.10117,0.31162
1944.17243,0.31274
1942.24369,0.31392
1940.31495,0.31499
1938.38620,0.31601
1936.45746,0.31721
1934.52872,0.31859
1932.59998,0.32002
1930.67123,0.32143
1928.74249,0.32264
1926.81375,0.32353
1924.88501,0.32427
1922.95626,0.32506
1921.02752,0.32588
1919.09878,0.32652
1917.17004,0.32690
1915.24129,0.32720
1913.31255,0.32751
1911.38381,0.32790
1909.45507,0.32837
1907.52632,0.32862
1905.59758,0.32858
1903.66884,0.32850
1901.74010,0.32845
1899.81135,0.32828
1897.88261,0.32794
1895.95387,0.32756
1894.02513,0.32723
1892.09638,0.32690
1890.16764,0.32656
1888.23890,0.32619
1886.31016,0.32580
1884.38141,0.32550
1882.45267,0.32518
1880.52393,0.32471
1878.59519,0.32433
1876.66644,0.32407
1874.73770,0.32354
1872.80896,0.32267
1870.88022,0.32187
1868.95147,0.32124
1867.02273,0.32058
1865.09399,0.31989
1863.16525,0.31929
1861.23650,0.31866
1859.30776,0.31777
1857.37902,0.31682
1855.45028,0.31601
1853.52153,0.31516
1851.59279,0.31409
1849.66405,0.31297
1847.73531,0.31192
1845.80656,0.31083
1843.87782,0.30962
1841.94908,0.30843
1840.02034,0.30723
1838.09159,0.30594
1836.16285,0.30460
1834.23411,0.30319
1832.30537,0.30168
1830.37662,0.30011
1828.44788,0.29844
1826.51914,0.29664
1824.59040,0.29461
1822.66165,0.29239
1820.73291,0.29024
1818.80417,0.28817
1816.87543,0.28616
1814.94668,0.28411
1813.01794,0.28170
1811.08920,0.27881
1809.16046,0.27574
1807.23171,0.27270
1805.30297,0.26963
1803.37423,0.26643
1801.44549,0.26308
1799.51674,0.25968
1797.58800,0.25620
1795.65926,0.25254
1793.73052,0.24850
1791.80177,0.24403
1789.87303,0.23957
1787.94429,0.23521
1786.01555,0.23052
1784.08680,0.22527
1782.15806,0.21942
1780.22932,0.21272
1778.30058,0.20509
1776.37183,0.19693
1774.44309,0.18813
1772.51435,0.17798
1770.58561,0.16699
1768.65686,0.15603
1766.72812,0.14499
1764.79938,0.13445
1762.87064,0.12456
1760.94189,0.11548
1759.01315,0.10802
1757.08441,0.10180
1755.15567,0.09656
1753.22692,0.09238
1751.29818,0.08874
1749.36944,0.08552
1747.44070,0.08303
1745.51195,0.08116
1743.58321,0.07963
1741.65447,0.07851
1739.72573,0.07799
1737.79698,0.07809
1735.86824,0.07855
1733.93950,0.07934
1732.01076,0.08058
1730.08201,0.08226
1728.15327,0.08423
1726.22453,0.08620
1724.29579,0.08796
1722.36704,0.08939
1720.43830,0.09056
1718.50956,0.09145
1716.58082,0.09170
1714.65207,0.09134
1712.72333,0.09076
1710.79459,0.08994
1708.86585,0.08856
1706.93710,0.08649
1705.00836,0.08406
1703.07962,0.08155
1701.15088,0.07852
1699.22213,0.07505
1697.29339,0.07187
1695.36465,0.06850
1693.43591,0.06510
1691.50716,0.06214
1689.57842,0.05943
1687.64968,0.05709
1685.72094,0.05478
1683.79219,0.05217
1681.86345,0.05012
1679.93471,0.04889
1678.00597,0.04795
1676.07722,0.04707
1674.14848,0.04642
1672.21974,0.04614
1670.29100,0.04616
1668.36225,0.04633
1666.43351,0.04650
1664.50477,0.04676
1662.57603,0.04733
1660.64728,0.04812
1658.71854,0.04894
1656.78980,0.04989
1654.86106,0.05099
1652.93231,0.05221
1651.00357,0.05329
1649.07483,0.05418
1647.14609,0.05500
1645.21735,0.05566
1643.28860,0.05612
1641.35986,0.05638
1639.43112,0.05652
1637.50238,0.05642
1635.57363,0.05609
1633.64489,0.05593
1631.71615,0.05601
1629.78741,0.05608
1627.85866,0.05611
1625.92992,0.05612
1624.00118,0.05601
1622.07244,0.05586
1620.14369,0.05588
1618.21495,0.05609
1616.28621,0.05646
1614.35747,0.05685
1612.42872,0.05697
1610.49998,0.05671
1608.57124,0.05633
1606.64250,0.05623
1604.71375,0.05642
1602.78501,0.05661
1600.85627,0.05662
1598.92753,0.05660
1596.99878,0.05672
1595.07004,0.05715
1593.14130,0.05809
1591.21256,0.05963
1589.28381,0.06166
1587.35507,0.06406
1585.42633,0.06676
1583.49759,0.06975
1581.56884,0.07287
1579.64010,0.07580
1577.71136,0.07853
1575.78262,0.08133
1573.85387,0.08383
1571.92513,0.08580
1569.99639,0.08738
1568.06765,0.08834
1566.13890,0.08858
1564.21016,0.08852
1562.28142,0.08849
1560.35268,0.08820
1558.42393,0.08721
1556.49519,0.08602
1554.56645,0.08508
1552.63771,0.08435
1550.70896,0.08378
1548.78022,0.08316
1546.85148,0.08245
1544.92274,0.08173
1542.99399,0.08106
1541.06525,0.08034
1539.13651,0.07940
1537.20777,0.07862
1535.27902,0.07804
1533.35028,0.07710
1531.42154,0.07577
1529.49280,0.07423
1527.56405,0.07225
1525.63531,0.06982
1523.70657,0.06718
1521.77783,0.06408
1519.84908,0.06083
1517.92034,0.05803
1515.99160,0.05559
1514.06286,0.05366
1512.13411,0.05254
1510.20537,0.05218
1508.27663,0.05229
1506.34789,0.05273
1504.41914,0.05360
1502.49040,0.05496
1500.56166,0.05674
1498.63292,0.05871
1496.70417,0.06080
1494.77543,0.06287
1492.84669,0.06458
1490.91795,0.06580
1488.98920,0.06666
1487.06046,0.06717
1485.13172,0.06715
1483.20298,0.06643
1481.27423,0.06490
1479.34549,0.06282
1477.41675,0.06047
1475.48801,0.05791
1473.55926,0.05522
1471.63052,0.05271
1469.70178,0.05076
1467.77304,0.04940
1465.84429,0.04856
1463.91555,0.04842
1461.98681,0.04887
1460.05807,0.04949
1458.12932,0.04996
1456.20058,0.05021
1454.27184,0.05050
1452.34310,0.05098
1450.41435,0.05154
1448.48561,0.05223
1446.55687,0.05299
1444.62813,0.05350
1442.69938,0.05371
1440.77064,0.05368
1438.84190,0.05329
1436.91316,0.05256
1434.98441,0.05175
1433.05567,0.05104
1431.12693,0.05036
1429.19819,0.04988
1427.26944,0.04986
1425.34070,0.05027
1423.41196,0.05093
1421.48322,0.05182
1419.55447,0.05308
1417.62573,0.05457
1415.69699,0.05598
1413.76825,0.05727
1411.83950,0.05843
1409.91076,0.05938
1407.98202,0.06018
1406.05328,0.06076
1404.12453,0.06096
1402.19579,0.06088
1400.26705,0.06066
1398.33831,0.06031
1396.40956,0.05985
1394.48082,0.05917
1392.55208,0.05820
1390.62334,0.05705
1388.69459,0.05573
1386.76585,0.05420
1384.83711,0.05263
1382.90837,0.05118
1380.97962,0.04997
1379.05088,0.04917
1377.12214,0.04879
1375.19340,0.04870
1373.26465,0.04879
1371.33591,0.04912
1369.40717,0.04961
1367.47843,0.05016
1365.54968,0.05075
1363.62094,0.05131
1361.69220,0.05180
1359.76346,0.05233
1357.83471,0.05292
1355.90597,0.05339
1353.97723,0.05360
1352.04849,0.05370
1350.11974,0.05380
1348.19100,0.05368
1346.26226,0.05324
1344.33352,0.05265
1342.40477,0.05196
1340.47603,0.05129
1338.54729,0.05087
1336.61855,0.05063
1334.68980,0.05036
1332.76106,0.05015
1330.83232,0.05024
1328.90358,0.05050
1326.97483,0.05059
1325.04609,0.05064
1323.11735,0.05097
1321.18861,0.05153
1319.25986,0.05206
1317.33112,0.05261
1315.40238,0.05333
1313.47364,0.05411
1311.54489,0.05487
1309.61615,0.05563
1307.68741,0.05635
1305.75867,0.05699
1303.82992,0.05756
1301.90118,0.05796
1299.97244,0.05798
1298.04370,0.05761
1296.11495,0.05707
1294.18621,0.05643
1292.25747,0.05569
1290.32873,0.05487
1288.39998,0.05402
1286.47124,0.05315
1284.54250,0.05225
1282.61376,0.05138
1280.68501,0.05063
1278.75627,0.05000
1276.82753,0.04940
1274.89879,0.04893
1272.97004,0.04861
1271.04130,0.04827
1269.11256,0.04801
1267.18382,0.04793
1265.25507,0.04785
1263.32633,0.04770
1261.39759,0.04774
1259.46885,0.04800
1257.54010,0.04815
1255.61136,0.04807
1253.68262,0.04794
1251.75388,0.04776
1249.82513,0.04745
1247.89639,0.04716
1245.96765,0.04693
1244.03891,0.04677
1242.11016,0.04675
1240.18142,0.04675
1238.25268,0.04652
1236.32394,0.04617
1234.39519,0.04614
1232.46645,0.04655
1230.53771,0.04721
1228.60897,0.04794
1226.68022,0.04862
1224.75148,0.04926
1222.82274,0.04980
1220.89400,0.05024
1218.96525,0.05073
1217.03651,0.05133
1215.10777,0.05184
1213.17903,0.05208
1211.25028,0.05214
1209.32154,0.05233
1207.39280,0.05261
1205.46406,0.05267
1203.53531,0.05272
1201.60657,0.05293
1199.67783,0.05308
1197.74909,0.05316
1195.82034,0.05323
1193.89160,0.05309
1191.96286,0.05267
1190.03412,0.05202
1188.10537,0.05104
1186.17663,0.04972
1184.24789,0.04816
1182.31915,0.04643
1180.39040,0.04471
1178.46166,0.04324
1176.53292,0.04185
1174.60418,0.04047
1172.67543,0.03942
1170.74669,0.03894
1168.81795,0.03916
1166.88921,0.04003
1164.96046,0.04117
1163.03172,0.04229
1161.10298,0.04335
1159.17424,0.04420
1157.24549,0.04472
1155.31675,0.04503
1153.38801,0.04525
1151.45927,0.04540
1149.53052,0.04533
1147.60178,0.04487
1145.67304,0.04417
1143.74430,0.04329
1141.81555,0.04217
1139.88681,0.04093
1137.95807,0.03962
1136.02933,0.03855
1134.10058,0.03817
1132.17184,0.03808
1130.24310,0.03792
1128.31436,0.03806
1126.38561,0.03864
1124.45687,0.03939
1122.52813,0.04013
1120.59939,0.04074
1118.67064,0.04115
1116.74190,0.04161
1114.81316,0.04246
1112.88442,0.04343
1110.95567,0.04396
1109.02693,0.04413
1107.09819,0.04432
1105.16945,0.04460
1103.24070,0.04508
1101.31196,0.04562
1099.38322,0.04580
1097.45448,0.04548
1095.52574,0.04488
1093.59699,0.04420
1091.66825,0.04348
1089.73951,0.04259
1087.81077,0.04168
1085.88202,0.04121
1083.95328,0.04134
1082.02454,0.04179
1080.09580,0.04240
1078.16705,0.04311
1076.23831,0.04404
1074.30957,0.04524
1072.38083,0.04645
1070.45208,0.04772
1068.52334,0.04921
1066.59460,0.05074
1064.66586,0.05236
1062.73711,0.05434
1060.80837,0.05651
1058.87963,0.05829
1056.95089,0.05945
1055.02214,0.06024
1053.09340,0.06095
1051.16466,0.06151
1049.23592,0.06172
1047.30717,0.06153
1045.37843,0.06112
1043.44969,0.06070
1041.52095,0.06074
1039.59220,0.06160
1037.66346,0.06307
1035.73472,0.06470
1033.80598,0.06603
1031.87723,0.06690
1029.94849,0.06770
1028.01975,0.06868
1026.09101,0.06950
1024.16226,0.07008
1022.23352,0.07049
1020.30478,0.07081
1018.37604,0.07142
1016.44729,0.07243
1014.51855,0.07345
1012.58981,0.07426
1010.66107,0.07484
1008.73232,0.07530
1006.80358,0.07598
1004.87484,0.07689
1002.94610,0.07772
1001.01735,0.07850
999.08861,0.07951
997.15987,0.08055
995.23113,0.08144
993.30238,0.08233
991.37364,0.08344
989.44490,0.08509
987.51616,0.08736
985.58741,0.09004
983.65867,0.09295
981.72993,0.09586
979.80119,0.09852
977.87244,0.10073
975.94370,0.10256
974.01496,0.10419
972.08622,0.10564
970.15747,0.10700
968.22873,0.10854
966.29999,0.11034
964.37125,0.11239
962.44250,0.11470
960.51376,0.11728
958.58502,0.12016
956.65628,0.12315
954.72753,0.12588
952.79879,0.12819
950.87005,0.13015
948.94131,0.13183
947.01256,0.13321
945.08382,0.13422
943.15508,0.13487
941.22634,0.13523
939.29759,0.13530
937.36885,0.13514
935.44011,0.13498
933.51137,0.13496
931.58262,0.13501
929.65388,0.13514
927.72514,0.13532
925.79640,0.13514
923.86765,0.13458
921.93891,0.13415
920.01017,0.13378
918.08143,0.13301
916.15268,0.13196
914.22394,0.13081
912.29520,0.12935
910.36646,0.12744
908.43771,0.12519
906.50897,0.12289
904.58023,0.12080
902.65149,0.11899
900.72274,0.11760
898.79400,0.11692
896.86526,0.11718
894.93652,0.11839
893.00777,0.12035
891.07903,0.12274
889.15029,0.12503
887.22155,0.12698
885.29280,0.12876
883.36406,0.13025
881.43532,0.13122
879.50658,0.13158
877.57783,0.13172
875.64909,0.13223
873.72035,0.13306
871.79161,0.13372
869.86286,0.13433
867.93412,0.13506
866.00538,0.13537
864.07664,0.13510
862.14789,0.13464
860.21915,0.13410
858.29041,0.13365
856.36167,0.13341
854.43292,0.13302
852.50418,0.13238
850.57544,0.13201
848.64670,0.13211
846.71795,0.13230
844.78921,0.13229
842.86047,0.13185
840.93173,0.13088
839.00298,0.12966
837.07424,0.12855
835.14550,0.12761
833.21676,0.12694
831.28801,0.12674
829.35927,0.12695
827.43053,0.12720
825.50179,0.12717
823.57304,0.12701
821.64430,0.12708
819.71556,0.12735
817.78682,0.12747
815.85807,0.12737
813.92933,0.12733
812.00059,0.12739
810.07185,0.12741
808.14310,0.12740
806.21436,0.12725
804.28562,0.12688
802.35688,0.12665
800.42813,0.12677
798.49939,0.12676
796.57065,0.12650
794.64191,0.12631
792.71316,0.12600
790.78442,0.12526
788.85568,0.12429
786.92694,0.12330
784.99819,0.12223
783.06945,0.12108
781.14071,0.12011
779.21197,0.11940
777.28322,0.11858
775.35448,0.11743
773.42574,0.11638
771.49700,0.11576
769.56825,0.11517
767.63951,0.11413
765.71077,0.11295
763.78203,0.11203
761.85328,0.11101
759.92454,0.10950
757.99580,0.10785
756.06706,0.10653
754.13831,0.10541
752.20957,0.10418
750.28083,0.10295
748.35209,0.10174
746.42334,0.10045
744.49460,0.09937
742.56586,0.09839
740.63712,0.09717
738.70837,0.09607
736.77963,0.09541
734.85089,0.09460
732.92215,0.09332
730.99340,0.09210
729.06466,0.09132
727.13592,0.09051
725.20718,0.08929
723.27843,0.08808
721.34969,0.08740
719.42095,0.08720
717.49221,0.08718
715.56346,0.08706
713.63472,0.08657
711.70598,0.08576
709.77724,0.08514
707.84849,0.08510
705.91975,0.08522
703.99101,0.08473
702.06227,0.08394
700.13352,0.08373
698.20478,0.08399
696.27604,0.08388
694.34730,0.08313
692.41855,0.08214
690.48981,0.08119
688.56107,0.08042
686.63233,0.08005
684.70358,0.07967
682.77484,0.07860
680.84610,0.07712
678.91736,0.07581
676.98861,0.07448
675.05987,0.07303
673.13113,0.07193
671.20239,0.07130
669.27364,0.07109
667.34490,0.07134
665.41616,0.07187
663.48742,0.07263
661.55867,0.07341
659.62993,0.07398
657.70119,0.07439
655.77245,0.07442
653.84370,0.07402
651.91496,0.07387
649.98622,0.07409
648.05748,0.07402
646.12873,0.07340
644.19999,0.07227
642.27125,0.07091
640.34251,0.06934
638.41376,0.06747
636.48502,0.06624
634.55628,0.06623
632.62754,0.06668
630.69879,0.06715
628.77005,0.06751
626.84131,0.06718
624.91257,0.06599
622.98382,0.06481
621.05508,0.06516
619.12634,0.06751
617.19760,0.06998
615.26885,0.07053
613.34011,0.06999
611.41137,0.07009
609.48263,0.06999
607.55388,0.06914
605.62514,0.06924
603.69640,0.07069
601.76766,0.07192
599.83891,0.07208
