7497.02206,0.84545
7495.09332,0.84643
7493.16458,0.85171
7491.23584,0.85830
7489.30709,0.85899
7487.37835,0.84980
7485.44961,0.83985
7483.52087,0.83737
7481.59212,0.84048
7479.66338,0.84347
7477.73464,0.84224
7475.80590,0.84036
7473.87715,0.84356
7471.94841,0.84842
7470.01967,0.84813
7468.09093,0.84308
7466.16218,0.83861
7464.23344,0.83723
7462.30470,0.83737
7460.37596,0.83762
7458.44721,0.83610
7456.51847,0.83429
7454.58973,0.83537
7452.66099,0.83492
7450.73224,0.83040
7448.80350,0.82524
7446.87476,0.82185
7444.94602,0.82444
7443.01727,0.83175
7441.08853,0.83551
7439.15979,0.83376
7437.23105,0.83033
7435.30230,0.82827
7433.37356,0.82788
7431.44482,0.82714
7429.51608,0.82515
7427.58733,0.82396
7425.65859,0.82497
7423.72985,0.82506
7421.80111,0.82265
7419.87236,0.82137
7417.94362,0.82109
7416.01488,0.81798
7414.08614,0.81520
7412.15739,0.81773
7410.22865,0.82155
7408.29991,0.82125
7406.37117,0.81879
7404.44242,0.81724
7402.51368,0.81633
7400.58494,0.81477
7398.65620,0.81193
7396.72745,0.80871
7394.79871,0.80874
7392.86997,0.81323
7390.94123,0.81594
7389.01248,0.81428
7387.08374,0.81314
7385.15500,0.81201
7383.22626,0.80786
7381.29751,0.80365
7379.36877,0.80393
7377.44003,0.80836
7375.51129,0.81246
7373.58254,0.81516
7371.65380,0.81714
7369.72506,0.81455
7367.79632,0.80709
7365.86757,0.80253
7363.93883,0.80347
7362.01009,0.80471
7360.08135,0.80600
7358.15260,0.80843
7356.22386,0.80853
7354.29512,0.80770
7352.36638,0.80947
7350.43763,0.81097
7348.50889,0.80812
7346.58015,0.80168
7344.65141,0.79799
7342.72266,0.80138
7340.79392,0.80486
7338.86518,0.80155
7336.93644,0.79614
7335.00769,0.79275
7333.07895,0.79193
7331.15021,0.79421
7329.22147,0.79717
7327.29272,0.79859
7325.36398,0.79713
7323.43524,0.79167
7321.50650,0.78521
7319.57775,0.78267
7317.64901,0.78493
7315.72027,0.78878
7313.79153,0.79227
7311.86278,0.79597
7309.93404,0.79830
7308.00530,0.79609
7306.07656,0.79276
7304.14781,0.79450
7302.21907,0.79843
7300.29033,0.79909
7298.36159,0.79601
7296.43284,0.79122
7294.50410,0.78965
7292.57536,0.79309
7290.64662,0.79418
7288.71787,0.78860
7286.78913,0.78489
7284.86039,0.78847
7282.93165,0.79140
7281.00290,0.78993
7279.07416,0.78969
7277.14542,0.79161
7275.21668,0.79183
7273.28793,0.78961
7271.35919,0.78713
7269.43045,0.78637
7267.50171,0.78673
7265.57296,0.78642
7263.64422,0.78767
7261.71548,0.79325
7259.78674,0.79984
7257.85799,0.80163
7255.92925,0.79665
7254.00051,0.78925
7252.07177,0.78540
7250.14302,0.78499
7248.21428,0.78412
7246.28554,0.78154
7244.35680,0.77898
7242.42805,0.77840
7240.49931,0.78029
7238.57057,0.78307
7236.64183,0.78566
7234.71308,0.78729
7232.78434,0.78603
7230.85560,0.78222
7228.92686,0.78016
7226.99811,0.78320
7225.06937,0.78804
7223.14063,0.78872
7221.21189,0.78554
7219.28314,0.78235
7217.35440,0.78003
7215.42566,0.77757
7213.49692,0.77624
7211.56817,0.77805
7209.63943,0.78110
7207.71069,0.78206
7205.78195,0.78139
7203.85320,0.78101
7201.92446,0.77923
7199.99572,0.77621
7198.06698,0.77519
7196.13823,0.77483
7194.20949,0.77298
7192.28075,0.77203
7190.35201,0.77481
7188.42326,0.78004
7186.49452,0.78294
7184.56578,0.78224
7182.63704,0.78146
7180.70829,0.78138
7178.77955,0.77957
7176.85081,0.77551
7174.92207,0.77075
7172.99332,0.76716
7171.06458,0.76565
7169.13584,0.76595
7167.20710,0.76613
7165.27835,0.76483
7163.34961,0.76567
7161.42087,0.76978
7159.49213,0.77158
7157.56338,0.77023
7155.63464,0.76959
7153.70590,0.76853
7151.77716,0.76470
7149.84841,0.75964
7147.91967,0.75634
7145.99093,0.75750
7144.06219,0.76288
7142.13344,0.76696
7140.20470,0.76516
7138.27596,0.76059
7136.34722,0.75898
7134.41847,0.75905
7132.48973,0.75755
7130.56099,0.75631
7128.63225,0.75697
7126.70351,0.75833
7124.77476,0.75835
7122.84602,0.75686
7120.91728,0.75439
7118.98854,0.74960
7117.05979,0.74408
7115.13105,0.74168
7113.20231,0.74203
7111.27357,0.74152
7109.34482,0.73889
7107.41608,0.73597
7105.48734,0.73470
7103.55860,0.73532
7101.62985,0.73543
7099.70111,0.73538
7097.77237,0.73821
7095.84363,0.74104
7093.91488,0.73931
7091.98614,0.73370
7090.05740,0.72801
7088.12866,0.72501
7086.19991,0.72380
7084.27117,0.72262
7082.34243,0.72074
7080.41369,0.71803
7078.48494,0.71588
7076.55620,0.71560
7074.62746,0.71567
7072.69872,0.71394
7070.76997,0.71308
7068.84123,0.71589
7066.91249,0.71861
7064.98375,0.71774
7063.05500,0.71505
7061.12626,0.71213
7059.19752,0.70828
7057.26878,0.70301
7055.34003,0.69911
7053.41129,0.70062
7051.48255,0.70536
7049.55381,0.70759
7047.62506,0.70512
7045.69632,0.69911
7043.76758,0.69414
7041.83884,0.69269
7039.91009,0.69140
7037.98135,0.68903
7036.05261,0.68736
7034.12387,0.68636
7032.19512,0.68528
7030.26638,0.68356
7028.33764,0.68240
7026.40890,0.68313
7024.48015,0.68309
7022.55141,0.68173
7020.62267,0.68222
7018.69393,0.68225
7016.76518,0.67834
7014.83644,0.67360
7012.90770,0.67199
7010.97896,0.67376
7009.05021,0.67598
7007.12147,0.67556
7005.19273,0.67293
7003.26399,0.67076
7001.33524,0.67136
6999.40650,0.67360
6997.47776,0.67350
6995.54902,0.67126
6993.62027,0.67064
6991.69153,0.67177
6989.76279,0.67173
6987.83405,0.66904
6985.90530,0.66639
6983.97656,0.66674
6982.04782,0.66760
6980.11908,0.66535
6978.19033,0.66120
6976.26159,0.65864
6974.33285,0.65879
6972.40411,0.65980
6970.47536,0.65943
6968.54662,0.65749
6966.61788,0.65643
6964.68914,0.65639
6962.76039,0.65450
6960.83165,0.65332
6958.90291,0.65599
6956.97417,0.65706
6955.04542,0.65365
6953.11668,0.65093
6951.18794,0.64979
6949.25920,0.64747
6947.33045,0.64615
6945.40171,0.64897
6943.47297,0.65405
6941.54423,0.65552
6939.61548,0.65062
6937.68674,0.64445
6935.75800,0.64349
6933.82926,0.64742
6931.90051,0.65073
6929.97177,0.65004
6928.04303,0.64736
6926.11429,0.64638
6924.18554,0.64767
6922.25680,0.64832
6920.32806,0.64749
6918.39932,0.64817
6916.47057,0.65009
6914.54183,0.65084
6912.61309,0.65056
6910.68435,0.64841
6908.75560,0.64441
6906.82686,0.64115
6904.89812,0.63988
6902.96938,0.64069
6901.04063,0.64285
6899.11189,0.64431
6897.18315,0.64394
6895.25441,0.64350
6893.32566,0.64368
6891.39692,0.64195
6889.46818,0.63960
6887.53944,0.64080
6885.61069,0.64486
6883.68195,0.64666
6881.75321,0.64400
6879.82447,0.64089
6877.89572,0.64056
6875.96698,0.64194
6874.03824,0.64371
6872.10950,0.64487
6870.18075,0.64503
6868.25201,0.64466
6866.32327,0.64486
6864.39453,0.64677
6862.46578,0.64774
6860.53704,0.64534
6858.60830,0.64251
6856.67956,0.64060
6854.75081,0.63872
6852.82207,0.63819
6850.89333,0.63802
6848.96459,0.63645
6847.03584,0.63598
6845.10710,0.63735
6843.17836,0.63753
6841.24962,0.63697
6839.32087,0.63930
6837.39213,0.64406
6835.46339,0.64656
6833.53465,0.64518
6831.60590,0.64257
6829.67716,0.64001
6827.74842,0.63819
6825.81968,0.63870
6823.89093,0.64049
6821.96219,0.64085
6820.03345,0.63875
6818.10471,0.63602
6816.17596,0.63557
6814.24722,0.63638
6812.31848,0.63506
6810.38974,0.63300
6808.46099,0.63334
6806.53225,0.63412
6804.60351,0.63366
6802.67477,0.63433
6800.74602,0.63589
6798.81728,0.63572
6796.88854,0.63504
6794.95980,0.63653
6793.03105,0.63949
6791.10231,0.64145
6789.17357,0.64133
6787.24483,0.63916
6785.31608,0.63627
6783.38734,0.63492
6781.45860,0.63419
6779.52986,0.63256
6777.60111,0.63192
6775.67237,0.63203
6773.74363,0.63029
6771.81489,0.62790
6769.88614,0.62724
6767.95740,0.62748
6766.02866,0.62808
6764.09992,0.62939
6762.17117,0.63061
6760.24243,0.63220
6758.31369,0.63325
6756.38495,0.63198
6754.45620,0.62977
6752.52746,0.62723
6750.59872,0.62469
6748.66998,0.62378
6746.74123,0.62507
6744.81249,0.62794
6742.88375,0.63042
6740.95501,0.63118
6739.02626,0.63070
6737.09752,0.62936
6735.16878,0.62758
6733.24004,0.62565
6731.31129,0.62375
6729.38255,0.62302
6727.45381,0.62395
6725.52507,0.62537
6723.59632,0.62742
6721.66758,0.63047
6719.73884,0.63196
6717.81010,0.63000
6715.88135,0.62634
6713.95261,0.62286
6712.02387,0.62079
6710.09513,0.62196
6708.16638,0.62528
6706.23764,0.62665
6704.30890,0.62513
6702.38016,0.62407
6700.45141,0.62573
6698.52267,0.62864
6696.59393,0.62971
6694.66519,0.62830
6692.73644,0.62680
6690.80770,0.62565
6688.87896,0.62408
6686.95022,0.62489
6685.02147,0.62900
6683.09273,0.63110
6681.16399,0.62853
6679.23525,0.62581
6677.30650,0.62645
6675.37776,0.62807
6673.44902,0.62801
6671.52028,0.62722
6669.59153,0.62625
6667.66279,0.62556
6665.73405,0.62731
6663.80531,0.63091
6661.87656,0.63277
6659.94782,0.63107
6658.01908,0.62764
6656.09034,0.62610
6654.16159,0.62699
6652.23285,0.62828
6650.30411,0.62952
6648.37537,0.63016
6646.44662,0.62945
6644.51788,0.62878
6642.58914,0.62952
6640.66040,0.63140
6638.73165,0.63272
6636.80291,0.63233
6634.87417,0.63286
6632.94543,0.63482
6631.01668,0.63360
6629.08794,0.62946
6627.15920,0.62807
6625.23046,0.63015
6623.30171,0.63201
6621.37297,0.63325
6619.44423,0.63493
6617.51549,0.63541
6615.58674,0.63456
6613.65800,0.63474
6611.72926,0.63692
6609.80052,0.63976
6607.87177,0.64113
6605.94303,0.64106
6604.01429,0.64073
6602.08555,0.63957
6600.15680,0.63750
6598.22806,0.63604
6596.29932,0.63614
6594.37058,0.63761
6592.44183,0.63933
6590.51309,0.64090
6588.58435,0.64264
6586.65561,0.64330
6584.72686,0.64333
6582.79812,0.64441
6580.86938,0.64454
6578.94064,0.64300
6577.01190,0.64304
6575.08315,0.64498
6573.15441,0.64578
6571.22567,0.64535
6569.29693,0.64627
6567.36818,0.64796
6565.43944,0.64787
6563.51070,0.64710
6561.58196,0.64838
6559.65321,0.65083
6557.72447,0.65181
6555.79573,0.65167
6553.86699,0.65227
6551.93824,0.65229
6550.00950,0.64892
6548.08076,0.64377
6546.15202,0.64153
6544.22327,0.64373
6542.29453,0.64747
6540.36579,0.64962
6538.43705,0.64988
6536.50830,0.64988
6534.57956,0.65183
6532.65082,0.65488
6530.72208,0.65554
6528.79333,0.65325
6526.86459,0.65057
6524.93585,0.65019
6523.00711,0.65235
6521.07836,0.65498
6519.14962,0.65660
6517.22088,0.65656
6515.29214,0.65562
6513.36339,0.65491
6511.43465,0.65413
6509.50591,0.65328
6507.57717,0.65260
6505.64842,0.65243
6503.71968,0.65367
6501.79094,0.65541
6499.86220,0.65598
6497.93345,0.65603
6496.00471,0.65642
6494.07597,0.65665
6492.14723,0.65682
6490.21848,0.65677
6488.28974,0.65519
6486.36100,0.65327
6484.43226,0.65364
6482.50351,0.65597
6480.57477,0.65805
6478.64603,0.65932
6476.71729,0.65929
6474.78854,0.65607
6472.85980,0.65222
6470.93106,0.65252
6469.00232,0.65502
6467.07357,0.65580
6465.14483,0.65550
6463.21609,0.65559
6461.28735,0.65548
6459.35860,0.65444
6457.42986,0.65358
6455.50112,0.65478
6453.57238,0.65763
6451.64363,0.66015
6449.71489,0.66192
6447.78615,0.66291
6445.85741,0.66295
6443.92866,0.66198
6441.99992,0.65999
6440.07118,0.65819
6438.14244,0.65697
6436.21369,0.65639
6434.28495,0.65758
6432.35621,0.65938
6430.42747,0.66029
6428.49872,0.66047
6426.56998,0.65936
6424.64124,0.65699
6422.71250,0.65595
6420.78375,0.65875
6418.85501,0.66340
6416.92627,0.66535
6414.99753,0.66398
6413.06878,0.66190
6411.14004,0.66013
6409.21130,0.65957
6407.28256,0.66170
6405.35381,0.66488
6403.42507,0.66568
6401.49633,0.66364
6399.56759,0.66185
6397.63884,0.66259
6395.71010,0.66449
6393.78136,0.66545
6391.85262,0.66477
6389.92387,0.66308
6387.99513,0.66246
6386.06639,0.66338
6384.13765,0.66422
6382.20890,0.66487
6380.28016,0.66505
6378.35142,0.66389
6376.42268,0.66325
6374.49393,0.66466
6372.56519,0.66672
6370.63645,0.66778
6368.70771,0.66710
6366.77896,0.66518
6364.85022,0.66364
6362.92148,0.66417
6360.99274,0.66660
6359.06399,0.66761
6357.13525,0.66545
6355.20651,0.66341
6353.27777,0.66397
6351.34902,0.66559
6349.42028,0.66686
6347.49154,0.66793
6345.56280,0.66825
6343.63405,0.66723
6341.70531,0.66659
6339.77657,0.66785
6337.84783,0.66917
6335.91908,0.66832
6333.99034,0.66670
6332.06160,0.66685
6330.13286,0.66861
6328.20411,0.67094
6326.27537,0.67307
6324.34663,0.67386
6322.41789,0.67309
6320.48914,0.67177
6318.56040,0.67090
6316.63166,0.67093
6314.70292,0.67220
6312.77417,0.67374
6310.84543,0.67400
6308.91669,0.67369
6306.98795,0.67365
6305.05920,0.67352
6303.13046,0.67296
6301.20172,0.67219
6299.27298,0.67220
6297.34423,0.67341
6295.41549,0.67510
6293.48675,0.67556
6291.55801,0.67410
6289.62926,0.67272
6287.70052,0.67275
6285.77178,0.67374
6283.84304,0.67607
6281.91429,0.67899
6279.98555,0.67970
6278.05681,0.67795
6276.12807,0.67589
6274.19932,0.67552
6272.27058,0.67770
6270.34184,0.67967
6268.41310,0.67900
6266.48435,0.67771
6264.55561,0.67788
6262.62687,0.67897
6260.69813,0.67959
6258.76938,0.67977
6256.84064,0.68094
6254.91190,0.68248
6252.98316,0.68243
6251.05441,0.68196
6249.12567,0.68293
6247.19693,0.68447
6245.26819,0.68507
6243.33944,0.68375
6241.41070,0.68161
6239.48196,0.68164
6237.55322,0.68402
6235.62447,0.68621
6233.69573,0.68729
6231.76699,0.68806
6229.83825,0.68820
6227.90950,0.68779
6225.98076,0.68846
6224.05202,0.68994
6222.12328,0.69095
6220.19453,0.69170
6218.26579,0.69269
6216.33705,0.69380
6214.40831,0.69462
6212.47956,0.69481
6210.55082,0.69458
6208.62208,0.69425
6206.69334,0.69376
6204.76459,0.69387
6202.83585,0.69487
6200.90711,0.69538
6198.97837,0.69571
6197.04962,0.69712
6195.12088,0.69850
6193.19214,0.69894
6191.26340,0.69882
6189.33465,0.69856
6187.40591,0.69908
6185.47717,0.70084
6183.54843,0.70304
6181.61968,0.70382
6179.69094,0.70217
6177.76220,0.70002
6175.83346,0.69906
6173.90471,0.69891
6171.97597,0.69972
6170.04723,0.70210
6168.11849,0.70491
6166.18974,0.70649
6164.26100,0.70686
6162.33226,0.70719
6160.40352,0.70823
6158.47477,0.70936
6156.54603,0.70952
6154.61729,0.70847
6152.68855,0.70727
6150.75980,0.70747
6148.83106,0.70882
6146.90232,0.70980
6144.97358,0.70972
6143.04483,0.70860
6141.11609,0.70747
6139.18735,0.70765
6137.25861,0.70797
6135.32986,0.70702
6133.40112,0.70651
6131.47238,0.70751
6129.54364,0.70849
6127.61489,0.70876
6125.68615,0.70917
6123.75741,0.70999
6121.82867,0.71058
6119.89992,0.71075
6117.97118,0.71068
6116.04244,0.71044
6114.11370,0.71068
6112.18495,0.71144
6110.25621,0.71166
6108.32747,0.71182
6106.39873,0.71345
6104.46998,0.71515
6102.54124,0.71491
6100.61250,0.71379
6098.68376,0.71310
6096.75501,0.71301
6094.82627,0.71294
6092.89753,0.71186
6090.96879,0.71032
6089.04004,0.70926
6087.11130,0.70871
6085.18256,0.70871
6083.25382,0.70885
6081.32507,0.70854
6079.39633,0.70831
6077.46759,0.70887
6075.53885,0.71008
6073.61010,0.71157
6071.68136,0.71239
6069.75262,0.71126
6067.82388,0.70833
6065.89513,0.70557
6063.96639,0.70519
6062.03765,0.70689
6060.10891,0.70839
6058.18016,0.70867
6056.25142,0.70737
6054.32268,0.70475
6052.39394,0.70288
6050.46519,0.70266
6048.53645,0.70337
6046.60771,0.70481
6044.67897,0.70640
6042.75022,0.70648
6040.82148,0.70410
6038.89274,0.70138
6036.96400,0.70121
6035.03525,0.70236
6033.10651,0.70204
6031.17777,0.70068
6029.24903,0.69992
6027.32029,0.69977
6025.39154,0.69983
6023.46280,0.70010
6021.53406,0.69995
6019.60532,0.69928
6017.67657,0.69912
6015.74783,0.69903
6013.81909,0.69815
6011.89035,0.69726
6009.96160,0.69621
6008.03286,0.69487
6006.10412,0.69493
6004.17538,0.69672
6002.24663,0.69811
6000.31789,0.69752
5998.38915,0.69603
5996.46041,0.69496
5994.53166,0.69434
5992.60292,0.69403
5990.67418,0.69334
5988.74544,0.69191
5986.81669,0.69073
5984.88795,0.69038
5982.95921,0.69122
5981.03047,0.69313
5979.10172,0.69429
5977.17298,0.69350
5975.24424,0.69196
5973.31550,0.69094
5971.38675,0.69007
5969.45801,0.68885
5967.52927,0.68871
5965.60053,0.69027
5963.67178,0.69201
5961.74304,0.69283
5959.81430,0.69217
5957.88556,0.69054
5955.95681,0.68997
5954.02807,0.69085
5952.09933,0.69128
5950.17059,0.69057
5948.24184,0.69005
5946.31310,0.68976
5944.38436,0.68895
5942.45562,0.68881
5940.52687,0.69026
5938.59813,0.69160
5936.66939,0.69063
5934.74065,0.68861
5932.81190,0.68896
5930.88316,0.69114
5928.95442,0.69142
5927.02568,0.68942
5925.09693,0.68801
5923.16819,0.68873
5921.23945,0.69002
5919.31071,0.68964
5917.38196,0.68866
5915.45322,0.68884
5913.52448,0.68912
5911.59574,0.68845
5909.66699,0.68767
5907.73825,0.68781
5905.80951,0.68813
5903.88077,0.68722
5901.95202,0.68566
5900.02328,0.68453
5898.09454,0.68397
5896.16580,0.68409
5894.23705,0.68456
5892.30831,0.68482
5890.37957,0.68524
5888.45083,0.68544
5886.52208,0.68424
5884.59334,0.68285
5882.66460,0.68254
5880.73586,0.68233
5878.80711,0.68148
5876.87837,0.68069
5874.94963,0.68082
5873.02089,0.68140
5871.09214,0.68153
5869.16340,0.68124
5867.23466,0.68098
5865.30592,0.68112
5863.37717,0.68130
5861.44843,0.68155
5859.51969,0.68228
5857.59095,0.68240
5855.66220,0.68117
5853.73346,0.67983
5851.80472,0.67996
5849.87598,0.68119
5847.94723,0.68178
5846.01849,0.68146
5844.08975,0.68084
5842.16101,0.68026
5840.23226,0.68037
5838.30352,0.68106
5836.37478,0.68175
5834.44604,0.68268
5832.51729,0.68338
5830.58855,0.68237
5828.65981,0.68011
5826.73107,0.67912
5824.80232,0.67994
5822.87358,0.68024
5820.94484,0.67852
5819.01610,0.67654
5817.08735,0.67632
5815.15861,0.67698
5813.22987,0.67745
5811.30113,0.67807
5809.37238,0.67815
5807.44364,0.67721
5805.51490,0.67623
5803.58616,0.67550
5801.65741,0.67479
5799.72867,0.67398
5797.79993,0.67305
5795.87119,0.67281
5793.94244,0.67357
5792.01370,0.67436
5790.08496,0.67459
5788.15622,0.67439
5786.22747,0.67424
5784.29873,0.67431
5782.36999,0.67464
5780.44125,0.67569
5778.51250,0.67693
5776.58376,0.67753
5774.65502,0.67736
5772.72628,0.67637
5770.79753,0.67564
5768.86879,0.67672
5766.94005,0.67902
5765.01131,0.68018
5763.08256,0.67958
5761.15382,0.67906
5759.22508,0.67939
5757.29634,0.67983
5755.36759,0.68035
5753.43885,0.68106
5751.51011,0.68151
5749.58137,0.68148
5747.65262,0.68086
5745.72388,0.68001
5743.79514,0.67977
5741.86640,0.68037
5739.93765,0.68116
5738.00891,0.68130
5736.08017,0.68117
5734.15143,0.68126
5732.22268,0.68095
5730.29394,0.68076
5728.36520,0.68119
5726.43646,0.68097
5724.50771,0.67985
5722.57897,0.67917
5720.65023,0.67975
5718.72149,0.68142
5716.79274,0.68302
5714.86400,0.68342
5712.93526,0.68335
5711.00652,0.68389
5709.07777,0.68444
5707.14903,0.68414
5705.22029,0.68288
5703.29155,0.68117
5701.36280,0.68023
5699.43406,0.68078
5697.50532,0.68167
5695.57658,0.68163
5693.64783,0.68140
5691.71909,0.68141
5689.79035,0.68087
5687.86161,0.68061
5685.93286,0.68152
5684.00412,0.68236
5682.07538,0.68207
5680.14664,0.68135
5678.21789,0.68089
5676.28915,0.68061
5674.36041,0.68084
5672.43167,0.68164
5670.50292,0.68173
5668.57418,0.68068
5666.64544,0.68010
5664.71670,0.68084
5662.78795,0.68171
5660.85921,0.68172
5658.93047,0.68144
5657.00173,0.68193
5655.07298,0.68305
5653.14424,0.68333
5651.21550,0.68252
5649.28676,0.68178
5647.35801,0.68163
5645.42927,0.68231
5643.50053,0.68313
5641.57179,0.68260
5639.64304,0.68157
5637.71430,0.68140
5635.78556,0.68132
5633.85682,0.68167
5631.92807,0.68292
5629.99933,0.68321
5628.07059,0.68269
5626.14185,0.68286
5624.21310,0.68293
5622.28436,0.68291
5620.35562,0.68358
5618.42688,0.68419
5616.49813,0.68422
5614.56939,0.68406
5612.64065,0.68380
5610.71191,0.68328
5608.78316,0.68255
5606.85442,0.68182
5604.92568,0.68145
5602.99694,0.68149
5601.06819,0.68147
5599.13945,0.68128
5597.21071,0.68133
5595.28197,0.68205
5593.35322,0.68315
5591.42448,0.68343
5589.49574,0.68271
5587.56700,0.68204
5585.63825,0.68213
5583.70951,0.68282
5581.78077,0.68332
5579.85203,0.68340
5577.92328,0.68373
5575.99454,0.68437
5574.06580,0.68476
5572.13706,0.68426
5570.20831,0.68327
5568.27957,0.68336
5566.35083,0.68444
5564.42209,0.68499
5562.49334,0.68463
5560.56460,0.68454
5558.63586,0.68530
5556.70712,0.68587
5554.77837,0.68622
5552.84963,0.68694
5550.92089,0.68736
5548.99215,0.68733
5547.06340,0.68743
5545.13466,0.68768
5543.20592,0.68776
5541.27718,0.68748
5539.34843,0.68721
5537.41969,0.68769
5535.49095,0.68864
5533.56221,0.68881
5531.63346,0.68815
5529.70472,0.68773
5527.77598,0.68817
5525.84724,0.68927
5523.91849,0.69053
5521.98975,0.69077
5520.06101,0.68920
5518.13227,0.68730
5516.20352,0.68690
5514.27478,0.68768
5512.34604,0.68824
5510.41730,0.68820
5508.48855,0.68858
5506.55981,0.68938
5504.63107,0.68881
5502.70233,0.68718
5500.77358,0.68680
5498.84484,0.68769
5496.91610,0.68835
5494.98736,0.68848
5493.05861,0.68853
5491.12987,0.68877
5489.20113,0.68884
5487.27239,0.68851
5485.34365,0.68813
5483.41490,0.68763
5481.48616,0.68718
5479.55742,0.68743
5477.62868,0.68840
5475.69993,0.68972
5473.77119,0.69098
5471.84245,0.69197
5469.91371,0.69248
5467.98496,0.69197
5466.05622,0.69094
5464.12748,0.69022
5462.19874,0.68954
5460.26999,0.68932
5458.34125,0.69057
5456.41251,0.69236
5454.48377,0.69269
5452.55502,0.69179
5450.62628,0.69161
5448.69754,0.69282
5446.76880,0.69422
5444.84005,0.69473
5442.91131,0.69498
5440.98257,0.69539
5439.05383,0.69530
5437.12508,0.69500
5435.19634,0.69501
5433.26760,0.69512
5431.33886,0.69530
5429.41011,0.69582
5427.48137,0.69638
5425.55263,0.69648
5423.62389,0.69647
5421.69514,0.69689
5419.76640,0.69784
5417.83766,0.69856
5415.90892,0.69790
5413.98017,0.69686
5412.05143,0.69740
5410.12269,0.69877
5408.19395,0.69895
5406.26520,0.69797
5404.33646,0.69766
5402.40772,0.69880
5400.47898,0.70044
5398.55023,0.70145
5396.62149,0.70115
5394.69275,0.69992
5392.76401,0.69938
5390.83526,0.70018
5388.90652,0.70121
5386.97778,0.70137
5385.04904,0.70072
5383.12029,0.70009
5381.19155,0.69999
5379.26281,0.69992
5377.33407,0.69934
5375.40532,0.69871
5373.47658,0.69890
5371.54784,0.70021
5369.61910,0.70165
5367.69035,0.70137
5365.76161,0.69985
5363.83287,0.69904
5361.90413,0.69876
5359.97538,0.69835
5358.04664,0.69827
5356.11790,0.69859
5354.18916,0.69923
5352.26041,0.69979
5350.33167,0.69964
5348.40293,0.69916
5346.47419,0.69906
5344.54544,0.69902
5342.61670,0.69860
5340.68796,0.69833
5338.75922,0.69822
5336.83047,0.69761
5334.90173,0.69681
5332.97299,0.69628
5331.04425,0.69516
5329.11550,0.69313
5327.18676,0.69159
5325.25802,0.69138
5323.32928,0.69178
5321.40053,0.69220
5319.47179,0.69211
5317.54305,0.69087
5315.61431,0.68898
5313.68556,0.68715
5311.75682,0.68537
5309.82808,0.68372
5307.89934,0.68199
5305.97059,0.68009
5304.04185,0.67856
5302.11311,0.67740
5300.18437,0.67621
5298.25562,0.67472
5296.32688,0.67277
5294.39814,0.67093
5292.46940,0.66949
5290.54065,0.66772
5288.61191,0.66538
5286.68317,0.66290
5284.75443,0.66095
5282.82568,0.65933
5280.89694,0.65677
5278.96820,0.65345
5277.03946,0.65014
5275.11071,0.64631
5273.18197,0.64212
5271.25323,0.63864
5269.32449,0.63603
5267.39574,0.63370
5265.46700,0.63134
5263.53826,0.62860
5261.60952,0.62517
5259.68077,0.62198
5257.75203,0.61974
5255.82329,0.61734
5253.89455,0.61392
5251.96580,0.61039
5250.03706,0.60750
5248.10832,0.60507
5246.17958,0.60290
5244.25083,0.60102
5242.32209,0.59947
5240.39335,0.59794
5238.46461,0.59592
5236.53586,0.59333
5234.60712,0.59102
5232.67838,0.58951
5230.74964,0.58815
5228.82089,0.58634
5226.89215,0.58404
5224.96341,0.58171
5223.03467,0.58014
5221.10592,0.57986
5219.17718,0.58032
5217.24844,0.58004
5215.31970,0.57869
5213.39095,0.57733
5211.46221,0.57626
5209.53347,0.57506
5207.60473,0.57392
5205.67598,0.57326
5203.74724,0.57316
5201.81850,0.57317
5199.88976,0.57251
5197.96101,0.57153
5196.03227,0.57124
5194.10353,0.57173
5192.17479,0.57228
5190.24604,0.57251
5188.31730,0.57275
5186.38856,0.57280
5184.45982,0.57230
5182.53107,0.57183
5180.60233,0.57182
5178.67359,0.57185
5176.74485,0.57120
5174.81610,0.57013
5172.88736,0.57025
5170.95862,0.57209
5169.02988,0.57387
5167.10113,0.57407
5165.17239,0.57340
5163.24365,0.57336
5161.31491,0.57405
5159.38616,0.57428
5157.45742,0.57400
5155.52868,0.57429
5153.59994,0.57519
5151.67119,0.57609
5149.74245,0.57667
5147.81371,0.57689
5145.88497,0.57711
5143.95622,0.57737
5142.02748,0.57733
5140.09874,0.57745
5138.17000,0.57803
5136.24125,0.57854
5134.31251,0.57861
5132.38377,0.57841
5130.45503,0.57813
5128.52628,0.57778
5126.59754,0.57786
5124.66880,0.57861
5122.74006,0.57888
5120.81131,0.57805
5118.88257,0.57681
5116.95383,0.57572
5115.02509,0.57476
5113.09634,0.57385
5111.16760,0.57338
5109.23886,0.57336
5107.31012,0.57284
5105.38137,0.57172
5103.45263,0.57068
5101.52389,0.56930
5099.59515,0.56739
5097.66640,0.56639
5095.73766,0.56665
5093.80892,0.56632
5091.88018,0.56511
5089.95143,0.56434
5088.02269,0.56367
5086.09395,0.56257
5084.16521,0.56185
5082.23646,0.56171
5080.30772,0.56161
5078.37898,0.56122
5076.45024,0.56095
5074.52149,0.56142
5072.59275,0.56234
5070.66401,0.56274
5068.73527,0.56238
5066.80652,0.56234
5064.87778,0.56319
5062.94904,0.56412
5061.02030,0.56438
5059.09155,0.56421
5057.16281,0.56467
5055.23407,0.56606
5053.30533,0.56740
5051.37658,0.56840
5049.44784,0.56950
5047.51910,0.57045
5045.59036,0.57114
5043.66161,0.57196
5041.73287,0.57273
5039.80413,0.57317
5037.87539,0.57391
5035.94664,0.57509
5034.01790,0.57580
5032.08916,0.57591
5030.16042,0.57635
5028.23167,0.57754
5026.30293,0.57903
5024.37419,0.58001
5022.44545,0.58018
5020.51670,0.58054
5018.58796,0.58189
5016.65922,0.58339
5014.73048,0.58390
5012.80173,0.58373
5010.87299,0.58379
5008.94425,0.58405
5007.01551,0.58413
5005.08676,0.58420
5003.15802,0.58469
5001.22928,0.58578
4999.30054,0.58677
4997.37179,0.58687
4995.44305,0.58644
4993.51431,0.58598
4991.58557,0.58540
4989.65682,0.58503
4987.72808,0.58546
4985.79934,0.58648
4983.87060,0.58734
4981.94185,0.58752
4980.01311,0.58665
4978.08437,0.58529
4976.15563,0.58460
4974.22688,0.58452
4972.29814,0.58404
4970.36940,0.58281
4968.44066,0.58132
4966.51191,0.57998
4964.58317,0.57911
4962.65443,0.57879
4960.72569,0.57804
4958.79694,0.57614
4956.86820,0.57427
4954.93946,0.57339
4953.01072,0.57273
4951.08197,0.57149
4949.15323,0.56980
4947.22449,0.56828
4945.29575,0.56711
4943.36700,0.56572
4941.43826,0.56406
4939.50952,0.56250
4937.58078,0.56112
4935.65204,0.55997
4933.72329,0.55891
4931.79455,0.55777
4929.86581,0.55688
4927.93707,0.55629
4926.00832,0.55520
4924.07958,0.55335
4922.15084,0.55162
4920.22210,0.55075
4918.29335,0.55046
4916.36461,0.54986
4914.43587,0.54872
4912.50713,0.54766
4910.57838,0.54692
4908.64964,0.54583
4906.72090,0.54416
4904.79216,0.54277
4902.86341,0.54219
4900.93467,0.54172
4899.00593,0.54082
4897.07719,0.53971
4895.14844,0.53838
4893.21970,0.53688
4891.29096,0.53581
4889.36222,0.53526
4887.43347,0.53472
4885.50473,0.53389
4883.57599,0.53267
4881.64725,0.53133
4879.71850,0.53023
4877.78976,0.52934
4875.86102,0.52844
4873.93228,0.52732
4872.00353,0.52621
4870.07479,0.52529
4868.14605,0.52412
4866.21731,0.52297
4864.28856,0.52227
4862.35982,0.52125
4860.43108,0.51982
4858.50234,0.51892
4856.57359,0.51842
4854.64485,0.51740
4852.71611,0.51605
4850.78737,0.51516
4848.85862,0.51442
4846.92988,0.51304
4845.00114,0.51132
4843.07240,0.51020
4841.14365,0.50983
4839.21491,0.50930
4837.28617,0.50817
4835.35743,0.50713
4833.42868,0.50648
4831.49994,0.50541
4829.57120,0.50357
4827.64246,0.50231
4825.71371,0.50228
4823.78497,0.50200
4821.85623,0.50057
4819.92749,0.49917
4817.99874,0.49857
4816.07000,0.49804
4814.14126,0.49722
4812.21252,0.49674
4810.28377,0.49660
4808.35503,0.49618
4806.42629,0.49577
4804.49755,0.49572
4802.56880,0.49541
4800.64006,0.49449
4798.71132,0.49344
4796.78258,0.49275
4794.85383,0.49264
4792.92509,0.49269
4790.99635,0.49256
4789.06761,0.49254
4787.13886,0.49254
4785.21012,0.49211
4783.28138,0.49165
4781.35264,0.49180
4779.42389,0.49213
4777.49515,0.49210
4775.56641,0.49187
4773.63767,0.49126
4771.70892,0.49045
4769.78018,0.49042
4767.85144,0.49104
4765.92270,0.49104
4763.99395,0.49017
4762.06521,0.48931
4760.13647,0.48880
4758.20773,0.48864
4756.27898,0.48899
4754.35024,0.48939
4752.42150,0.48914
4750.49276,0.48857
4748.56401,0.48858
4746.63527,0.48900
4744.70653,0.48925
4742.77779,0.48934
4740.84904,0.48915
4738.92030,0.48877
4736.99156,0.48888
4735.06282,0.48926
4733.13407,0.48918
4731.20533,0.48872
4729.27659,0.48847
4727.34785,0.48871
4725.41910,0.48914
4723.49036,0.48938
4721.56162,0.48953
4719.63288,0.48978
4717.70413,0.48999
4715.77539,0.48997
4713.84665,0.48978
4711.91791,0.48964
4709.98916,0.48965
4708.06042,0.48948
4706.13168,0.48878
4704.20294,0.48823
4702.27419,0.48852
4700.34545,0.48896
4698.41671,0.48892
4696.48797,0.48891
4694.55922,0.48903
4692.63048,0.48877
4690.70174,0.48845
4688.77300,0.48852
4686.84425,0.48866
4684.91551,0.48884
4682.98677,0.48905
4681.05803,0.48906
4679.12928,0.48913
4677.20054,0.48956
4675.27180,0.49011
4673.34306,0.49026
4671.41431,0.49005
4669.48557,0.49008
4667.55683,0.49044
4665.62809,0.49079
4663.69934,0.49109
4661.77060,0.49156
4659.84186,0.49210
4657.91312,0.49233
4655.98437,0.49240
4654.05563,0.49273
4652.12689,0.49325
4650.19815,0.49383
4648.26940,0.49444
4646.34066,0.49467
4644.41192,0.49450
4642.48318,0.49438
4640.55443,0.49455
4638.62569,0.49489
4636.69695,0.49508
4634.76821,0.49539
4632.83946,0.49601
4630.91072,0.49665
4628.98198,0.49742
4627.05324,0.49834
4625.12449,0.49892
4623.19575,0.49904
4621.26701,0.49921
4619.33827,0.49981
4617.40952,0.50077
4615.48078,0.50201
4613.55204,0.50301
4611.62330,0.50347
4609.69455,0.50401
4607.76581,0.50484
4605.83707,0.50556
4603.90833,0.50603
4601.97958,0.50639
4600.05084,0.50685
4598.12210,0.50760
4596.19336,0.50859
4594.26461,0.50948
4592.33587,0.50990
4590.40713,0.50999
4588.47839,0.51031
4586.54964,0.51107
4584.62090,0.51192
4582.69216,0.51257
4580.76342,0.51292
4578.83467,0.51305
4576.90593,0.51318
4574.97719,0.51329
4573.04845,0.51336
4571.11970,0.51353
4569.19096,0.51370
4567.26222,0.51377
4565.33348,0.51408
4563.40473,0.51456
4561.47599,0.51473
4559.54725,0.51480
4557.61851,0.51498
4555.68976,0.51500
4553.76102,0.51509
4551.83228,0.51557
4549.90354,0.51590
4547.97479,0.51575
4546.04605,0.51574
4544.11731,0.51610
4542.18857,0.51642
4540.25982,0.51658
4538.33108,0.51678
4536.40234,0.51700
4534.47360,0.51699
4532.54485,0.51675
4530.61611,0.51656
4528.68737,0.51675
4526.75863,0.51724
4524.82988,0.51765
4522.90114,0.51802
4520.97240,0.51847
4519.04366,0.51883
4517.11491,0.51895
4515.18617,0.51899
4513.25743,0.51925
4511.32869,0.51971
4509.39994,0.52001
4507.47120,0.51981
4505.54246,0.51910
4503.61372,0.51828
4501.68497,0.51770
4499.75623,0.51743
4497.82749,0.51741
4495.89875,0.51732
4493.97000,0.51674
4492.04126,0.51579
4490.11252,0.51493
4488.18378,0.51428
4486.25503,0.51360
4484.32629,0.51255
4482.39755,0.51098
4480.46881,0.50925
4478.54006,0.50780
4476.61132,0.50656
4474.68258,0.50500
4472.75384,0.50304
4470.82509,0.50124
4468.89635,0.49959
4466.96761,0.49754
4465.03887,0.49524
4463.11012,0.49317
4461.18138,0.49137
4459.25264,0.48948
4457.32390,0.48711
4455.39515,0.48455
4453.46641,0.48237
4451.53767,0.48057
4449.60893,0.47877
4447.68018,0.47686
4445.75144,0.47484
4443.82270,0.47259
4441.89396,0.47010
4439.96521,0.46771
4438.03647,0.46561
4436.10773,0.46342
4434.17899,0.46091
4432.25024,0.45845
4430.32150,0.45621
4428.39276,0.45405
4426.46402,0.45215
4424.53527,0.45037
4422.60653,0.44839
4420.67779,0.44639
4418.74905,0.44433
4416.82030,0.44224
4414.89156,0.44055
4412.96282,0.43916
4411.03408,0.43787
4409.10533,0.43677
4407.17659,0.43582
4405.24785,0.43512
4403.31911,0.43458
4401.39036,0.43393
4399.46162,0.43337
4397.53288,0.43327
4395.60414,0.43362
4393.67539,0.43436
4391.74665,0.43537
4389.81791,0.43602
4387.88917,0.43616
4385.96043,0.43639
4384.03168,0.43686
4382.10294,0.43733
4380.17420,0.43812
4378.24546,0.43946
4376.31671,0.44082
4374.38797,0.44190
4372.45923,0.44293
4370.53049,0.44410
4368.60174,0.44543
4366.67300,0.44674
4364.74426,0.44783
4362.81552,0.44858
4360.88677,0.44919
4358.95803,0.45000
4357.02929,0.45094
4355.10055,0.45146
4353.17180,0.45146
4351.24306,0.45156
4349.31432,0.45189
4347.38558,0.45192
4345.45683,0.45167
4343.52809,0.45163
4341.59935,0.45175
4339.67061,0.45168
4337.74186,0.45133
4335.81312,0.45066
4333.88438,0.44978
4331.95564,0.44892
4330.02689,0.44834
4328.09815,0.44804
4326.16941,0.44774
4324.24067,0.44730
4322.31192,0.44679
4320.38318,0.44633
4318.45444,0.44585
4316.52570,0.44523
4314.59695,0.44443
4312.66821,0.44349
4310.73947,0.44273
4308.81073,0.44249
4306.88198,0.44241
4304.95324,0.44217
4303.02450,0.44181
4301.09576,0.44126
4299.16701,0.44057
4297.23827,0.43985
4295.30953,0.43904
4293.38079,0.43821
4291.45204,0.43729
4289.52330,0.43645
4287.59456,0.43630
4285.66582,0.43650
4283.73707,0.43618
4281.80833,0.43568
4279.87959,0.43577
4277.95085,0.43593
4276.02210,0.43561
4274.09336,0.43537
4272.16462,0.43556
4270.23588,0.43602
4268.30713,0.43657
4266.37839,0.43710
4264.44965,0.43768
4262.52091,0.43853
4260.59216,0.43943
4258.66342,0.43974
4256.73468,0.43967
4254.80594,0.44000
4252.87719,0.44066
4250.94845,0.44094
4249.01971,0.44106
4247.09097,0.44158
4245.16222,0.44222
4243.23348,0.44253
4241.30474,0.44270
4239.37600,0.44283
4237.44725,0.44290
4235.51851,0.44319
4233.58977,0.44368
4231.66103,0.44369
4229.73228,0.44339
4227.80354,0.44359
4225.87480,0.44409
4223.94606,0.44440
4222.01731,0.44448
4220.08857,0.44443
4218.15983,0.44434
4216.23109,0.44414
4214.30234,0.44391
4212.37360,0.44381
4210.44486,0.44376
4208.51612,0.44380
4206.58737,0.44418
4204.65863,0.44466
4202.72989,0.44457
4200.80115,0.44404
4198.87240,0.44385
4196.94366,0.44421
4195.01492,0.44482
4193.08618,0.44516
4191.15743,0.44501
4189.22869,0.44493
4187.29995,0.44507
4185.37121,0.44518
4183.44246,0.44550
4181.51372,0.44614
4179.58498,0.44681
4177.65624,0.44750
4175.72749,0.44821
4173.79875,0.44875
4171.87001,0.44920
4169.94127,0.44984
4168.01252,0.45061
4166.08378,0.45127
4164.15504,0.45173
4162.22630,0.45208
4160.29755,0.45220
4158.36881,0.45198
4156.44007,0.45162
4154.51133,0.45138
4152.58258,0.45120
4150.65384,0.45077
4148.72510,0.45021
4146.79636,0.44976
4144.86761,0.44957
4142.93887,0.44942
4141.01013,0.44877
4139.08139,0.44758
4137.15264,0.44632
4135.22390,0.44530
4133.29516,0.44446
4131.36642,0.44340
4129.43767,0.44206
4127.50893,0.44087
4125.58019,0.43977
4123.65145,0.43849
4121.72270,0.43714
4119.79396,0.43591
4117.86522,0.43483
4115.93648,0.43376
4114.00773,0.43241
4112.07899,0.43090
4110.15025,0.42943
4108.22151,0.42791
4106.29276,0.42636
4104.36402,0.42479
4102.43528,0.42307
4100.50654,0.42122
4098.57779,0.41945
4096.64905,0.41799
4094.72031,0.41677
4092.79157,0.41552
4090.86282,0.41399
4088.93408,0.41218
4087.00534,0.41023
4085.07660,0.40831
4083.14785,0.40642
4081.21911,0.40462
4079.29037,0.40292
4077.36163,0.40128
4075.43288,0.39956
4073.50414,0.39772
4071.57540,0.39585
4069.64666,0.39414
4067.71791,0.39252
4065.78917,0.39086
4063.86043,0.38908
4061.93169,0.38700
4060.00294,0.38467
4058.07420,0.38245
4056.14546,0.38055
4054.21672,0.37887
4052.28797,0.37713
4050.35923,0.37534
4048.43049,0.37376
4046.50175,0.37236
4044.57300,0.37085
4042.64426,0.36925
4040.71552,0.36785
4038.78678,0.36667
4036.85803,0.36544
4034.92929,0.36403
4033.00055,0.36266
4031.07181,0.36149
4029.14306,0.36041
4027.21432,0.35949
4025.28558,0.35869
4023.35684,0.35795
4021.42809,0.35749
4019.49935,0.35705
4017.57061,0.35635
4015.64187,0.35583
4013.71312,0.35577
4011.78438,0.35581
4009.85564,0.35580
4007.92690,0.35580
4005.99815,0.35598
4004.06941,0.35631
4002.14067,0.35662
4000.21193,0.35693
3998.28318,0.35733
3996.35444,0.35792
3994.42570,0.35883
3992.49696,0.35973
3990.56821,0.36028
3988.63947,0.36067
3986.71073,0.36118
3984.78199,0.36185
3982.85324,0.36253
3980.92450,0.36305
3978.99576,0.36348
3977.06702,0.36414
3975.13827,0.36516
3973.20953,0.36627
3971.28079,0.36703
3969.35205,0.36743
3967.42330,0.36790
3965.49456,0.36889
3963.56582,0.37012
3961.63708,0.37099
3959.70833,0.37165
3957.77959,0.37251
3955.85085,0.37351
3953.92211,0.37453
3951.99336,0.37540
3950.06462,0.37597
3948.13588,0.37645
3946.20714,0.37736
3944.27839,0.37874
3942.34965,0.38013
3940.42091,0.38122
3938.49217,0.38203
3936.56342,0.38258
3934.63468,0.38296
3932.70594,0.38359
3930.77720,0.38462
3928.84845,0.38579
3926.91971,0.38695
3924.99097,0.38800
3923.06223,0.38896
3921.13348,0.38982
3919.20474,0.39054
3917.27600,0.39115
3915.34726,0.39164
3913.41851,0.39206
3911.48977,0.39268
3909.56103,0.39377
3907.63229,0.39508
3905.70354,0.39609
3903.77480,0.39660
3901.84606,0.39709
3899.91732,0.39803
3897.98857,0.39906
3896.05983,0.39970
3894.13109,0.40021
3892.20235,0.40112
3890.27360,0.40221
3888.34486,0.40289
3886.41612,0.40332
3884.48738,0.40394
3882.55863,0.40454
3880.62989,0.40491
3878.70115,0.40550
3876.77241,0.40646
3874.84366,0.40748
3872.91492,0.40848
3870.98618,0.40938
3869.05744,0.41018
3867.12869,0.41107
3865.19995,0.41219
3863.27121,0.41338
3861.34247,0.41449
3859.41372,0.41566
3857.48498,0.41672
3855.55624,0.41755
3853.62750,0.41858
3851.69875,0.42002
3849.77001,0.42141
3847.84127,0.42277
3845.91253,0.42411
3843.98378,0.42502
3842.05504,0.42556
3840.12630,0.42628
3838.19756,0.42732
3836.26882,0.42829
3834.34007,0.42880
3832.41133,0.42914
3830.48259,0.42960
3828.55385,0.43010
3826.62510,0.43067
3824.69636,0.43128
3822.76762,0.43161
3820.83888,0.43156
3818.91013,0.43149
3816.98139,0.43155
3815.05265,0.43165
3813.12391,0.43186
3811.19516,0.43236
3809.26642,0.43306
3807.33768,0.43368
3805.40894,0.43391
3803.48019,0.43378
3801.55145,0.43380
3799.62271,0.43405
3797.69397,0.43402
3795.76522,0.43374
3793.83648,0.43361
3791.90774,0.43375
3789.97900,0.43385
3788.05025,0.43374
3786.12151,0.43358
3784.19277,0.43341
3782.26403,0.43314
3780.33528,0.43308
3778.40654,0.43332
3776.47780,0.43341
3774.54906,0.43315
3772.62031,0.43273
3770.69157,0.43226
3768.76283,0.43177
3766.83409,0.43136
3764.90534,0.43103
3762.97660,0.43068
3761.04786,0.43021
3759.11912,0.42966
3757.19037,0.42916
3755.26163,0.42859
3753.33289,0.42795
3751.40415,0.42739
3749.47540,0.42668
3747.54666,0.42577
3745.61792,0.42496
3743.68918,0.42427
3741.76043,0.42352
3739.83169,0.42262
3737.90295,0.42144
3735.97421,0.42005
3734.04546,0.41888
3732.11672,0.41785
3730.18798,0.41659
3728.25924,0.41518
3726.33049,0.41383
3724.40175,0.41235
3722.47301,0.41061
3720.54427,0.40883
3718.61552,0.40704
3716.68678,0.40512
3714.75804,0.40319
3712.82930,0.40135
3710.90055,0.39935
3708.97181,0.39699
3707.04307,0.39428
3705.11433,0.39133
3703.18558,0.38822
3701.25684,0.38477
3699.32810,0.38109
3697.39936,0.37754
3695.47061,0.37407
3693.54187,0.37053
3691.61313,0.36650
3689.68439,0.36153
3687.75564,0.35608
3685.82690,0.35089
3683.89816,0.34585
3681.96942,0.34065
3680.04067,0.33507
3678.11193,0.32878
3676.18319,0.32165
3674.25445,0.31465
3672.32570,0.30843
3670.39696,0.30174
3668.46822,0.29457
3666.53948,0.28795
3664.61073,0.28149
3662.68199,0.27484
3660.75325,0.26850
3658.82451,0.26270
3656.89576,0.25665
3654.96702,0.25014
3653.03828,0.24415
3651.10954,0.23837
3649.18079,0.23203
3647.25205,0.22589
3645.32331,0.22068
3643.39457,0.21599
3641.46582,0.21124
3639.53708,0.20640
3637.60834,0.20179
3635.67960,0.19738
3633.75085,0.19313
3631.82211,0.18920
3629.89337,0.18508
3627.96463,0.18058
3626.03588,0.17647
3624.10714,0.17268
3622.17840,0.16883
3620.24966,0.16481
3618.32091,0.16073
3616.39217,0.15686
3614.46343,0.15320
3612.53469,0.14957
3610.60594,0.14597
3608.67720,0.14238
3606.74846,0.13874
3604.81972,0.13515
3602.89097,0.13175
3600.96223,0.12865
3599.03349,0.12573
3597.10475,0.12279
3595.17600,0.11969
3593.24726,0.11666
3591.31852,0.11405
3589.38978,0.11150
3587.46103,0.10863
3585.53229,0.10576
3583.60355,0.10317
3581.67481,0.10093
3579.74606,0.09900
3577.81732,0.09716
3575.88858,0.09518
3573.95984,0.09311
3572.03109,0.09107
3570.10235,0.08912
3568.17361,0.08731
3566.24487,0.08568
3564.31612,0.08415
3562.38738,0.08257
3560.45864,0.08091
3558.52990,0.07934
3556.60115,0.07798
3554.67241,0.07681
3552.74367,0.07578
3550.81493,0.07470
3548.88618,0.07345
3546.95744,0.07227
3545.02870,0.07123
3543.09996,0.07001
3541.17121,0.06864
3539.24247,0.06725
3537.31373,0.06594
3535.38499,0.06493
3533.45624,0.06437
3531.52750,0.06387
3529.59876,0.06296
3527.67002,0.06174
3525.74127,0.06061
3523.81253,0.05964
3521.88379,0.05868
3519.95505,0.05786
3518.02630,0.05725
3516.09756,0.05647
3514.16882,0.05555
3512.24008,0.05489
3510.31133,0.05426
3508.38259,0.05336
3506.45385,0.05251
3504.52511,0.05185
3502.59636,0.05111
3500.66762,0.05040
3498.73888,0.04989
3496.81014,0.04942
3494.88139,0.04895
3492.95265,0.04846
3491.02391,0.04779
3489.09517,0.04705
3487.16642,0.04653
3485.23768,0.04637
3483.30894,0.04638
3481.38020,0.04603
3479.45145,0.04510
3477.52271,0.04428
3475.59397,0.04423
3473.66523,0.04437
3471.73648,0.04405
3469.80774,0.04361
3467.87900,0.04348
3465.95026,0.04348
3464.02151,0.04319
3462.09277,0.04261
3460.16403,0.04221
3458.23529,0.04217
3456.30654,0.04221
3454.37780,0.04217
3452.44906,0.04220
3450.52032,0.04219
3448.59157,0.04201
3446.66283,0.04180
3444.73409,0.04162
3442.80535,0.04155
3440.87660,0.04170
3438.94786,0.04172
3437.01912,0.04129
3435.09038,0.04078
3433.16163,0.04072
3431.23289,0.04090
3429.30415,0.04097
3427.37541,0.04096
3425.44666,0.04095
3423.51792,0.04095
3421.58918,0.04111
3419.66044,0.04129
3417.73169,0.04124
3415.80295,0.04115
3413.87421,0.04119
3411.94547,0.04122
3410.01672,0.04115
3408.08798,0.04090
3406.15924,0.04060
3404.23050,0.04060
3402.30175,0.04088
3400.37301,0.04098
3398.44427,0.04075
3396.51553,0.04054
3394.58678,0.04063
3392.65804,0.04078
3390.72930,0.04082
3388.80056,0.04067
3386.87181,0.04031
3384.94307,0.04006
3383.01433,0.04018
3381.08559,0.04051
3379.15684,0.04069
3377.22810,0.04063
3375.29936,0.04070
3373.37062,0.04122
3371.44187,0.04174
3369.51313,0.04170
3367.58439,0.04119
3365.65565,0.04075
3363.72690,0.04062
3361.79816,0.04068
3359.86942,0.04096
3357.94068,0.04140
3356.01193,0.04169
3354.08319,0.04186
3352.15445,0.04205
3350.22571,0.04208
3348.29696,0.04202
3346.36822,0.04223
3344.43948,0.04261
3342.51074,0.04278
3340.58199,0.04282
3338.65325,0.04295
3336.72451,0.04324
3334.79577,0.04357
3332.86702,0.04384
3330.93828,0.04419
3329.00954,0.04458
3327.08080,0.04473
3325.15205,0.04478
3323.22331,0.04499
3321.29457,0.04547
3319.36583,0.04601
3317.43708,0.04631
3315.50834,0.04648
3313.57960,0.04653
3311.65086,0.04645
3309.72211,0.04655
3307.79337,0.04680
3305.86463,0.04698
3303.93589,0.04705
3302.00714,0.04715
3300.07840,0.04744
3298.14966,0.04785
3296.22092,0.04829
3294.29217,0.04857
3292.36343,0.04855
3290.43469,0.04858
3288.50595,0.04895
3286.57721,0.04949
3284.64846,0.04996
3282.71972,0.05033
3280.79098,0.05059
3278.86224,0.05064
3276.93349,0.05069
3275.00475,0.05102
3273.07601,0.05135
3271.14727,0.05170
3269.21852,0.05232
3267.28978,0.05284
3265.36104,0.05304
3263.43230,0.05331
3261.50355,0.05377
3259.57481,0.05433
3257.64607,0.05479
3255.71733,0.05516
3253.78858,0.05556
3251.85984,0.05599
3249.93110,0.05640
3248.00236,0.05690
3246.07361,0.05767
3244.14487,0.05837
3242.21613,0.05874
3240.28739,0.05894
3238.35864,0.05907
3236.42990,0.05922
3234.50116,0.05973
3232.57242,0.06062
3230.64367,0.06137
3228.71493,0.06175
3226.78619,0.06205
3224.85745,0.06247
3222.92870,0.06284
3220.99996,0.06308
3219.07122,0.06343
3217.14248,0.06389
3215.21373,0.06421
3213.28499,0.06443
3211.35625,0.06473
3209.42751,0.06510
3207.49876,0.06543
3205.57002,0.06596
3203.64128,0.06690
3201.71254,0.06785
3199.78379,0.06853
3197.85505,0.06907
3195.92631,0.06949
3193.99757,0.06995
3192.06882,0.07055
3190.14008,0.07090
3188.21134,0.07097
3186.28260,0.07130
3184.35385,0.07208
3182.42511,0.07315
3180.49637,0.07432
3178.56763,0.07526
3176.63888,0.07585
3174.71014,0.07641
3172.78140,0.07719
3170.85266,0.07799
3168.92391,0.07864
3166.99517,0.07933
3165.06643,0.08023
3163.13769,0.08118
3161.20894,0.08204
3159.28020,0.08280
3157.35146,0.08352
3155.42272,0.08432
3153.49397,0.08510
3151.56523,0.08568
3149.63649,0.08630
3147.70775,0.08713
3145.77900,0.08796
3143.85026,0.08869
3141.92152,0.08931
3139.99278,0.08986
3138.06403,0.09043
3136.13529,0.09097
3134.20655,0.09153
3132.27781,0.09225
3130.34906,0.09315
3128.42032,0.09396
3126.49158,0.09446
3124.56284,0.09475
3122.63409,0.09512
3120.70535,0.09556
3118.77661,0.09598
3116.84787,0.09657
3114.91912,0.09728
3112.99038,0.09791
3111.06164,0.09858
3109.13290,0.09928
3107.20415,0.09979
3105.27541,0.10025
3103.34667,0.10099
3101.41793,0.10184
3099.48918,0.10244
3097.56044,0.10268
3095.63170,0.10278
3093.70296,0.10315
3091.77421,0.10379
3089.84547,0.10429
3087.91673,0.10453
3085.98799,0.10480
3084.05924,0.10523
3082.13050,0.10562
3080.20176,0.10574
3078.27302,0.10562
3076.34427,0.10559
3074.41553,0.10589
3072.48679,0.10652
3070.55805,0.10724
3068.62930,0.10778
3066.70056,0.10820
3064.77182,0.10864
3062.84308,0.10898
3060.91433,0.10922
3058.98559,0.10956
3057.05685,0.11010
3055.12811,0.11075
3053.19936,0.11127
3051.27062,0.11151
3049.34188,0.11161
3047.41314,0.11185
3045.48439,0.11234
3043.55565,0.11298
3041.62691,0.11352
3039.69817,0.11378
3037.76942,0.11390
3035.84068,0.11408
3033.91194,0.11432
3031.98320,0.11456
3030.05445,0.11454
3028.12571,0.11425
3026.19697,0.11393
3024.26823,0.11363
3022.33948,0.11331
3020.41074,0.11310
3018.48200,0.11308
3016.55326,0.11290
3014.62451,0.11224
3012.69577,0.11137
3010.76703,0.11055
3008.83829,0.10974
3006.90954,0.10891
3004.98080,0.10821
3003.05206,0.10758
3001.12332,0.10684
2999.19457,0.10615
2997.26583,0.10564
2995.33709,0.10530
2993.40835,0.10502
2991.47960,0.10454
2989.55086,0.10359
2987.62212,0.10224
2985.69338,0.10072
2983.76463,0.09926
2981.83589,0.09774
2979.90715,0.09575
2977.97841,0.09334
2976.04966,0.09110
2974.12092,0.08903
2972.19218,0.08690
2970.26344,0.08484
2968.33469,0.08300
2966.40595,0.08140
2964.47721,0.08006
2962.54847,0.07891
2960.61972,0.07781
2958.69098,0.07672
2956.76224,0.07567
2954.83350,0.07469
2952.90475,0.07386
2950.97601,0.07307
2949.04727,0.07204
2947.11853,0.07087
2945.18978,0.06986
2943.26104,0.06915
2941.33230,0.06884
2939.40356,0.06877
2937.47481,0.06865
2935.54607,0.06864
2933.61733,0.06884
2931.68859,0.06895
2929.75984,0.06894
2927.83110,0.06905
2925.90236,0.06908
2923.97362,0.06886
2922.04487,0.06857
2920.11613,0.06831
2918.18739,0.06810
2916.25865,0.06815
2914.32990,0.06868
2912.40116,0.06959
2910.47242,0.07032
2908.54368,0.07060
2906.61493,0.07072
2904.68619,0.07091
2902.75745,0.07113
2900.82871,0.07131
2898.89996,0.07157
2896.97122,0.07204
2895.04248,0.07263
2893.11374,0.07320
2891.18499,0.07374
2889.25625,0.07420
2887.32751,0.07464
2885.39877,0.07500
2883.47002,0.07520
2881.54128,0.07554
2879.61254,0.07603
2877.68380,0.07630
2875.75505,0.07630
2873.82631,0.07637
2871.89757,0.07673
2869.96883,0.07741
2868.04008,0.07832
2866.11134,0.07915
2864.18260,0.07969
2862.25386,0.08020
2860.32511,0.08086
2858.39637,0.08150
2856.46763,0.08208
2854.53889,0.08254
2852.61014,0.08286
2850.68140,0.08339
2848.75266,0.08460
2846.82392,0.08650
2844.89517,0.08864
2842.96643,0.09057
2841.03769,0.09240
2839.10895,0.09445
2837.18020,0.09680
2835.25146,0.09927
2833.32272,0.10181
2831.39398,0.10450
2829.46523,0.10717
2827.53649,0.10973
2825.60775,0.11235
2823.67901,0.11501
2821.75026,0.11743
2819.82152,0.11949
2817.89278,0.12145
2815.96404,0.12353
2814.03529,0.12563
2812.10655,0.12748
2810.17781,0.12910
2808.24907,0.13076
2806.32032,0.13251
2804.39158,0.13403
2802.46284,0.13529
2800.53410,0.13669
2798.60535,0.13823
2796.67661,0.13960
2794.74787,0.14079
2792.81913,0.14182
2790.89038,0.14262
2788.96164,0.14343
2787.03290,0.14436
2785.10416,0.14514
2783.17541,0.14575
2781.24667,0.14640
2779.31793,0.14707
2777.38919,0.14762
2775.46044,0.14811
2773.53170,0.14861
2771.60296,0.14909
2769.67422,0.14955
2767.74547,0.15005
2765.81673,0.15066
2763.88799,0.15139
2761.95925,0.15207
2760.03050,0.15256
2758.10176,0.15287
2756.17302,0.15303
2754.24428,0.15316
2752.31553,0.15334
2750.38679,0.15347
2748.45805,0.15353
2746.52931,0.15367
2744.60056,0.15389
2742.67182,0.15403
2740.74308,0.15412
2738.81434,0.15435
2736.88560,0.15470
2734.95685,0.15498
2733.02811,0.15511
2731.09937,0.15520
2729.17063,0.15552
2727.24188,0.15616
2725.31314,0.15686
2723.38440,0.15754
2721.45566,0.15826
2719.52691,0.15891
2717.59817,0.15938
2715.66943,0.15980
2713.74069,0.16043
2711.81194,0.16137
2709.88320,0.16241
2707.95446,0.16342
2706.02572,0.16440
2704.09697,0.16528
2702.16823,0.16605
2700.23949,0.16692
2698.31075,0.16808
2696.38200,0.16922
2694.45326,0.16992
2692.52452,0.17042
2690.59578,0.17114
2688.66703,0.17188
2686.73829,0.17247
2684.80955,0.17310
2682.88081,0.17390
2680.95206,0.17485
2679.02332,0.17581
2677.09458,0.17666
2675.16584,0.17734
2673.23709,0.17795
2671.30835,0.17861
2669.37961,0.17921
2667.45087,0.17974
2665.52212,0.18028
2663.59338,0.18076
2661.66464,0.18108
2659.73590,0.18139
2657.80715,0.18181
2655.87841,0.18229
2653.94967,0.18281
2652.02093,0.18341
2650.09218,0.18410
2648.16344,0.18486
2646.23470,0.18562
2644.30596,0.18614
2642.37721,0.18643
2640.44847,0.18691
2638.51973,0.18768
2636.59099,0.18858
2634.66224,0.18939
2632.73350,0.19012
2630.80476,0.19100
2628.87602,0.19195
2626.94727,0.19270
2625.01853,0.19339
2623.08979,0.19416
2621.16105,0.19492
2619.23230,0.19557
2617.30356,0.19618
2615.37482,0.19674
2613.44608,0.19723
2611.51733,0.19771
2609.58859,0.19834
2607.65985,0.19918
2605.73111,0.19993
2603.80236,0.20034
2601.87362,0.20053
2599.94488,0.20088
2598.01614,0.20150
2596.08739,0.20216
2594.15865,0.20288
2592.22991,0.20364
2590.30117,0.20420
2588.37242,0.20465
2586.44368,0.20528
2584.51494,0.20596
2582.58620,0.20645
2580.65745,0.20684
2578.72871,0.20730
2576.79997,0.20783
2574.87123,0.20830
2572.94248,0.20868
2571.01374,0.20898
2569.08500,0.20932
2567.15626,0.20965
2565.22751,0.20993
2563.29877,0.21027
2561.37003,0.21071
2559.44129,0.21113
2557.51254,0.21144
2555.58380,0.21173
2553.65506,0.21204
2551.72632,0.21225
2549.79757,0.21238
2547.86883,0.21266
2545.94009,0.21310
2544.01135,0.21346
2542.08260,0.21376
2540.15386,0.21411
2538.22512,0.21444
2536.29638,0.21488
2534.36763,0.21556
2532.43889,0.21642
2530.51015,0.21724
2528.58141,0.21779
2526.65266,0.21827
2524.72392,0.21892
2522.79518,0.21968
2520.86644,0.22037
2518.93769,0.22100
2517.00895,0.22163
2515.08021,0.22234
2513.15147,0.22316
2511.22272,0.22402
2509.29398,0.22484
2507.36524,0.22564
2505.43650,0.22656
2503.50775,0.22767
2501.57901,0.22889
2499.65027,0.22998
2497.72153,0.23096
2495.79278,0.23204
2493.86404,0.23320
2491.93530,0.23429
2490.00656,0.23521
2488.07781,0.23594
2486.14907,0.23658
2484.22033,0.23738
2482.29159,0.23838
2480.36284,0.23922
2478.43410,0.23983
2476.50536,0.24058
2474.57662,0.24150
2472.64787,0.24235
2470.71913,0.24310
2468.79039,0.24377
2466.86165,0.24426
2464.93290,0.24474
2463.00416,0.24529
2461.07542,0.24590
2459.14668,0.24663
2457.21793,0.24745
2455.28919,0.24815
2453.36045,0.24872
2451.43171,0.24931
2449.50296,0.25002
2447.57422,0.25084
2445.64548,0.25166
2443.71674,0.25239
2441.78799,0.25311
2439.85925,0.25404
2437.93051,0.25520
2436.00177,0.25637
2434.07302,0.25749
2432.14428,0.25869
2430.21554,0.25986
2428.28680,0.26094
2426.35805,0.26199
2424.42931,0.26303
2422.50057,0.26409
2420.57183,0.26529
2418.64308,0.26666
2416.71434,0.26802
2414.78560,0.26929
2412.85686,0.27047
2410.92811,0.27162
2408.99937,0.27274
2407.07063,0.27394
2405.14189,0.27532
2403.21314,0.27678
2401.28440,0.27806
2399.35566,0.27903
2397.42692,0.27989
2395.49817,0.28080
2393.56943,0.28183
2391.64069,0.28296
2389.71195,0.28406
2387.78320,0.28518
2385.85446,0.28635
2383.92572,0.28735
2381.99698,0.28818
2380.06823,0.28909
2378.13949,0.29013
2376.21075,0.29111
2374.28201,0.29202
2372.35326,0.29293
2370.42452,0.29388
2368.49578,0.29470
2366.56704,0.29531
2364.63829,0.29604
2362.70955,0.29702
2360.78081,0.29791
2358.85207,0.29859
2356.92332,0.29927
2354.99458,0.30007
2353.06584,0.30097
2351.13710,0.30185
2349.20835,0.30258
2347.27961,0.30319
2345.35087,0.30382
2343.42213,0.30459
2341.49338,0.30533
2339.56464,0.30584
2337.63590,0.30623
2335.70716,0.30662
2333.77841,0.30708
2331.84967,0.30764
2329.92093,0.30819
2327.99219,0.30858
2326.06344,0.30877
2324.13470,0.30899
2322.20596,0.30936
2320.27722,0.30962
2318.34847,0.30969
2316.41973,0.30975
2314.49099,0.30989
2312.56225,0.31009
2310.63350,0.31025
2308.70476,0.31031
2306.77602,0.31026
2304.84728,0.31022
2302.91853,0.31022
2300.98979,0.31013
2299.06105,0.30991
2297.13231,0.30970
2295.20356,0.30955
2293.27482,0.30952
2291.34608,0.30972
2289.41734,0.31006
2287.48859,0.31026
2285.55985,0.31029
2283.63111,0.31035
2281.70237,0.31040
2279.77362,0.31032
2277.84488,0.31012
2275.91614,0.30982
2273.98740,0.30944
2272.05865,0.30903
2270.12991,0.30842
2268.20117,0.30760
2266.27243,0.30683
2264.34368,0.30620
2262.41494,0.30553
2260.48620,0.30481
2258.55746,0.30416
2256.62871,0.30350
2254.69997,0.30275
2252.77123,0.30212
2250.84249,0.30164
2248.91374,0.30109
2246.98500,0.30057
2245.05626,0.30025
2243.12752,0.30007
2241.19877,0.29996
2239.27003,0.29988
2237.34129,0.29988
2235.41255,0.30003
2233.48380,0.30022
2231.55506,0.30037
2229.62632,0.30065
2227.69758,0.30105
2225.76883,0.30134
2223.84009,0.30153
2221.91135,0.30177
2219.98261,0.30210
2218.05386,0.30242
2216.12512,0.30261
2214.19638,0.30271
2212.26764,0.30278
2210.33889,0.30279
2208.41015,0.30258
2206.48141,0.30219
2204.55267,0.30177
2202.62392,0.30130
2200.69518,0.30080
2198.76644,0.30031
2196.83770,0.29964
2194.90895,0.29856
2192.98021,0.29730
2191.05147,0.29619
2189.12273,0.29514
2187.19399,0.29396
2185.26524,0.29275
2183.33650,0.29158
2181.40776,0.29032
2179.47902,0.28900
2177.55027,0.28776
2175.62153,0.28659
2173.69279,0.28535
2171.76405,0.28408
2169.83530,0.28286
2167.90656,0.28167
2165.97782,0.28050
2164.04908,0.27942
2162.12033,0.27847
2160.19159,0.27774
2158.26285,0.27713
2156.33411,0.27649
2154.40536,0.27589
2152.47662,0.27540
2150.54788,0.27492
2148.61914,0.27444
2146.69039,0.27402
2144.76165,0.27362
2142.83291,0.27323
2140.90417,0.27299
2138.97542,0.27298
2137.04668,0.27301
2135.11794,0.27293
2133.18920,0.27283
2131.26045,0.27291
2129.33171,0.27322
2127.40297,0.27365
2125.47423,0.27409
2123.54548,0.27452
2121.61674,0.27490
2119.68800,0.27521
2117.75926,0.27555
2115.83051,0.27595
2113.90177,0.27636
2111.97303,0.27677
2110.04429,0.27726
2108.11554,0.27786
2106.18680,0.27851
2104.25806,0.27914
2102.32932,0.27976
2100.40057,0.28032
2098.47183,0.28076
2096.54309,0.28114
2094.61435,0.28167
2092.68560,0.28228
2090.75686,0.28263
2088.82812,0.28283
2086.89938,0.28317
2084.97063,0.28345
2083.04189,0.28343
2081.11315,0.28310
2079.18441,0.28252
2077.25566,0.28188
2075.32692,0.28138
2073.39818,0.28099
2071.46944,0.28056
2069.54069,0.28016
2067.61195,0.27989
2065.68321,0.27963
2063.75447,0.27922
2061.82572,0.27879
2059.89698,0.27858
2057.96824,0.27864
2056.03950,0.27881
2054.11075,0.27898
2052.18201,0.27915
2050.25327,0.27935
2048.32453,0.27963
2046.39578,0.28006
2044.46704,0.28057
2042.53830,0.28110
2040.60956,0.28169
2038.68081,0.28245
2036.75207,0.28337
2034.82333,0.28441
2032.89459,0.28547
2030.96584,0.28648
2029.03710,0.28745
2027.10836,0.28851
2025.17962,0.28958
2023.25087,0.29068
2021.32213,0.29185
2019.39339,0.29307
2017.46465,0.29437
2015.53590,0.29569
2013.60716,0.29688
2011.67842,0.29798
2009.74968,0.29904
2007.82093,0.30003
2005.89219,0.30091
2003.96345,0.30158
2002.03471,0.30213
2000.10596,0.30274
1998.17722,0.30335
1996.24848,0.30386
1994.31974,0.30445
1992.39099,0.30516
1990.46225,0.30574
1988.53351,0.30606
1986.60477,0.30619
1984.67602,0.30632
1982.74728,0.30660
1980.81854,0.30705
1978.88980,0.30747
1976.96105,0.30765
1975.03231,0.30756
1973.10357,0.30739
1971.17483,0.30729
1969.24608,0.30731
1967.31734,0.30740
1965.38860,0.30739
1963.45986,0.30724
1961.53111,0.30715
1959.60237,0.30733
1957.67363,0.30768
1955.74489,0.30803
1953.81614,0.30839
1951.88740,0.30887
1949.95866,0.30946
1948.02992,0.31013
1946.10117,0.31097
1944.17243,0.31204
1942.24369,0.31331
1940.31495,0.31457
1938.38620,0.31569
1936.45746,0.31685
1934.52872,0.31816
1932.59998,0.31942
1930.67123,0.32051
1928.74249,0.32155
1926.81375,0.32255
1924.88501,0.32345
1922.95626,0.32434
1921.02752,0.32518
1919.09878,0.32590
1917.17004,0.32651
1915.24129,0.32687
1913.31255,0.32696
1911.38381,0.32706
1909.45507,0.32734
1907.52632,0.32766
1905.59758,0.32788
1903.66884,0.32793
1901.74010,0.32777
1899.81135,0.32755
1897.88261,0.32747
1895.95387,0.32733
1894.02513,0.32698
1892.09638,0.32653
1890.16764,0.32613
1888.23890,0.32587
1886.31016,0.32565
1884.38141,0.32531
1882.45267,0.32484
1880.52393,0.32436
1878.59519,0.32391
1876.66644,0.32340
1874.73770,0.32286
1872.80896,0.32234
1870.88022,0.32182
1868.95147,0.32124
1867.02273,0.32061
1865.09399,0.31986
1863.16525,0.31899
1861.23650,0.31821
1859.30776,0.31748
1857.37902,0.31664
1855.45028,0.31570
1853.52153,0.31477
1851.59279,0.31378
1849.66405,0.31273
1847.73531,0.31175
1845.80656,0.31067
1843.87782,0.30936
1841.94908,0.30807
1840.02034,0.30685
1838.09159,0.30555
1836.16285,0.30409
1834.23411,0.30255
1832.30537,0.30109
1830.37662,0.29965
1828.44788,0.29795
1826.51914,0.29604
1824.59040,0.29408
1822.66165,0.29214
1820.73291,0.29025
1818.80417,0.28829
1816.87543,0.28602
1814.94668,0.28347
1813.01794,0.28089
1811.08920,0.27831
1809.16046,0.27564
1807.23171,0.27289
1805.30297,0.26996
1803.37423,0.26673
1801.44549,0.26315
1799.51674,0.25948
1797.58800,0.25598
1795.65926,0.25254
1793.73052,0.24880
1791.80177,0.24468
1789.87303,0.24047
1787.94429,0.23605
1786.01555,0.23100
1784.08680,0.22529
1782.15806,0.21916
1780.22932,0.21252
1778.30058,0.20529
1776.37183,0.19765
1774.44309,0.18913
1772.51435,0.17886
1770.58561,0.16767
1768.65686,0.15666
1766.72812,0.14568
1764.79938,0.13523
1762.87064,0.12527
1760.94189,0.11594
1759.01315,0.10832
1757.08441,0.10204
1755.15567,0.09676
1753.22692,0.09257
1751.29818,0.08893
1749.36944,0.08575
1747.44070,0.08332
1745.51195,0.08139
1743.58321,0.07979
1741.65447,0.07873
1739.72573,0.07822
1737.79698,0.07819
1735.86824,0.07868
1733.93950,0.07974
1732.01076,0.08113
1730.08201,0.08258
1728.15327,0.08412
1726.22453,0.08580
1724.29579,0.08753
1722.36704,0.08907
1720.43830,0.09034
1718.50956,0.09118
1716.58082,0.09147
1714.65207,0.09143
1712.72333,0.09098
1710.79459,0.08993
1708.86585,0.08847
1706.93710,0.08670
1705.00836,0.08450
1703.07962,0.08200
1701.15088,0.07893
1699.22213,0.07539
1697.29339,0.07217
1695.36465,0.06882
1693.43591,0.06542
1691.50716,0.06247
1689.57842,0.05971
1687.64968,0.05720
1685.72094,0.05475
1683.79219,0.05209
1681.86345,0.04997
1679.93471,0.04873
1678.00597,0.04791
1676.07722,0.04717
1674.14848,0.04651
1672.21974,0.04617
1670.29100,0.04608
1668.36225,0.04601
1666.43351,0.04606
1664.50477,0.04639
1662.57603,0.04709
1660.64728,0.04800
1658.71854,0.04884
1656.78980,0.04965
1654.86106,0.05058
1652.93231,0.05171
1651.00357,0.05278
1649.07483,0.05376
1647.14609,0.05468
1645.21735,0.05526
1643.28860,0.05570
1641.35986,0.05626
1639.43112,0.05667
1637.50238,0.05668
1635.57363,0.05645
1633.64489,0.05616
1631.71615,0.05591
1629.78741,0.05583
1627.85866,0.05583
1625.92992,0.05586
1624.00118,0.05592
1622.07244,0.05596
1620.14369,0.05609
1618.21495,0.05632
1616.28621,0.05644
1614.35747,0.05653
1612.42872,0.05668
1610.49998,0.05663
1608.57124,0.05647
1606.64250,0.05640
1604.71375,0.05639
1602.78501,0.05633
1600.85627,0.05631
1598.92753,0.05638
1596.99878,0.05654
1595.07004,0.05703
1593.14130,0.05803
1591.21256,0.05948
1589.28381,0.06148
1587.35507,0.06397
1585.42633,0.06669
1583.49759,0.06955
1581.56884,0.07260
1579.64010,0.07561
1577.71136,0.07854
1575.78262,0.08147
1573.85387,0.08381
1571.92513,0.08551
1569.99639,0.08695
1568.06765,0.08798
1566.13890,0.08835
1564.21016,0.08830
1562.28142,0.08816
1560.35268,0.08788
1558.42393,0.08722
1556.49519,0.08624
1554.56645,0.08524
1552.63771,0.08441
1550.70896,0.08374
1548.78022,0.08309
1546.85148,0.08244
1544.92274,0.08180
1542.99399,0.08111
1541.06525,0.08021
1539.13651,0.07918
1537.20777,0.07841
1535.27902,0.07772
1533.35028,0.07656
1531.42154,0.07504
1529.49280,0.07350
1527.56405,0.07174
1525.63531,0.06955
1523.70657,0.06695
1521.77783,0.06380
1519.84908,0.06045
1517.92034,0.05760
1515.99160,0.05527
1514.06286,0.05361
1512.13411,0.05268
1510.20537,0.05220
1508.27663,0.05203
1506.34789,0.05241
1504.41914,0.05349
1502.49040,0.05498
1500.56166,0.05684
1498.63292,0.05890
1496.70417,0.06083
1494.77543,0.06261
1492.84669,0.06436
1490.91795,0.06597
1488.98920,0.06702
1487.06046,0.06725
1485.13172,0.06685
1483.20298,0.06587
1481.27423,0.06434
1479.34549,0.06255
1477.41675,0.06059
1475.48801,0.05826
1473.55926,0.05545
1471.63052,0.05254
1469.70178,0.05037
1467.77304,0.04915
1465.84429,0.04855
1463.91555,0.04847
1461.98681,0.04886
1460.05807,0.04931
1458.12932,0.04951
1456.20058,0.04976
1454.27184,0.05032
1452.34310,0.05103
1450.41435,0.05179
1448.48561,0.05260
1446.55687,0.05329
1444.62813,0.05364
1442.69938,0.05374
1440.77064,0.05377
1438.84190,0.05355
1436.91316,0.05289
1434.98441,0.05198
1433.05567,0.05108
1431.12693,0.05033
1429.19819,0.05001
1427.26944,0.05025
1425.34070,0.05082
1423.41196,0.05154
1421.48322,0.05239
1419.55447,0.05346
1417.62573,0.05466
1415.69699,0.05588
1413.76825,0.05716
1411.83950,0.05840
1409.91076,0.05938
1407.98202,0.06009
1406.05328,0.06054
1404.12453,0.06071
1402.19579,0.06071
1400.26705,0.06054
1398.33831,0.06009
1396.40956,0.05941
1394.48082,0.05864
1392.55208,0.05778
1390.62334,0.05677
1388.69459,0.05545
1386.76585,0.05381
1384.83711,0.05225
1382.90837,0.05098
1380.97962,0.04985
1379.05088,0.04892
1377.12214,0.04839
1375.19340,0.04828
1373.26465,0.04852
1371.33591,0.04899
1369.40717,0.04951
1367.47843,0.05001
1365.54968,0.05063
1363.62094,0.05138
1361.69220,0.05201
1359.76346,0.05247
1357.83471,0.05291
1355.90597,0.05336
1353.97723,0.05366
1352.04849,0.05377
1350.11974,0.05379
1348.19100,0.05366
1346.26226,0.05316
1344.33352,0.05246
1342.40477,0.05174
1340.47603,0.05107
1338.54729,0.05055
1336.61855,0.05022
1334.68980,0.04999
1332.76106,0.04988
1330.83232,0.04993
1328.90358,0.05017
1326.97483,0.05057
1325.04609,0.05095
1323.11735,0.05125
1321.18861,0.05153
1319.25986,0.05197
1317.33112,0.05263
1315.40238,0.05337
1313.47364,0.05411
1311.54489,0.05492
1309.61615,0.05578
1307.68741,0.05656
1305.75867,0.05709
1303.82992,0.05730
1301.90118,0.05740
1299.97244,0.05753
1298.04370,0.05753
1296.11495,0.05731
1294.18621,0.05686
1292.25747,0.05620
1290.32873,0.05522
1288.39998,0.05383
1286.47124,0.05242
1284.54250,0.05144
1282.61376,0.05085
1280.68501,0.05037
1278.75627,0.04991
1276.82753,0.04946
1274.89879,0.04890
1272.97004,0.04829
1271.04130,0.04788
1269.11256,0.04769
1267.18382,0.04754
1265.25507,0.04739
1263.32633,0.04737
1261.39759,0.04750
1259.46885,0.04764
1257.54010,0.04774
1255.61136,0.04791
1253.68262,0.04804
1251.75388,0.04787
1249.82513,0.04742
1247.89639,0.04689
1245.96765,0.04656
1244.03891,0.04654
1242.11016,0.04654
1240.18142,0.04633
1238.25268,0.04612
1236.32394,0.04610
1234.39519,0.04626
1232.46645,0.04671
1230.53771,0.04734
1228.60897,0.04779
1226.68022,0.04809
1224.75148,0.04851
1222.82274,0.04908
1220.89400,0.04968
1218.96525,0.05026
1217.03651,0.05096
1215.10777,0.05183
1213.17903,0.05256
1211.25028,0.05283
1209.32154,0.05276
1207.39280,0.05273
1205.46406,0.05284
1203.53531,0.05293
1201.60657,0.05294
1199.67783,0.05300
1197.74909,0.05316
1195.82034,0.05309
1193.89160,0.05258
1191.96286,0.05194
1190.03412,0.05132
1188.10537,0.05050
1186.17663,0.04950
1184.24789,0.04839
1182.31915,0.04702
1180.39040,0.04542
1178.46166,0.04379
1176.53292,0.04216
1174.60418,0.04056
1172.67543,0.03932
1170.74669,0.03881
1168.81795,0.03906
1166.88921,0.03994
1164.96046,0.04118
1163.03172,0.04239
1161.10298,0.04331
1159.17424,0.04407
1157.24549,0.04478
1155.31675,0.04528
1153.38801,0.04543
1151.45927,0.04529
1149.53052,0.04493
1147.60178,0.04442
1145.67304,0.04380
1143.74430,0.04294
1141.81555,0.04189
1139.88681,0.04094
1137.95807,0.04009
1136.02933,0.03921
1134.10058,0.03849
1132.17184,0.03817
1130.24310,0.03834
1128.31436,0.03875
1126.38561,0.03918
1124.45687,0.03986
1122.52813,0.04070
1120.59939,0.04116
1118.67064,0.04106
1116.74190,0.04105
1114.81316,0.04157
1112.88442,0.04222
1110.95567,0.04290
1109.02693,0.04394
1107.09819,0.04500
1105.16945,0.04573
1103.24070,0.04609
1101.31196,0.04604
1099.38322,0.04571
1097.45448,0.04524
1095.52574,0.04466
1093.59699,0.04411
1091.66825,0.04376
1089.73951,0.04347
1087.81077,0.04287
1085.88202,0.04204
1083.95328,0.04159
1082.02454,0.04170
1080.09580,0.04218
1078.16705,0.04312
1076.23831,0.04439
1074.30957,0.04552
1072.38083,0.04647
1070.45208,0.04741
1068.52334,0.04840
1066.59460,0.04982
1064.66586,0.05182
1062.73711,0.05394
1060.80837,0.05580
1058.87963,0.05743
1056.95089,0.05885
1055.02214,0.05989
1053.09340,0.06047
1051.16466,0.06074
1049.23592,0.06095
1047.30717,0.06109
1045.37843,0.06095
1043.44969,0.06078
1041.52095,0.06113
1039.59220,0.06205
1037.66346,0.06329
1035.73472,0.06453
1033.80598,0.06568
1031.87723,0.06691
1029.94849,0.06802
1028.01975,0.06883
1026.09101,0.06952
1024.16226,0.07002
1022.23352,0.07025
1020.30478,0.07055
1018.37604,0.07118
1016.44729,0.07204
1014.51855,0.07303
1012.58981,0.07400
1010.66107,0.07473
1008.73232,0.07532
1006.80358,0.07618
1004.87484,0.07733
1002.94610,0.07835
1001.01735,0.07918
999.08861,0.07989
997.15987,0.08024
995.23113,0.08039
993.30238,0.08105
991.37364,0.08246
989.44490,0.08437
987.51616,0.08666
985.58741,0.08940
983.65867,0.09255
981.72993,0.09577
979.80119,0.09859
977.87244,0.10075
975.94370,0.10253
974.01496,0.10432
972.08622,0.10595
970.15747,0.10716
968.22873,0.10843
966.29999,0.11007
964.37125,0.11194
962.44250,0.11399
960.51376,0.11635
958.58502,0.11920
956.65628,0.12238
954.72753,0.12532
952.79879,0.12781
950.87005,0.13002
948.94131,0.13187
947.01256,0.13330
945.08382,0.13446
943.15508,0.13504
941.22634,0.13502
939.29759,0.13494
937.36885,0.13505
935.44011,0.13513
933.51137,0.13500
931.58262,0.13486
929.65388,0.13497
927.72514,0.13522
925.79640,0.13529
923.86765,0.13502
921.93891,0.13445
920.01017,0.13363
918.08143,0.13268
916.15268,0.13160
914.22394,0.13034
912.29520,0.12904
910.36646,0.12774
908.43771,0.12614
906.50897,0.12392
904.58023,0.12117
902.65149,0.11862
900.72274,0.11695
898.79400,0.11615
896.86526,0.11631
894.93652,0.11774
893.00777,0.12002
891.07903,0.12247
889.15029,0.12487
887.22155,0.12695
885.29280,0.12862
883.36406,0.13007
881.43532,0.13099
879.50658,0.13133
877.57783,0.13161
875.64909,0.13203
873.72035,0.13263
871.79161,0.13346
869.86286,0.13430
867.93412,0.13480
866.00538,0.13481
864.07664,0.13440
862.14789,0.13384
860.21915,0.13368
858.29041,0.13390
856.36167,0.13380
854.43292,0.13330
852.50418,0.13281
850.57544,0.13241
848.64670,0.13218
846.71795,0.13213
844.78921,0.13178
842.86047,0.13082
840.93173,0.12960
839.00298,0.12866
837.07424,0.12790
835.14550,0.12693
833.21676,0.12604
831.28801,0.12564
829.35927,0.12556
827.43053,0.12575
825.50179,0.12631
823.57304,0.12680
821.64430,0.12674
819.71556,0.12634
817.78682,0.12613
815.85807,0.12629
813.92933,0.12652
812.00059,0.12641
810.07185,0.12599
808.14310,0.12566
806.21436,0.12579
804.28562,0.12624
802.35688,0.12644
800.42813,0.12614
798.49939,0.12570
796.57065,0.12525
794.64191,0.12467
792.71316,0.12409
790.78442,0.12368
788.85568,0.12329
786.92694,0.12270
784.99819,0.12165
783.06945,0.12025
781.14071,0.11909
779.21197,0.11839
777.28322,0.11779
775.35448,0.11700
773.42574,0.11595
771.49700,0.11456
769.56825,0.11307
767.63951,0.11199
765.71077,0.11140
763.78203,0.11085
761.85328,0.10991
759.92454,0.10874
757.99580,0.10749
756.06706,0.10599
754.13831,0.10435
752.20957,0.10310
750.28083,0.10232
748.35209,0.10150
746.42334,0.10047
744.49460,0.09940
742.56586,0.09844
740.63712,0.09764
738.70837,0.09684
736.77963,0.09592
734.85089,0.09504
732.92215,0.09417
730.99340,0.09291
729.06466,0.09114
727.13592,0.08957
725.20718,0.08888
723.27843,0.08838
721.34969,0.08739
719.42095,0.08641
717.49221,0.08563
715.56346,0.08489
713.63472,0.08475
711.70598,0.08519
709.77724,0.08530
707.84849,0.08508
705.91975,0.08504
703.99101,0.08476
702.06227,0.08375
700.13352,0.08270
698.20478,0.08240
696.27604,0.08255
694.34730,0.08257
692.41855,0.08228
690.48981,0.08130
688.56107,0.07979
686.63233,0.07874
684.70358,0.07858
682.77484,0.07846
680.84610,0.07747
678.91736,0.07573
676.98861,0.07380
675.05987,0.07204
673.13113,0.07101
671.20239,0.07090
669.27364,0.07117
667.34490,0.07152
665.41616,0.07232
663.48742,0.07331
661.55867,0.07339
659.62993,0.07292
657.70119,0.07305
655.77245,0.07354
653.84370,0.07373
651.91496,0.07351
649.98622,0.07286
648.05748,0.07233
646.12873,0.07224
644.19999,0.07194
642.27125,0.07134
640.34251,0.07079
638.41376,0.07007
636.48502,0.06864
634.55628,0.06694
632.62754,0.06656
630.69879,0.06735
628.77005,0.06739
626.84131,0.06667
624.91257,0.06612
622.98382,0.06545
621.05508,0.06480
619.12634,0.06466
617.19760,0.06487
615.26885,0.06518
613.34011,0.06525
611.41137,0.06519
609.48263,0.06610
607.55388,0.06775
605.62514,0.06855
603.69640,0.06844
601.76766,0.06857
599.83891,0.06942
