7497.02206,0.02474
7495.09332,0.02523
7493.16458,0.02749
7491.23584,0.02958
7489.30709,0.02852
7487.37835,0.02626
7485.44961,0.02489
7483.52087,0.02629
7481.59212,0.03163
7479.66338,0.03580
7477.73464,0.03179
7475.80590,0.02480
7473.87715,0.02052
7471.94841,0.01834
7470.01967,0.01777
7468.09093,0.01952
7466.16218,0.02287
7464.23344,0.02508
7462.30470,0.02405
7460.37596,0.02258
7458.44721,0.02219
7456.51847,0.02274
7454.58973,0.02729
7452.66099,0.03369
7450.73224,0.03386
7448.80350,0.02858
7446.87476,0.02292
7444.94602,0.02096
7443.01727,0.02766
7441.08853,0.03725
7439.15979,0.03719
7437.23105,0.02893
7435.30230,0.02304
7433.37356,0.02308
7431.44482,0.02561
7429.51608,0.02944
7427.58733,0.03439
7425.65859,0.03491
7423.72985,0.02991
7421.80111,0.02840
7419.87236,0.03024
7417.94362,0.03089
7416.01488,0.03021
7414.08614,0.02891
7412.15739,0.02851
7410.22865,0.02775
7408.29991,0.02500
7406.37117,0.02451
7404.44242,0.02580
7402.51368,0.02597
7400.58494,0.02706
7398.65620,0.02828
7396.72745,0.02426
7394.79871,0.02022
7392.86997,0.02133
7390.94123,0.02280
7389.01248,0.02104
7387.08374,0.01928
7385.15500,0.02058
7383.22626,0.02275
7381.29751,0.02461
7379.36877,0.02871
7377.44003,0.02938
7375.51129,0.02348
7373.58254,0.01897
7371.65380,0.02086
7369.72506,0.02433
7367.79632,0.02597
7365.86757,0.02582
7363.93883,0.02680
7362.01009,0.02914
7360.08135,0.02917
7358.15260,0.02363
7356.22386,0.01711
7354.29512,0.01740
7352.36638,0.02540
7350.43763,0.03011
7348.50889,0.02717
7346.58015,0.02344
7344.65141,0.02439
7342.72266,0.02683
7340.79392,0.02845
7338.86518,0.02841
7336.93644,0.02553
7335.00769,0.02359
7333.07895,0.02513
7331.15021,0.02505
7329.22147,0.02227
7327.29272,0.02218
7325.36398,0.02574
7323.43524,0.03007
7321.50650,0.03328
7319.57775,0.03513
7317.64901,0.03571
7315.72027,0.03305
7313.79153,0.02807
7311.86278,0.02343
7309.93404,0.02076
7308.00530,0.02058
7306.07656,0.02083
7304.14781,0.02129
7302.21907,0.02411
7300.29033,0.02742
7298.36159,0.02775
7296.43284,0.02677
7294.50410,0.02760
7292.57536,0.02621
7290.64662,0.02143
7288.71787,0.01926
7286.78913,0.02100
7284.86039,0.02136
7282.93165,0.01934
7281.00290,0.01894
7279.07416,0.02286
7277.14542,0.02654
7275.21668,0.02819
7273.28793,0.03009
7271.35919,0.03139
7269.43045,0.02980
7267.50171,0.02860
7265.57296,0.02937
7263.64422,0.02891
7261.71548,0.02734
7259.78674,0.02808
7257.85799,0.03025
7255.92925,0.03184
7254.00051,0.03235
7252.07177,0.03135
7250.14302,0.02877
7248.21428,0.02647
7246.28554,0.02832
7244.35680,0.03166
7242.42805,0.02944
7240.49931,0.02626
7238.57057,0.02761
7236.64183,0.02652
7234.71308,0.02175
7232.78434,0.02133
7230.85560,0.02427
7228.92686,0.02529
7226.99811,0.02564
7225.06937,0.02753
7223.14063,0.02882
7221.21189,0.02766
7219.28314,0.02595
7217.35440,0.02469
7215.42566,0.02198
7213.49692,0.02136
7211.56817,0.02412
7209.63943,0.02674
7207.71069,0.02787
7205.78195,0.02761
7203.85320,0.02640
7201.92446,0.02666
7199.99572,0.02649
7198.06698,0.02297
7196.13823,0.01992
7194.20949,0.02166
7192.28075,0.02522
7190.35201,0.02611
7188.42326,0.02377
7186.49452,0.02176
7184.56578,0.02214
7182.63704,0.02476
7180.70829,0.02724
7178.77955,0.02750
7176.85081,0.02603
7174.92207,0.02374
7172.99332,0.02043
7171.06458,0.01799
7169.13584,0.01788
7167.20710,0.01984
7165.27835,0.02058
7163.34961,0.01933
7161.42087,0.02077
7159.49213,0.02752
7157.56338,0.03276
7155.63464,0.03097
7153.70590,0.02546
7151.77716,0.02150
7149.84841,0.02158
7147.91967,0.02507
7145.99093,0.02744
7144.06219,0.02793
7142.13344,0.02733
7140.20470,0.02522
7138.27596,0.02393
7136.34722,0.02357
7134.41847,0.02232
7132.48973,0.02225
7130.56099,0.02461
7128.63225,0.02717
7126.70351,0.02857
7124.77476,0.02950
7122.84602,0.02889
7120.91728,0.02586
7118.98854,0.02286
7117.05979,0.02174
7115.13105,0.02175
7113.20231,0.02135
7111.27357,0.01851
7109.34482,0.01525
7107.41608,0.01585
7105.48734,0.01992
7103.55860,0.02363
7101.62985,0.02309
7099.70111,0.01773
7097.77237,0.01516
7095.84363,0.01924
7093.91488,0.02375
7091.98614,0.02576
7090.05740,0.02850
7088.12866,0.03082
7086.19991,0.02997
7084.27117,0.02673
7082.34243,0.02495
7080.41369,0.02731
7078.48494,0.02984
7076.55620,0.02899
7074.62746,0.02628
7072.69872,0.02251
7070.76997,0.01994
7068.84123,0.02021
7066.91249,0.02221
7064.98375,0.02386
7063.05500,0.02318
7061.12626,0.02136
7059.19752,0.02161
7057.26878,0.02272
7055.34003,0.02253
7053.41129,0.02205
7051.48255,0.02370
7049.55381,0.02552
7047.62506,0.02316
7045.69632,0.01717
7043.76758,0.01457
7041.83884,0.01713
7039.91009,0.02158
7037.98135,0.02373
7036.05261,0.02419
7034.12387,0.02393
7032.19512,0.02254
7030.26638,0.02143
7028.33764,0.02361
7026.40890,0.02751
7024.48015,0.02744
7022.55141,0.02271
7020.62267,0.01878
7018.69393,0.01779
7016.76518,0.01873
7014.83644,0.02075
7012.90770,0.02383
7010.97896,0.02664
7009.05021,0.02580
7007.12147,0.02241
7005.19273,0.02189
7003.26399,0.02540
7001.33524,0.02893
6999.40650,0.02956
6997.47776,0.02958
6995.54902,0.02978
6993.62027,0.02892
6991.69153,0.02851
6989.76279,0.02742
6987.83405,0.02364
6985.90530,0.02018
6983.97656,0.01813
6982.04782,0.01723
6980.11908,0.01883
6978.19033,0.02289
6976.26159,0.02715
6974.33285,0.02760
6972.40411,0.02280
6970.47536,0.01832
6968.54662,0.01986
6966.61788,0.02504
6964.68914,0.02736
6962.76039,0.02577
6960.83165,0.02339
6958.90291,0.02289
6956.97417,0.02420
6955.04542,0.02647
6953.11668,0.02891
6951.18794,0.03050
6949.25920,0.02911
6947.33045,0.02634
6945.40171,0.02522
6943.47297,0.02454
6941.54423,0.02401
6939.61548,0.02499
6937.68674,0.02492
6935.75800,0.02197
6933.82926,0.01892
6931.90051,0.01903
6929.97177,0.02182
6928.04303,0.02504
6926.11429,0.02663
6924.18554,0.02557
6922.25680,0.02313
6920.32806,0.02176
6918.39932,0.02234
6916.47057,0.02311
6914.54183,0.02270
6912.61309,0.02271
6910.68435,0.02261
6908.75560,0.02182
6906.82686,0.02152
6904.89812,0.02267
6902.96938,0.02423
6901.04063,0.02537
6899.11189,0.02694
6897.18315,0.02872
6895.25441,0.02947
6893.32566,0.02924
6891.39692,0.02666
6889.46818,0.02235
6887.53944,0.02004
6885.61069,0.02062
6883.68195,0.02060
6881.75321,0.01949
6879.82447,0.01993
6877.89572,0.02259
6875.96698,0.02543
6874.03824,0.02740
6872.10950,0.02859
6870.18075,0.02780
6868.25201,0.02516
6866.32327,0.02309
6864.39453,0.02188
6862.46578,0.02096
6860.53704,0.02069
6858.60830,0.02206
6856.67956,0.02472
6854.75081,0.02728
6852.82207,0.02688
6850.89333,0.02241
6848.96459,0.01915
6847.03584,0.02120
6845.10710,0.02441
6843.17836,0.02470
6841.24962,0.02283
6839.32087,0.02084
6837.39213,0.01941
6835.46339,0.01841
6833.53465,0.01852
6831.60590,0.02186
6829.67716,0.02624
6827.74842,0.02676
6825.81968,0.02351
6823.89093,0.02113
6821.96219,0.02205
6820.03345,0.02402
6818.10471,0.02269
6816.17596,0.01917
6814.24722,0.01792
6812.31848,0.02015
6810.38974,0.02317
6808.46099,0.02607
6806.53225,0.02770
6804.60351,0.02528
6802.67477,0.02175
6800.74602,0.02246
6798.81728,0.02476
6796.88854,0.02528
6794.95980,0.02559
6793.03105,0.02652
6791.10231,0.02613
6789.17357,0.02425
6787.24483,0.02277
6785.31608,0.02235
6783.38734,0.02205
6781.45860,0.02157
6779.52986,0.02122
6777.60111,0.02255
6775.67237,0.02543
6773.74363,0.02724
6771.81489,0.02768
6769.88614,0.02770
6767.95740,0.02522
6766.02866,0.02202
6764.09992,0.02241
6762.17117,0.02506
6760.24243,0.02595
6758.31369,0.02580
6756.38495,0.02488
6754.45620,0.02261
6752.52746,0.02069
6750.59872,0.02005
6748.66998,0.01939
6746.74123,0.01932
6744.81249,0.02005
6742.88375,0.02111
6740.95501,0.02368
6739.02626,0.02645
6737.09752,0.02813
6735.16878,0.02898
6733.24004,0.02625
6731.31129,0.02211
6729.38255,0.02204
6727.45381,0.02418
6725.52507,0.02330
6723.59632,0.02019
6721.66758,0.01964
6719.73884,0.02321
6717.81010,0.02619
6715.88135,0.02634
6713.95261,0.02617
6712.02387,0.02678
6710.09513,0.02560
6708.16638,0.02289
6706.23764,0.02197
6704.30890,0.02462
6702.38016,0.02775
6700.45141,0.02808
6698.52267,0.02673
6696.59393,0.02462
6694.66519,0.02194
6692.73644,0.02130
6690.80770,0.02276
6688.87896,0.02386
6686.95022,0.02346
6685.02147,0.02191
6683.09273,0.02125
6681.16399,0.02287
6679.23525,0.02463
6677.30650,0.02487
6675.37776,0.02544
6673.44902,0.02727
6671.52028,0.02788
6669.59153,0.02651
6667.66279,0.02457
6665.73405,0.02340
6663.80531,0.02371
6661.87656,0.02469
6659.94782,0.02552
6658.01908,0.02654
6656.09034,0.02595
6654.16159,0.02347
6652.23285,0.02223
6650.30411,0.02210
6648.37537,0.02063
6646.44662,0.02011
6644.51788,0.02231
6642.58914,0.02407
6640.66040,0.02245
6638.73165,0.01918
6636.80291,0.01814
6634.87417,0.01960
6632.94543,0.02048
6631.01668,0.02141
6629.08794,0.02303
6627.15920,0.02333
6625.23046,0.02203
6623.30171,0.02082
6621.37297,0.02136
6619.44423,0.02392
6617.51549,0.02576
6615.58674,0.02529
6613.65800,0.02436
6611.72926,0.02358
6609.80052,0.02295
6607.87177,0.02310
6605.94303,0.02253
6604.01429,0.02170
6602.08555,0.02292
6600.15680,0.02521
6598.22806,0.02587
6596.29932,0.02527
6594.37058,0.02535
6592.44183,0.02564
6590.51309,0.02505
6588.58435,0.02438
6586.65561,0.02456
6584.72686,0.02505
6582.79812,0.02433
6580.86938,0.02281
6578.94064,0.02128
6577.01190,0.02027
6575.08315,0.02017
6573.15441,0.02097
6571.22567,0.02232
6569.29693,0.02273
6567.36818,0.02155
6565.43944,0.02150
6563.51070,0.02360
6561.58196,0.02568
6559.65321,0.02565
6557.72447,0.02323
6555.79573,0.02020
6553.86699,0.01959
6551.93824,0.02185
6550.00950,0.02358
6548.08076,0.02314
6546.15202,0.02407
6544.22327,0.02705
6542.29453,0.02765
6540.36579,0.02541
6538.43705,0.02450
6536.50830,0.02497
6534.57956,0.02385
6532.65082,0.02157
6530.72208,0.02014
6528.79333,0.02021
6526.86459,0.02128
6524.93585,0.02110
6523.00711,0.01963
6521.07836,0.01847
6519.14962,0.01887
6517.22088,0.02103
6515.29214,0.02324
6513.36339,0.02295
6511.43465,0.02007
6509.50591,0.01730
6507.57717,0.01704
6505.64842,0.01761
6503.71968,0.01754
6501.79094,0.01865
6499.86220,0.02152
6497.93345,0.02300
6496.00471,0.02234
6494.07597,0.02130
6492.14723,0.02122
6490.21848,0.02159
6488.28974,0.02109
6486.36100,0.02062
6484.43226,0.02180
6482.50351,0.02327
6480.57477,0.02343
6478.64603,0.02305
6476.71729,0.02330
6474.78854,0.02258
6472.85980,0.01979
6470.93106,0.01785
6469.00232,0.01915
6467.07357,0.02222
6465.14483,0.02407
6463.21609,0.02255
6461.28735,0.02000
6459.35860,0.02045
6457.42986,0.02279
6455.50112,0.02456
6453.57238,0.02573
6451.64363,0.02522
6449.71489,0.02360
6447.78615,0.02362
6445.85741,0.02512
6443.92866,0.02615
6441.99992,0.02604
6440.07118,0.02485
6438.14244,0.02308
6436.21369,0.02164
6434.28495,0.02190
6432.35621,0.02442
6430.42747,0.02660
6428.49872,0.02601
6426.56998,0.02443
6424.64124,0.02421
6422.71250,0.02543
6420.78375,0.02589
6418.85501,0.02356
6416.92627,0.02028
6414.99753,0.01962
6413.06878,0.02098
6411.14004,0.02210
6409.21130,0.02258
6407.28256,0.02325
6405.35381,0.02374
6403.42507,0.02397
6401.49633,0.02363
6399.56759,0.02381
6397.63884,0.02445
6395.71010,0.02337
6393.78136,0.02084
6391.85262,0.01867
6389.92387,0.01849
6387.99513,0.02055
6386.06639,0.02289
6384.13765,0.02361
6382.20890,0.02205
6380.28016,0.02078
6378.35142,0.02223
6376.42268,0.02462
6374.49393,0.02556
6372.56519,0.02490
6370.63645,0.02394
6368.70771,0.02355
6366.77896,0.02288
6364.85022,0.02155
6362.92148,0.02131
6360.99274,0.02303
6359.06399,0.02411
6357.13525,0.02318
6355.20651,0.02220
6353.27777,0.02146
6351.34902,0.01949
6349.42028,0.01794
6347.49154,0.01904
6345.56280,0.02151
6343.63405,0.02316
6341.70531,0.02331
6339.77657,0.02287
6337.84783,0.02313
6335.91908,0.02276
6333.99034,0.02232
6332.06160,0.02281
6330.13286,0.02267
6328.20411,0.02230
6326.27537,0.02356
6324.34663,0.02483
6322.41789,0.02379
6320.48914,0.02102
6318.56040,0.01922
6316.63166,0.02008
6314.70292,0.02168
6312.77417,0.02173
6310.84543,0.02177
6308.91669,0.02227
6306.98795,0.02223
6305.05920,0.02215
6303.13046,0.02220
6301.20172,0.02207
6299.27298,0.02227
6297.34423,0.02229
6295.41549,0.02143
6293.48675,0.02029
6291.55801,0.01997
6289.62926,0.02083
6287.70052,0.02153
6285.77178,0.02085
6283.84304,0.02032
6281.91429,0.02158
6279.98555,0.02308
6278.05681,0.02197
6276.12807,0.01938
6274.19932,0.01896
6272.27058,0.02072
6270.34184,0.02146
6268.41310,0.02043
6266.48435,0.01973
6264.55561,0.02019
6262.62687,0.02126
6260.69813,0.02278
6258.76938,0.02360
6256.84064,0.02320
6254.91190,0.02304
6252.98316,0.02326
6251.05441,0.02274
6249.12567,0.02237
6247.19693,0.02283
6245.26819,0.02200
6243.33944,0.01964
6241.41070,0.01972
6239.48196,0.02331
6237.55322,0.02612
6235.62447,0.02573
6233.69573,0.02388
6231.76699,0.02204
6229.83825,0.02180
6227.90950,0.02283
6225.98076,0.02274
6224.05202,0.02173
6222.12328,0.02073
6220.19453,0.01949
6218.26579,0.01891
6216.33705,0.01982
6214.40831,0.02168
6212.47956,0.02296
6210.55082,0.02307
6208.62208,0.02336
6206.69334,0.02418
6204.76459,0.02352
6202.83585,0.02131
6200.90711,0.01950
6198.97837,0.01878
6197.04962,0.01891
6195.12088,0.01960
6193.19214,0.02108
6191.26340,0.02304
6189.33465,0.02354
6187.40591,0.02275
6185.47717,0.02253
6183.54843,0.02237
6181.61968,0.02159
6179.69094,0.02153
6177.76220,0.02258
6175.83346,0.02365
6173.90471,0.02393
6171.97597,0.02448
6170.04723,0.02557
6168.11849,0.02518
6166.18974,0.02326
6164.26100,0.02240
6162.33226,0.02399
6160.40352,0.02623
6158.47477,0.02604
6156.54603,0.02387
6154.61729,0.02225
6152.68855,0.02229
6150.75980,0.02318
6148.83106,0.02317
6146.90232,0.02193
6144.97358,0.02135
6143.04483,0.02188
6141.11609,0.02180
6139.18735,0.02066
6137.25861,0.01981
6135.32986,0.01956
6133.40112,0.01958
6131.47238,0.01995
6129.54364,0.02046
6127.61489,0.02061
6125.68615,0.02020
6123.75741,0.01962
6121.82867,0.01932
6119.89992,0.01873
6117.97118,0.01772
6116.04244,0.01754
6114.11370,0.01871
6112.18495,0.02007
6110.25621,0.02061
6108.32747,0.02060
6106.39873,0.02179
6104.46998,0.02422
6102.54124,0.02561
6100.61250,0.02496
6098.68376,0.02401
6096.75501,0.02372
6094.82627,0.02305
6092.89753,0.02127
6090.96879,0.01978
6089.04004,0.02009
6087.11130,0.02140
6085.18256,0.02172
6083.25382,0.02160
6081.32507,0.02211
6079.39633,0.02210
6077.46759,0.02140
6075.53885,0.02109
6073.61010,0.02092
6071.68136,0.02094
6069.75262,0.02091
6067.82388,0.02044
6065.89513,0.02073
6063.96639,0.02223
6062.03765,0.02350
6060.10891,0.02379
6058.18016,0.02388
6056.25142,0.02452
6054.32268,0.02515
6052.39394,0.02477
6050.46519,0.02337
6048.53645,0.02226
6046.60771,0.02193
6044.67897,0.02202
6042.75022,0.02254
6040.82148,0.02295
6038.89274,0.02254
6036.96400,0.02143
6035.03525,0.02066
6033.10651,0.02147
6031.17777,0.02318
6029.24903,0.02427
6027.32029,0.02473
6025.39154,0.02515
6023.46280,0.02454
6021.53406,0.02252
6019.60532,0.02095
6017.67657,0.02081
6015.74783,0.02093
6013.81909,0.02133
6011.89035,0.02265
6009.96160,0.02368
6008.03286,0.02372
6006.10412,0.02352
6004.17538,0.02220
6002.24663,0.01984
6000.31789,0.01946
5998.38915,0.02137
5996.46041,0.02287
5994.53166,0.02312
5992.60292,0.02249
5990.67418,0.02128
5988.74544,0.01970
5986.81669,0.01850
5984.88795,0.01847
5982.95921,0.01969
5981.03047,0.02162
5979.10172,0.02281
5977.17298,0.02266
5975.24424,0.02268
5973.31550,0.02349
5971.38675,0.02374
5969.45801,0.02274
5967.52927,0.02129
5965.60053,0.02023
5963.67178,0.01992
5961.74304,0.01988
5959.81430,0.01988
5957.88556,0.02028
5955.95681,0.02140
5954.02807,0.02313
5952.09933,0.02441
5950.17059,0.02396
5948.24184,0.02210
5946.31310,0.02057
5944.38436,0.02041
5942.45562,0.02040
5940.52687,0.02033
5938.59813,0.02102
5936.66939,0.02192
5934.74065,0.02177
5932.81190,0.02057
5930.88316,0.01979
5928.95442,0.02015
5927.02568,0.02079
5925.09693,0.02169
5923.16819,0.02249
5921.23945,0.02169
5919.31071,0.01937
5917.38196,0.01754
5915.45322,0.01733
5913.52448,0.01845
5911.59574,0.01942
5909.66699,0.01981
5907.73825,0.02041
5905.80951,0.02095
5903.88077,0.02128
5901.95202,0.02165
5900.02328,0.02172
5898.09454,0.02150
5896.16580,0.02156
5894.23705,0.02212
5892.30831,0.02199
5890.37957,0.02113
5888.45083,0.02109
5886.52208,0.02165
5884.59334,0.02150
5882.66460,0.02054
5880.73586,0.01963
5878.80711,0.01957
5876.87837,0.02042
5874.94963,0.02158
5873.02089,0.02246
5871.09214,0.02244
5869.16340,0.02138
5867.23466,0.02081
5865.30592,0.02118
5863.37717,0.02131
5861.44843,0.02127
5859.51969,0.02156
5857.59095,0.02161
5855.66220,0.02170
5853.73346,0.02225
5851.80472,0.02262
5849.87598,0.02205
5847.94723,0.02124
5846.01849,0.02147
5844.08975,0.02213
5842.16101,0.02182
5840.23226,0.02128
5838.30352,0.02174
5836.37478,0.02252
5834.44604,0.02236
5832.51729,0.02156
5830.58855,0.02089
5828.65981,0.02029
5826.73107,0.02027
5824.80232,0.02106
5822.87358,0.02142
5820.94484,0.02092
5819.01610,0.02026
5817.08735,0.01998
5815.15861,0.02021
5813.22987,0.02072
5811.30113,0.02124
5809.37238,0.02160
5807.44364,0.02126
5805.51490,0.02071
5803.58616,0.02097
5801.65741,0.02130
5799.72867,0.02097
5797.79993,0.02056
5795.87119,0.02053
5793.94244,0.02119
5792.01370,0.02206
5790.08496,0.02257
5788.15622,0.02233
5786.22747,0.02147
5784.29873,0.02121
5782.36999,0.02136
5780.44125,0.02071
5778.51250,0.01970
5776.58376,0.01965
5774.65502,0.02116
5772.72628,0.02266
5770.79753,0.02245
5768.86879,0.02185
5766.94005,0.02272
5765.01131,0.02444
5763.08256,0.02518
5761.15382,0.02425
5759.22508,0.02281
5757.29634,0.02177
5755.36759,0.02070
5753.43885,0.01975
5751.51011,0.01997
5749.58137,0.02093
5747.65262,0.02179
5745.72388,0.02275
5743.79514,0.02347
5741.86640,0.02329
5739.93765,0.02279
5738.00891,0.02274
5736.08017,0.02281
5734.15143,0.02224
5732.22268,0.02173
5730.29394,0.02230
5728.36520,0.02351
5726.43646,0.02456
5724.50771,0.02480
5722.57897,0.02384
5720.65023,0.02289
5718.72149,0.02297
5716.79274,0.02369
5714.86400,0.02404
5712.93526,0.02307
5711.00652,0.02165
5709.07777,0.02154
5707.14903,0.02206
5705.22029,0.02201
5703.29155,0.02218
5701.36280,0.02283
5699.43406,0.02271
5697.50532,0.02177
5695.57658,0.02110
5693.64783,0.02135
5691.71909,0.02213
5689.79035,0.02247
5687.86161,0.02222
5685.93286,0.02229
5684.00412,0.02280
5682.07538,0.02346
5680.14664,0.02405
5678.21789,0.02375
5676.28915,0.02283
5674.36041,0.02266
5672.43167,0.02313
5670.50292,0.02330
5668.57418,0.02296
5666.64544,0.02217
5664.71670,0.02148
5662.78795,0.02129
5660.85921,0.02092
5658.93047,0.02040
5657.00173,0.02044
5655.07298,0.02077
5653.14424,0.02118
5651.21550,0.02199
5649.28676,0.02248
5647.35801,0.02237
5645.42927,0.02229
5643.50053,0.02194
5641.57179,0.02122
5639.64304,0.02103
5637.71430,0.02153
5635.78556,0.02227
5633.85682,0.02279
5631.92807,0.02264
5629.99933,0.02182
5628.07059,0.02170
5626.14185,0.02295
5624.21310,0.02414
5622.28436,0.02432
5620.35562,0.02380
5618.42688,0.02295
5616.49813,0.02244
5614.56939,0.02213
5612.64065,0.02128
5610.71191,0.02040
5608.78316,0.02061
5606.85442,0.02177
5604.92568,0.02265
5602.99694,0.02253
5601.06819,0.02258
5599.13945,0.02323
5597.21071,0.02340
5595.28197,0.02344
5593.35322,0.02374
5591.42448,0.02323
5589.49574,0.02238
5587.56700,0.02200
5585.63825,0.02143
5583.70951,0.02084
5581.78077,0.02098
5579.85203,0.02140
5577.92328,0.02141
5575.99454,0.02077
5574.06580,0.02038
5572.13706,0.02127
5570.20831,0.02227
5568.27957,0.02215
5566.35083,0.02177
5564.42209,0.02127
5562.49334,0.02052
5560.56460,0.02020
5558.63586,0.02047
5556.70712,0.02126
5554.77837,0.02206
5552.84963,0.02210
5550.92089,0.02198
5548.99215,0.02197
5547.06340,0.02174
5545.13466,0.02153
5543.20592,0.02110
5541.27718,0.02033
5539.34843,0.02015
5537.41969,0.02073
5535.49095,0.02150
5533.56221,0.02214
5531.63346,0.02248
5529.70472,0.02284
5527.77598,0.02346
5525.84724,0.02356
5523.91849,0.02263
5521.98975,0.02159
5520.06101,0.02145
5518.13227,0.02162
5516.20352,0.02139
5514.27478,0.02102
5512.34604,0.02066
5510.41730,0.02058
5508.48855,0.02138
5506.55981,0.02250
5504.63107,0.02335
5502.70233,0.02433
5500.77358,0.02479
5498.84484,0.02375
5496.91610,0.02198
5494.98736,0.02078
5493.05861,0.02067
5491.12987,0.02139
5489.20113,0.02220
5487.27239,0.02247
5485.34365,0.02225
5483.41490,0.02183
5481.48616,0.02154
5479.55742,0.02165
5477.62868,0.02196
5475.69993,0.02236
5473.77119,0.02307
5471.84245,0.02370
5469.91371,0.02386
5467.98496,0.02332
5466.05622,0.02220
5464.12748,0.02173
5462.19874,0.02218
5460.26999,0.02199
5458.34125,0.02129
5456.41251,0.02145
5454.48377,0.02211
5452.55502,0.02263
5450.62628,0.02313
5448.69754,0.02327
5446.76880,0.02274
5444.84005,0.02202
5442.91131,0.02192
5440.98257,0.02257
5439.05383,0.02324
5437.12508,0.02283
5435.19634,0.02175
5433.26760,0.02184
5431.33886,0.02314
5429.41011,0.02387
5427.48137,0.02355
5425.55263,0.02273
5423.62389,0.02158
5421.69514,0.02087
5419.76640,0.02122
5417.83766,0.02165
5415.90892,0.02148
5413.98017,0.02124
5412.05143,0.02158
5410.12269,0.02228
5408.19395,0.02320
5406.26520,0.02387
5404.33646,0.02340
5402.40772,0.02233
5400.47898,0.02186
5398.55023,0.02231
5396.62149,0.02314
5394.69275,0.02319
5392.76401,0.02269
5390.83526,0.02275
5388.90652,0.02298
5386.97778,0.02265
5385.04904,0.02189
5383.12029,0.02069
5381.19155,0.01955
5379.26281,0.01961
5377.33407,0.02029
5375.40532,0.02031
5373.47658,0.02067
5371.54784,0.02214
5369.61910,0.02312
5367.69035,0.02265
5365.76161,0.02198
5363.83287,0.02217
5361.90413,0.02287
5359.97538,0.02309
5358.04664,0.02261
5356.11790,0.02226
5354.18916,0.02275
5352.26041,0.02326
5350.33167,0.02278
5348.40293,0.02209
5346.47419,0.02198
5344.54544,0.02193
5342.61670,0.02195
5340.68796,0.02225
5338.75922,0.02260
5336.83047,0.02269
5334.90173,0.02245
5332.97299,0.02207
5331.04425,0.02156
5329.11550,0.02128
5327.18676,0.02136
5325.25802,0.02154
5323.32928,0.02214
5321.40053,0.02259
5319.47179,0.02261
5317.54305,0.02310
5315.61431,0.02370
5313.68556,0.02353
5311.75682,0.02278
5309.82808,0.02194
5307.89934,0.02149
5305.97059,0.02178
5304.04185,0.02244
5302.11311,0.02294
5300.18437,0.02359
5298.25562,0.02443
5296.32688,0.02461
5294.39814,0.02371
5292.46940,0.02228
5290.54065,0.02086
5288.61191,0.02030
5286.68317,0.02114
5284.75443,0.02232
5282.82568,0.02263
5280.89694,0.02248
5278.96820,0.02278
5277.03946,0.02337
5275.11071,0.02363
5273.18197,0.02351
5271.25323,0.02311
5269.32449,0.02266
5267.39574,0.02249
5265.46700,0.02242
5263.53826,0.02210
5261.60952,0.02202
5259.68077,0.02265
5257.75203,0.02300
5255.82329,0.02226
5253.89455,0.02135
5251.96580,0.02075
5250.03706,0.02043
5248.10832,0.02069
5246.17958,0.02104
5244.25083,0.02068
5242.32209,0.02015
5240.39335,0.02022
5238.46461,0.02098
5236.53586,0.02210
5234.60712,0.02295
5232.67838,0.02309
5230.74964,0.02279
5228.82089,0.02246
5226.89215,0.02216
5224.96341,0.02169
5223.03467,0.02117
5221.10592,0.02101
5219.17718,0.02124
5217.24844,0.02165
5215.31970,0.02201
5213.39095,0.02250
5211.46221,0.02350
5209.53347,0.02476
5207.60473,0.02508
5205.67598,0.02374
5203.74724,0.02216
5201.81850,0.02190
5199.88976,0.02227
5197.96101,0.02226
5196.03227,0.02217
5194.10353,0.02223
5192.17479,0.02217
5190.24604,0.02181
5188.31730,0.02148
5186.38856,0.02130
5184.45982,0.02062
5182.53107,0.01986
5180.60233,0.01995
5178.67359,0.02049
5176.74485,0.02093
5174.81610,0.02120
5172.88736,0.02147
5170.95862,0.02202
5169.02988,0.02263
5167.10113,0.02297
5165.17239,0.02303
5163.24365,0.02280
5161.31491,0.02234
5159.38616,0.02194
5157.45742,0.02211
5155.52868,0.02264
5153.59994,0.02245
5151.67119,0.02156
5149.74245,0.02128
5147.81371,0.02202
5145.88497,0.02298
5143.95622,0.02334
5142.02748,0.02306
5140.09874,0.02265
5138.17000,0.02288
5136.24125,0.02384
5134.31251,0.02442
5132.38377,0.02399
5130.45503,0.02295
5128.52628,0.02194
5126.59754,0.02199
5124.66880,0.02302
5122.74006,0.02363
5120.81131,0.02317
5118.88257,0.02225
5116.95383,0.02161
5115.02509,0.02160
5113.09634,0.02188
5111.16760,0.02195
5109.23886,0.02161
5107.31012,0.02133
5105.38137,0.02169
5103.45263,0.02225
5101.52389,0.02238
5099.59515,0.02217
5097.66640,0.02213
5095.73766,0.02252
5093.80892,0.02293
5091.88018,0.02312
5089.95143,0.02319
5088.02269,0.02303
5086.09395,0.02268
5084.16521,0.02227
5082.23646,0.02198
5080.30772,0.02199
5078.37898,0.02217
5076.45024,0.02213
5074.52149,0.02171
5072.59275,0.02144
5070.66401,0.02172
5068.73527,0.02232
5066.80652,0.02293
5064.87778,0.02337
5062.94904,0.02320
5061.02030,0.02238
5059.09155,0.02178
5057.16281,0.02180
5055.23407,0.02201
5053.30533,0.02208
5051.37658,0.02207
5049.44784,0.02247
5047.51910,0.02286
5045.59036,0.02263
5043.66161,0.02244
5041.73287,0.02277
5039.80413,0.02300
5037.87539,0.02271
5035.94664,0.02232
5034.01790,0.02237
5032.08916,0.02251
5030.16042,0.02240
5028.23167,0.02243
5026.30293,0.02258
5024.37419,0.02236
5022.44545,0.02193
5020.51670,0.02212
5018.58796,0.02291
5016.65922,0.02322
5014.73048,0.02290
5012.80173,0.02281
5010.87299,0.02302
5008.94425,0.02310
5007.01551,0.02322
5005.08676,0.02322
5003.15802,0.02276
5001.22928,0.02248
4999.30054,0.02291
4997.37179,0.02337
4995.44305,0.02302
4993.51431,0.02215
4991.58557,0.02174
4989.65682,0.02187
4987.72808,0.02233
4985.79934,0.02333
4983.87060,0.02445
4981.94185,0.02468
4980.01311,0.02397
4978.08437,0.02348
4976.15563,0.02364
4974.22688,0.02371
4972.29814,0.02325
4970.36940,0.02275
4968.44066,0.02258
4966.51191,0.02262
4964.58317,0.02286
4962.65443,0.02292
4960.72569,0.02251
4958.79694,0.02219
4956.86820,0.02204
4954.93946,0.02188
4953.01072,0.02210
4951.08197,0.02255
4949.15323,0.02243
4947.22449,0.02165
4945.29575,0.02101
4943.36700,0.02115
4941.43826,0.02198
4939.50952,0.02291
4937.58078,0.02328
4935.65204,0.02297
4933.72329,0.02241
4931.79455,0.02199
4929.86581,0.02203
4927.93707,0.02251
4926.00832,0.02293
4924.07958,0.02304
4922.15084,0.02316
4920.22210,0.02306
4918.29335,0.02245
4916.36461,0.02211
4914.43587,0.02241
4912.50713,0.02262
4910.57838,0.02261
4908.64964,0.02261
4906.72090,0.02259
4904.79216,0.02273
4902.86341,0.02289
4900.93467,0.02258
4899.00593,0.02175
4897.07719,0.02111
4895.14844,0.02130
4893.21970,0.02222
4891.29096,0.02333
4889.36222,0.02385
4887.43347,0.02347
4885.50473,0.02277
4883.57599,0.02229
4881.64725,0.02199
4879.71850,0.02210
4877.78976,0.02272
4875.86102,0.02313
4873.93228,0.02279
4872.00353,0.02220
4870.07479,0.02189
4868.14605,0.02189
4866.21731,0.02206
4864.28856,0.02228
4862.35982,0.02244
4860.43108,0.02252
4858.50234,0.02255
4856.57359,0.02252
4854.64485,0.02228
4852.71611,0.02193
4850.78737,0.02183
4848.85862,0.02213
4846.92988,0.02256
4845.00114,0.02286
4843.07240,0.02300
4841.14365,0.02297
4839.21491,0.02306
4837.28617,0.02323
4835.35743,0.02292
4833.42868,0.02239
4831.49994,0.02219
4829.57120,0.02230
4827.64246,0.02264
4825.71371,0.02300
4823.78497,0.02315
4821.85623,0.02317
4819.92749,0.02307
4817.99874,0.02290
4816.07000,0.02289
4814.14126,0.02291
4812.21252,0.02287
4810.28377,0.02293
4808.35503,0.02290
4806.42629,0.02261
4804.49755,0.02209
4802.56880,0.02139
4800.64006,0.02084
4798.71132,0.02085
4796.78258,0.02135
4794.85383,0.02230
4792.92509,0.02338
4790.99635,0.02352
4789.06761,0.02276
4787.13886,0.02247
4785.21012,0.02296
4783.28138,0.02348
4781.35264,0.02346
4779.42389,0.02306
4777.49515,0.02287
4775.56641,0.02288
4773.63767,0.02301
4771.70892,0.02341
4769.78018,0.02357
4767.85144,0.02310
4765.92270,0.02252
4763.99395,0.02220
4762.06521,0.02207
4760.13647,0.02237
4758.20773,0.02293
4756.27898,0.02304
4754.35024,0.02284
4752.42150,0.02313
4750.49276,0.02370
4748.56401,0.02345
4746.63527,0.02219
4744.70653,0.02092
4742.77779,0.02061
4740.84904,0.02133
4738.92030,0.02251
4736.99156,0.02333
4735.06282,0.02336
4733.13407,0.02306
4731.20533,0.02284
4729.27659,0.02276
4727.34785,0.02278
4725.41910,0.02267
4723.49036,0.02232
4721.56162,0.02209
4719.63288,0.02206
4717.70413,0.02206
4715.77539,0.02216
4713.84665,0.02235
4711.91791,0.02226
4709.98916,0.02209
4708.06042,0.02218
4706.13168,0.02214
4704.20294,0.02167
4702.27419,0.02131
4700.34545,0.02176
4698.41671,0.02268
4696.48797,0.02317
4694.55922,0.02307
4692.63048,0.02268
4690.70174,0.02232
4688.77300,0.02233
4686.84425,0.02241
4684.91551,0.02223
4682.98677,0.02216
4681.05803,0.02222
4679.12928,0.02222
4677.20054,0.02237
4675.27180,0.02246
4673.34306,0.02235
4671.41431,0.02230
4669.48557,0.02194
4667.55683,0.02143
4665.62809,0.02153
4663.69934,0.02196
4661.77060,0.02231
4659.84186,0.02275
4657.91312,0.02294
4655.98437,0.02257
4654.05563,0.02231
4652.12689,0.02252
4650.19815,0.02262
4648.26940,0.02228
4646.34066,0.02169
4644.41192,0.02159
4642.48318,0.02220
4640.55443,0.02236
4638.62569,0.02174
4636.69695,0.02135
4634.76821,0.02174
4632.83946,0.02257
4630.91072,0.02312
4628.98198,0.02296
4627.05324,0.02261
4625.12449,0.02260
4623.19575,0.02277
4621.26701,0.02286
4619.33827,0.02265
4617.40952,0.02227
4615.48078,0.02198
4613.55204,0.02185
4611.62330,0.02178
4609.69455,0.02153
4607.76581,0.02137
4605.83707,0.02176
4603.90833,0.02223
4601.97958,0.02233
4600.05084,0.02218
4598.12210,0.02217
4596.19336,0.02233
4594.26461,0.02227
4592.33587,0.02196
4590.40713,0.02178
4588.47839,0.02184
4586.54964,0.02215
4584.62090,0.02278
4582.69216,0.02346
4580.76342,0.02356
4578.83467,0.02288
4576.90593,0.02194
4574.97719,0.02140
4573.04845,0.02145
4571.11970,0.02201
4569.19096,0.02261
4567.26222,0.02254
4565.33348,0.02228
4563.40473,0.02266
4561.47599,0.02316
4559.54725,0.02314
4557.61851,0.02301
4555.68976,0.02307
4553.76102,0.02320
4551.83228,0.02323
4549.90354,0.02326
4547.97479,0.02336
4546.04605,0.02327
4544.11731,0.02263
4542.18857,0.02175
4540.25982,0.02150
4538.33108,0.02191
4536.40234,0.02226
4534.47360,0.02233
4532.54485,0.02225
4530.61611,0.02203
4528.68737,0.02192
4526.75863,0.02203
4524.82988,0.02213
4522.90114,0.02214
4520.97240,0.02228
4519.04366,0.02263
4517.11491,0.02292
4515.18617,0.02264
4513.25743,0.02197
4511.32869,0.02162
4509.39994,0.02169
4507.47120,0.02191
4505.54246,0.02220
4503.61372,0.02263
4501.68497,0.02306
4499.75623,0.02313
4497.82749,0.02298
4495.89875,0.02293
4493.97000,0.02268
4492.04126,0.02216
4490.11252,0.02194
4488.18378,0.02229
4486.25503,0.02269
4484.32629,0.02257
4482.39755,0.02228
4480.46881,0.02238
4478.54006,0.02253
4476.61132,0.02236
4474.68258,0.02232
4472.75384,0.02250
4470.82509,0.02282
4468.89635,0.02331
4466.96761,0.02341
4465.03887,0.02290
4463.11012,0.02258
4461.18138,0.02271
4459.25264,0.02257
4457.32390,0.02217
4455.39515,0.02213
4453.46641,0.02244
4451.53767,0.02288
4449.60893,0.02322
4447.68018,0.02313
4445.75144,0.02284
4443.82270,0.02279
4441.89396,0.02282
4439.96521,0.02263
4438.03647,0.02248
4436.10773,0.02284
4434.17899,0.02330
4432.25024,0.02311
4430.32150,0.02236
4428.39276,0.02169
4426.46402,0.02156
4424.53527,0.02203
4422.60653,0.02274
4420.67779,0.02308
4418.74905,0.02290
4416.82030,0.02248
4414.89156,0.02221
4412.96282,0.02234
4411.03408,0.02259
4409.10533,0.02262
4407.17659,0.02249
4405.24785,0.02232
4403.31911,0.02224
4401.39036,0.02236
4399.46162,0.02248
4397.53288,0.02249
4395.60414,0.02255
4393.67539,0.02258
4391.74665,0.02244
4389.81791,0.02225
4387.88917,0.02190
4385.96043,0.02141
4384.03168,0.02123
4382.10294,0.02158
4380.17420,0.02218
4378.24546,0.02260
4376.31671,0.02256
4374.38797,0.02218
4372.45923,0.02178
4370.53049,0.02163
4368.60174,0.02194
4366.67300,0.02246
4364.74426,0.02270
4362.81552,0.02245
4360.88677,0.02190
4358.95803,0.02156
4357.02929,0.02170
4355.10055,0.02203
4353.17180,0.02223
4351.24306,0.02225
4349.31432,0.02224
4347.38558,0.02238
4345.45683,0.02238
4343.52809,0.02211
4341.59935,0.02197
4339.67061,0.02201
4337.74186,0.02192
4335.81312,0.02173
4333.88438,0.02169
4331.95564,0.02168
4330.02689,0.02155
4328.09815,0.02163
4326.16941,0.02216
4324.24067,0.02277
4322.31192,0.02313
4320.38318,0.02312
4318.45444,0.02285
4316.52570,0.02268
4314.59695,0.02254
4312.66821,0.02228
4310.73947,0.02236
4308.81073,0.02283
4306.88198,0.02305
4304.95324,0.02275
4303.02450,0.02232
4301.09576,0.02208
4299.16701,0.02225
4297.23827,0.02297
4295.30953,0.02349
4293.38079,0.02304
4291.45204,0.02234
4289.52330,0.02230
4287.59456,0.02261
4285.66582,0.02268
4283.73707,0.02254
4281.80833,0.02262
4279.87959,0.02310
4277.95085,0.02326
4276.02210,0.02285
4274.09336,0.02254
4272.16462,0.02236
4270.23588,0.02217
4268.30713,0.02213
4266.37839,0.02207
4264.44965,0.02199
4262.52091,0.02210
4260.59216,0.02231
4258.66342,0.02246
4256.73468,0.02255
4254.80594,0.02259
4252.87719,0.02260
4250.94845,0.02266
4249.01971,0.02264
4247.09097,0.02234
4245.16222,0.02212
4243.23348,0.02232
4241.30474,0.02246
4239.37600,0.02215
4237.44725,0.02207
4235.51851,0.02262
4233.58977,0.02306
4231.66103,0.02291
4229.73228,0.02272
4227.80354,0.02282
4225.87480,0.02289
4223.94606,0.02267
4222.01731,0.02219
4220.08857,0.02190
4218.15983,0.02222
4216.23109,0.02283
4214.30234,0.02303
4212.37360,0.02292
4210.44486,0.02287
4208.51612,0.02273
4206.58737,0.02259
4204.65863,0.02282
4202.72989,0.02309
4200.80115,0.02299
4198.87240,0.02272
4196.94366,0.02273
4195.01492,0.02285
4193.08618,0.02273
4191.15743,0.02262
4189.22869,0.02281
4187.29995,0.02297
4185.37121,0.02272
4183.44246,0.02252
4181.51372,0.02287
4179.58498,0.02328
4177.65624,0.02338
4175.72749,0.02337
4173.79875,0.02334
4171.87001,0.02337
4169.94127,0.02335
4168.01252,0.02286
4166.08378,0.02224
4164.15504,0.02238
4162.22630,0.02315
4160.29755,0.02348
4158.36881,0.02307
4156.44007,0.02263
4154.51133,0.02255
4152.58258,0.02261
4150.65384,0.02264
4148.72510,0.02251
4146.79636,0.02216
4144.86761,0.02194
4142.93887,0.02215
4141.01013,0.02266
4139.08139,0.02305
4137.15264,0.02297
4135.22390,0.02276
4133.29516,0.02273
4131.36642,0.02274
4129.43767,0.02291
4127.50893,0.02307
4125.58019,0.02288
4123.65145,0.02272
4121.72270,0.02292
4119.79396,0.02309
4117.86522,0.02279
4115.93648,0.02236
4114.00773,0.02224
4112.07899,0.02229
4110.15025,0.02251
4108.22151,0.02299
4106.29276,0.02320
4104.36402,0.02301
4102.43528,0.02291
4100.50654,0.02281
4098.57779,0.02253
4096.64905,0.02256
4094.72031,0.02280
4092.79157,0.02264
4090.86282,0.02233
4088.93408,0.02228
4087.00534,0.02221
4085.07660,0.02217
4083.14785,0.02226
4081.21911,0.02236
4079.29037,0.02257
4077.36163,0.02285
4075.43288,0.02289
4073.50414,0.02272
4071.57540,0.02268
4069.64666,0.02284
4067.71791,0.02291
4065.78917,0.02277
4063.86043,0.02245
4061.93169,0.02213
4060.00294,0.02208
4058.07420,0.02229
4056.14546,0.02256
4054.21672,0.02287
4052.28797,0.02311
4050.35923,0.02310
4048.43049,0.02287
4046.50175,0.02253
4044.57300,0.02236
4042.64426,0.02258
4040.71552,0.02284
4038.78678,0.02284
4036.85803,0.02276
4034.92929,0.02267
4033.00055,0.02250
4031.07181,0.02241
4029.14306,0.02250
4027.21432,0.02267
4025.28558,0.02270
4023.35684,0.02264
4021.42809,0.02263
4019.49935,0.02252
4017.57061,0.02239
4015.64187,0.02244
4013.71312,0.02263
4011.78438,0.02282
4009.85564,0.02290
4007.92690,0.02290
4005.99815,0.02283
4004.06941,0.02267
4002.14067,0.02262
4000.21193,0.02282
3998.28318,0.02304
3996.35444,0.02311
3994.42570,0.02308
3992.49696,0.02295
3990.56821,0.02278
3988.63947,0.02260
3986.71073,0.02235
3984.78199,0.02223
3982.85324,0.02230
3980.92450,0.02231
3978.99576,0.02240
3977.06702,0.02255
3975.13827,0.02257
3973.20953,0.02273
3971.28079,0.02314
3969.35205,0.02334
3967.42330,0.02311
3965.49456,0.02284
3963.56582,0.02283
3961.63708,0.02280
3959.70833,0.02255
3957.77959,0.02250
3955.85085,0.02276
3953.92211,0.02288
3951.99336,0.02267
3950.06462,0.02237
3948.13588,0.02223
3946.20714,0.02241
3944.27839,0.02271
3942.34965,0.02271
3940.42091,0.02248
3938.49217,0.02243
3936.56342,0.02272
3934.63468,0.02323
3932.70594,0.02368
3930.77720,0.02357
3928.84845,0.02303
3926.91971,0.02270
3924.99097,0.02256
3923.06223,0.02246
3921.13348,0.02248
3919.20474,0.02265
3917.27600,0.02308
3915.34726,0.02365
3913.41851,0.02384
3911.48977,0.02362
3909.56103,0.02340
3907.63229,0.02323
3905.70354,0.02291
3903.77480,0.02237
3901.84606,0.02181
3899.91732,0.02176
3897.98857,0.02232
3896.05983,0.02293
3894.13109,0.02311
3892.20235,0.02277
3890.27360,0.02234
3888.34486,0.02229
3886.41612,0.02250
3884.48738,0.02263
3882.55863,0.02271
3880.62989,0.02280
3878.70115,0.02271
3876.77241,0.02252
3874.84366,0.02249
3872.91492,0.02266
3870.98618,0.02281
3869.05744,0.02267
3867.12869,0.02241
3865.19995,0.02240
3863.27121,0.02280
3861.34247,0.02335
3859.41372,0.02377
3857.48498,0.02400
3855.55624,0.02373
3853.62750,0.02284
3851.69875,0.02223
3849.77001,0.02240
3847.84127,0.02285
3845.91253,0.02326
3843.98378,0.02353
3842.05504,0.02354
3840.12630,0.02332
3838.19756,0.02312
3836.26882,0.02306
3834.34007,0.02282
3832.41133,0.02248
3830.48259,0.02255
3828.55385,0.02288
3826.62510,0.02291
3824.69636,0.02273
3822.76762,0.02257
3820.83888,0.02239
3818.91013,0.02232
3816.98139,0.02241
3815.05265,0.02247
3813.12391,0.02253
3811.19516,0.02272
3809.26642,0.02313
3807.33768,0.02353
3805.40894,0.02346
3803.48019,0.02308
3801.55145,0.02282
3799.62271,0.02278
3797.69397,0.02283
3795.76522,0.02290
3793.83648,0.02293
3791.90774,0.02297
3789.97900,0.02299
3788.05025,0.02273
3786.12151,0.02246
3784.19277,0.02254
3782.26403,0.02275
3780.33528,0.02294
3778.40654,0.02306
3776.47780,0.02316
3774.54906,0.02326
3772.62031,0.02318
3770.69157,0.02288
3768.76283,0.02287
3766.83409,0.02312
3764.90534,0.02304
3762.97660,0.02276
3761.04786,0.02267
3759.11912,0.02269
3757.19037,0.02262
3755.26163,0.02240
3753.33289,0.02249
3751.40415,0.02305
3749.47540,0.02350
3747.54666,0.02342
3745.61792,0.02282
3743.68918,0.02219
3741.76043,0.02215
3739.83169,0.02249
3737.90295,0.02286
3735.97421,0.02298
3734.04546,0.02263
3732.11672,0.02228
3730.18798,0.02247
3728.25924,0.02288
3726.33049,0.02291
3724.40175,0.02250
3722.47301,0.02215
3720.54427,0.02216
3718.61552,0.02244
3716.68678,0.02254
3714.75804,0.02238
3712.82930,0.02251
3710.90055,0.02280
3708.97181,0.02261
3707.04307,0.02226
3705.11433,0.02227
3703.18558,0.02252
3701.25684,0.02276
3699.32810,0.02289
3697.39936,0.02276
3695.47061,0.02241
3693.54187,0.02216
3691.61313,0.02215
3689.68439,0.02223
3687.75564,0.02234
3685.82690,0.02257
3683.89816,0.02276
3681.96942,0.02279
3680.04067,0.02298
3678.11193,0.02318
3676.18319,0.02299
3674.25445,0.02290
3672.32570,0.02305
3670.39696,0.02272
3668.46822,0.02220
3666.53948,0.02230
3664.61073,0.02282
3662.68199,0.02299
3660.75325,0.02256
3658.82451,0.02217
3656.89576,0.02207
3654.96702,0.02196
3653.03828,0.02190
3651.10954,0.02188
3649.18079,0.02179
3647.25205,0.02172
3645.32331,0.02170
3643.39457,0.02192
3641.46582,0.02225
3639.53708,0.02223
3637.60834,0.02195
3635.67960,0.02172
3633.75085,0.02153
3631.82211,0.02150
3629.89337,0.02163
3627.96463,0.02184
3626.03588,0.02208
3624.10714,0.02219
3622.17840,0.02215
3620.24966,0.02211
3618.32091,0.02213
3616.39217,0.02207
3614.46343,0.02190
3612.53469,0.02191
3610.60594,0.02220
3608.67720,0.02230
3606.74846,0.02219
3604.81972,0.02206
3602.89097,0.02188
3600.96223,0.02178
3599.03349,0.02184
3597.10475,0.02190
3595.17600,0.02185
3593.24726,0.02189
3591.31852,0.02200
3589.38978,0.02193
3587.46103,0.02187
3585.53229,0.02211
3583.60355,0.02240
3581.67481,0.02241
3579.74606,0.02199
3577.81732,0.02147
3575.88858,0.02127
3573.95984,0.02128
3572.03109,0.02128
3570.10235,0.02127
3568.17361,0.02135
3566.24487,0.02148
3564.31612,0.02146
3562.38738,0.02141
3560.45864,0.02158
3558.52990,0.02180
3556.60115,0.02185
3554.67241,0.02197
3552.74367,0.02217
3550.81493,0.02212
3548.88618,0.02184
3546.95744,0.02156
3545.02870,0.02139
3543.09996,0.02122
3541.17121,0.02102
3539.24247,0.02095
3537.31373,0.02092
3535.38499,0.02070
3533.45624,0.02047
3531.52750,0.02041
3529.59876,0.02045
3527.67002,0.02053
3525.74127,0.02064
3523.81253,0.02072
3521.88379,0.02075
3519.95505,0.02094
3518.02630,0.02124
3516.09756,0.02127
3514.16882,0.02111
3512.24008,0.02126
3510.31133,0.02166
3508.38259,0.02188
3506.45385,0.02172
3504.52511,0.02121
3502.59636,0.02075
3500.66762,0.02079
3498.73888,0.02137
3496.81014,0.02205
3494.88139,0.02241
3492.95265,0.02228
3491.02391,0.02184
3489.09517,0.02144
3487.16642,0.02121
3485.23768,0.02107
3483.30894,0.02119
3481.38020,0.02146
3479.45145,0.02136
3477.52271,0.02094
3475.59397,0.02071
3473.66523,0.02076
3471.73648,0.02082
3469.80774,0.02081
3467.87900,0.02090
3465.95026,0.02099
3464.02151,0.02087
3462.09277,0.02080
3460.16403,0.02101
3458.23529,0.02115
3456.30654,0.02095
3454.37780,0.02062
3452.44906,0.02045
3450.52032,0.02053
3448.59157,0.02078
3446.66283,0.02096
3444.73409,0.02113
3442.80535,0.02139
3440.87660,0.02146
3438.94786,0.02113
3437.01912,0.02075
3435.09038,0.02076
3433.16163,0.02098
3431.23289,0.02100
3429.30415,0.02088
3427.37541,0.02095
3425.44666,0.02118
3423.51792,0.02109
3421.58918,0.02070
3419.66044,0.02053
3417.73169,0.02069
3415.80295,0.02082
3413.87421,0.02101
3411.94547,0.02132
3410.01672,0.02129
3408.08798,0.02082
3406.15924,0.02037
3404.23050,0.02022
3402.30175,0.02012
3400.37301,0.01997
3398.44427,0.02005
3396.51553,0.02039
3394.58678,0.02072
3392.65804,0.02082
3390.72930,0.02068
3388.80056,0.02046
3386.87181,0.02052
3384.94307,0.02089
3383.01433,0.02112
3381.08559,0.02105
3379.15684,0.02101
3377.22810,0.02112
3375.29936,0.02114
3373.37062,0.02108
3371.44187,0.02106
3369.51313,0.02101
3367.58439,0.02101
3365.65565,0.02105
3363.72690,0.02087
3361.79816,0.02046
3359.86942,0.02013
3357.94068,0.01994
3356.01193,0.01987
3354.08319,0.02011
3352.15445,0.02054
3350.22571,0.02062
3348.29696,0.02037
3346.36822,0.02006
3344.43948,0.01974
3342.51074,0.01971
3340.58199,0.02004
3338.65325,0.02038
3336.72451,0.02057
3334.79577,0.02051
3332.86702,0.02022
3330.93828,0.01998
3329.00954,0.01990
3327.08080,0.01976
3325.15205,0.01956
3323.22331,0.01976
3321.29457,0.02041
3319.36583,0.02086
3317.43708,0.02095
3315.50834,0.02100
3313.57960,0.02097
3311.65086,0.02081
3309.72211,0.02078
3307.79337,0.02080
3305.86463,0.02071
3303.93589,0.02079
3302.00714,0.02091
3300.07840,0.02057
3298.14966,0.02019
3296.22092,0.02033
3294.29217,0.02070
3292.36343,0.02079
3290.43469,0.02059
3288.50595,0.02031
3286.57721,0.01999
3284.64846,0.01985
3282.71972,0.01999
3280.79098,0.02004
3278.86224,0.01994
3276.93349,0.01998
3275.00475,0.02015
3273.07601,0.02045
3271.14727,0.02082
3269.21852,0.02098
3267.28978,0.02102
3265.36104,0.02123
3263.43230,0.02142
3261.50355,0.02123
3259.57481,0.02080
3257.64607,0.02052
3255.71733,0.02062
3253.78858,0.02098
3251.85984,0.02110
3249.93110,0.02090
3248.00236,0.02067
3246.07361,0.02063
3244.14487,0.02084
3242.21613,0.02111
3240.28739,0.02121
3238.35864,0.02128
3236.42990,0.02141
3234.50116,0.02133
3232.57242,0.02104
3230.64367,0.02079
3228.71493,0.02076
3226.78619,0.02108
3224.85745,0.02133
3222.92870,0.02106
3220.99996,0.02048
3219.07122,0.02012
3217.14248,0.02036
3215.21373,0.02095
3213.28499,0.02138
3211.35625,0.02146
3209.42751,0.02133
3207.49876,0.02119
3205.57002,0.02107
3203.64128,0.02092
3201.71254,0.02091
3199.78379,0.02109
3197.85505,0.02117
3195.92631,0.02103
3193.99757,0.02092
3192.06882,0.02101
3190.14008,0.02126
3188.21134,0.02142
3186.28260,0.02146
3184.35385,0.02151
3182.42511,0.02145
3180.49637,0.02118
3178.56763,0.02108
3176.63888,0.02138
3174.71014,0.02171
3172.78140,0.02162
3170.85266,0.02135
3168.92391,0.02131
3166.99517,0.02146
3165.06643,0.02134
3163.13769,0.02079
3161.20894,0.02041
3159.28020,0.02062
3157.35146,0.02117
3155.42272,0.02165
3153.49397,0.02168
3151.56523,0.02136
3149.63649,0.02113
3147.70775,0.02106
3145.77900,0.02114
3143.85026,0.02123
3141.92152,0.02101
3139.99278,0.02064
3138.06403,0.02042
3136.13529,0.02034
3134.20655,0.02043
3132.27781,0.02051
3130.34906,0.02033
3128.42032,0.02016
3126.49158,0.02045
3124.56284,0.02089
3122.63409,0.02104
3120.70535,0.02116
3118.77661,0.02120
3116.84787,0.02085
3114.91912,0.02057
3112.99038,0.02072
3111.06164,0.02095
3109.13290,0.02100
3107.20415,0.02093
3105.27541,0.02084
3103.34667,0.02096
3101.41793,0.02126
3099.48918,0.02135
3097.56044,0.02117
3095.63170,0.02091
3093.70296,0.02078
3091.77421,0.02085
3089.84547,0.02097
3087.91673,0.02094
3085.98799,0.02071
3084.05924,0.02048
3082.13050,0.02046
3080.20176,0.02050
3078.27302,0.02043
3076.34427,0.02045
3074.41553,0.02074
3072.48679,0.02107
3070.55805,0.02123
3068.62930,0.02133
3066.70056,0.02142
3064.77182,0.02131
3062.84308,0.02104
3060.91433,0.02092
3058.98559,0.02097
3057.05685,0.02101
3055.12811,0.02089
3053.19936,0.02059
3051.27062,0.02038
3049.34188,0.02035
3047.41314,0.02039
3045.48439,0.02050
3043.55565,0.02066
3041.62691,0.02067
3039.69817,0.02065
3037.76942,0.02092
3035.84068,0.02115
3033.91194,0.02083
3031.98320,0.02048
3030.05445,0.02069
3028.12571,0.02097
3026.19697,0.02083
3024.26823,0.02056
3022.33948,0.02052
3020.41074,0.02062
3018.48200,0.02058
3016.55326,0.02038
3014.62451,0.02036
3012.69577,0.02056
3010.76703,0.02066
3008.83829,0.02063
3006.90954,0.02054
3004.98080,0.02046
3003.05206,0.02049
3001.12332,0.02055
2999.19457,0.02061
2997.26583,0.02065
2995.33709,0.02052
2993.40835,0.02049
2991.47960,0.02069
2989.55086,0.02077
2987.62212,0.02054
2985.69338,0.02015
2983.76463,0.01992
2981.83589,0.02008
2979.90715,0.02039
2977.97841,0.02049
2976.04966,0.02038
2974.12092,0.02022
2972.19218,0.02005
2970.26344,0.01985
2968.33469,0.01963
2966.40595,0.01938
2964.47721,0.01919
2962.54847,0.01922
2960.61972,0.01938
2958.69098,0.01952
2956.76224,0.01964
2954.83350,0.01968
2952.90475,0.01969
2950.97601,0.01978
2949.04727,0.01990
2947.11853,0.02008
2945.18978,0.02025
2943.26104,0.02025
2941.33230,0.02016
2939.40356,0.01997
2937.47481,0.01961
2935.54607,0.01928
2933.61733,0.01912
2931.68859,0.01918
2929.75984,0.01952
2927.83110,0.01992
2925.90236,0.02005
2923.97362,0.02000
2922.04487,0.02011
2920.11613,0.02037
2918.18739,0.02058
2916.25865,0.02064
2914.32990,0.02068
2912.40116,0.02084
2910.47242,0.02095
2908.54368,0.02086
2906.61493,0.02079
2904.68619,0.02089
2902.75745,0.02087
2900.82871,0.02060
2898.89996,0.02039
2896.97122,0.02026
2895.04248,0.02005
2893.11374,0.01999
2891.18499,0.02025
2889.25625,0.02069
2887.32751,0.02098
2885.39877,0.02094
2883.47002,0.02085
2881.54128,0.02090
2879.61254,0.02081
2877.68380,0.02054
2875.75505,0.02035
2873.82631,0.02037
2871.89757,0.02042
2869.96883,0.02041
2868.04008,0.02052
2866.11134,0.02074
2864.18260,0.02078
2862.25386,0.02070
2860.32511,0.02072
2858.39637,0.02070
2856.46763,0.02057
2854.53889,0.02049
2852.61014,0.02050
2850.68140,0.02062
2848.75266,0.02079
2846.82392,0.02087
2844.89517,0.02091
2842.96643,0.02099
2841.03769,0.02117
2839.10895,0.02141
2837.18020,0.02158
2835.25146,0.02157
2833.32272,0.02143
2831.39398,0.02135
2829.46523,0.02145
2827.53649,0.02163
2825.60775,0.02180
2823.67901,0.02182
2821.75026,0.02148
2819.82152,0.02101
2817.89278,0.02074
2815.96404,0.02069
2814.03529,0.02079
2812.10655,0.02105
2810.17781,0.02144
2808.24907,0.02173
2806.32032,0.02169
2804.39158,0.02140
2802.46284,0.02114
2800.53410,0.02116
2798.60535,0.02137
2796.67661,0.02140
2794.74787,0.02119
2792.81913,0.02107
2790.89038,0.02111
2788.96164,0.02112
2787.03290,0.02115
2785.10416,0.02138
2783.17541,0.02163
2781.24667,0.02171
2779.31793,0.02169
2777.38919,0.02153
2775.46044,0.02126
2773.53170,0.02111
2771.60296,0.02103
2769.67422,0.02091
2767.74547,0.02094
2765.81673,0.02112
2763.88799,0.02122
2761.95925,0.02119
2760.03050,0.02121
2758.10176,0.02138
2756.17302,0.02162
2754.24428,0.02152
2752.31553,0.02108
2750.38679,0.02089
2748.45805,0.02110
2746.52931,0.02138
2744.60056,0.02157
2742.67182,0.02163
2740.74308,0.02160
2738.81434,0.02149
2736.88560,0.02136
2734.95685,0.02133
2733.02811,0.02134
2731.09937,0.02132
2729.17063,0.02140
2727.24188,0.02149
2725.31314,0.02139
2723.38440,0.02126
2721.45566,0.02139
2719.52691,0.02163
2717.59817,0.02164
2715.66943,0.02157
2713.74069,0.02158
2711.81194,0.02152
2709.88320,0.02139
2707.95446,0.02126
2706.02572,0.02120
2704.09697,0.02123
2702.16823,0.02123
2700.23949,0.02124
2698.31075,0.02130
2696.38200,0.02138
2694.45326,0.02154
2692.52452,0.02171
2690.59578,0.02182
2688.66703,0.02182
2686.73829,0.02159
2684.80955,0.02130
2682.88081,0.02123
2680.95206,0.02144
2679.02332,0.02166
2677.09458,0.02166
2675.16584,0.02155
2673.23709,0.02149
2671.30835,0.02141
2669.37961,0.02141
2667.45087,0.02152
2665.52212,0.02158
2663.59338,0.02147
2661.66464,0.02129
2659.73590,0.02119
2657.80715,0.02122
2655.87841,0.02125
2653.94967,0.02122
2652.02093,0.02124
2650.09218,0.02125
2648.16344,0.02122
2646.23470,0.02121
2644.30596,0.02128
2642.37721,0.02140
2640.44847,0.02139
2638.51973,0.02129
2636.59099,0.02138
2634.66224,0.02159
2632.73350,0.02172
2630.80476,0.02181
2628.87602,0.02199
2626.94727,0.02204
2625.01853,0.02186
2623.08979,0.02165
2621.16105,0.02147
2619.23230,0.02128
2617.30356,0.02119
2615.37482,0.02133
2613.44608,0.02159
2611.51733,0.02174
2609.58859,0.02166
2607.65985,0.02147
2605.73111,0.02134
2603.80236,0.02131
2601.87362,0.02130
2599.94488,0.02130
2598.01614,0.02147
2596.08739,0.02171
2594.15865,0.02177
2592.22991,0.02172
2590.30117,0.02172
2588.37242,0.02165
2586.44368,0.02149
2584.51494,0.02144
2582.58620,0.02153
2580.65745,0.02160
2578.72871,0.02152
2576.79997,0.02137
2574.87123,0.02120
2572.94248,0.02117
2571.01374,0.02136
2569.08500,0.02157
2567.15626,0.02167
2565.22751,0.02168
2563.29877,0.02161
2561.37003,0.02153
2559.44129,0.02151
2557.51254,0.02145
2555.58380,0.02115
2553.65506,0.02080
2551.72632,0.02084
2549.79757,0.02118
2547.86883,0.02143
2545.94009,0.02145
2544.01135,0.02151
2542.08260,0.02168
2540.15386,0.02170
2538.22512,0.02146
2536.29638,0.02130
2534.36763,0.02141
2532.43889,0.02153
2530.51015,0.02143
2528.58141,0.02124
2526.65266,0.02122
2524.72392,0.02132
2522.79518,0.02118
2520.86644,0.02085
2518.93769,0.02080
2517.00895,0.02109
2515.08021,0.02133
2513.15147,0.02138
2511.22272,0.02138
2509.29398,0.02141
2507.36524,0.02141
2505.43650,0.02135
2503.50775,0.02129
2501.57901,0.02134
2499.65027,0.02151
2497.72153,0.02160
2495.79278,0.02136
2493.86404,0.02096
2491.93530,0.02073
2490.00656,0.02088
2488.07781,0.02124
2486.14907,0.02133
2484.22033,0.02120
2482.29159,0.02126
2480.36284,0.02147
2478.43410,0.02156
2476.50536,0.02152
2474.57662,0.02140
2472.64787,0.02123
2470.71913,0.02122
2468.79039,0.02144
2466.86165,0.02151
2464.93290,0.02118
2463.00416,0.02094
2461.07542,0.02118
2459.14668,0.02157
2457.21793,0.02161
2455.28919,0.02132
2453.36045,0.02116
2451.43171,0.02130
2449.50296,0.02152
2447.57422,0.02163
2445.64548,0.02153
2443.71674,0.02130
2441.78799,0.02117
2439.85925,0.02118
2437.93051,0.02114
2436.00177,0.02114
2434.07302,0.02134
2432.14428,0.02149
2430.21554,0.02142
2428.28680,0.02131
2426.35805,0.02135
2424.42931,0.02150
2422.50057,0.02160
2420.57183,0.02151
2418.64308,0.02139
2416.71434,0.02149
2414.78560,0.02180
2412.85686,0.02205
2410.92811,0.02202
2408.99937,0.02169
2407.07063,0.02132
2405.14189,0.02109
2403.21314,0.02107
2401.28440,0.02125
2399.35566,0.02133
2397.42692,0.02129
2395.49817,0.02147
2393.56943,0.02174
2391.64069,0.02162
2389.71195,0.02129
2387.78320,0.02114
2385.85446,0.02115
2383.92572,0.02120
2381.99698,0.02124
2380.06823,0.02121
2378.13949,0.02112
2376.21075,0.02112
2374.28201,0.02127
2372.35326,0.02141
2370.42452,0.02147
2368.49578,0.02149
2366.56704,0.02139
2364.63829,0.02121
2362.70955,0.02129
2360.78081,0.02160
2358.85207,0.02155
2356.92332,0.02119
2354.99458,0.02113
2353.06584,0.02136
2351.13710,0.02143
2349.20835,0.02128
2347.27961,0.02115
2345.35087,0.02120
2343.42213,0.02132
2341.49338,0.02127
2339.56464,0.02111
2337.63590,0.02112
2335.70716,0.02124
2333.77841,0.02114
2331.84967,0.02086
2329.92093,0.02081
2327.99219,0.02103
2326.06344,0.02135
2324.13470,0.02155
2322.20596,0.02144
2320.27722,0.02119
2318.34847,0.02101
2316.41973,0.02096
2314.49099,0.02105
2312.56225,0.02118
2310.63350,0.02125
2308.70476,0.02127
2306.77602,0.02119
2304.84728,0.02109
2302.91853,0.02104
2300.98979,0.02098
2299.06105,0.02094
2297.13231,0.02104
2295.20356,0.02119
2293.27482,0.02132
2291.34608,0.02142
2289.41734,0.02143
2287.48859,0.02145
2285.55985,0.02150
2283.63111,0.02146
2281.70237,0.02147
2279.77362,0.02160
2277.84488,0.02164
2275.91614,0.02159
2273.98740,0.02147
2272.05865,0.02127
2270.12991,0.02107
2268.20117,0.02105
2266.27243,0.02121
2264.34368,0.02141
2262.41494,0.02151
2260.48620,0.02146
2258.55746,0.02140
2256.62871,0.02135
2254.69997,0.02126
2252.77123,0.02114
2250.84249,0.02109
2248.91374,0.02113
2246.98500,0.02113
2245.05626,0.02104
2243.12752,0.02106
2241.19877,0.02126
2239.27003,0.02152
2237.34129,0.02166
2235.41255,0.02152
2233.48380,0.02119
2231.55506,0.02100
2229.62632,0.02099
2227.69758,0.02111
2225.76883,0.02130
2223.84009,0.02139
2221.91135,0.02138
2219.98261,0.02136
2218.05386,0.02131
2216.12512,0.02126
2214.19638,0.02125
2212.26764,0.02126
2210.33889,0.02128
2208.41015,0.02129
2206.48141,0.02124
2204.55267,0.02124
2202.62392,0.02139
2200.69518,0.02154
2198.76644,0.02159
2196.83770,0.02158
2194.90895,0.02157
2192.98021,0.02161
2191.05147,0.02156
2189.12273,0.02127
2187.19399,0.02095
2185.26524,0.02095
2183.33650,0.02106
2181.40776,0.02102
2179.47902,0.02100
2177.55027,0.02108
2175.62153,0.02121
2173.69279,0.02128
2171.76405,0.02128
2169.83530,0.02127
2167.90656,0.02134
2165.97782,0.02135
2164.04908,0.02126
2162.12033,0.02109
2160.19159,0.02088
2158.26285,0.02086
2156.33411,0.02109
2154.40536,0.02124
2152.47662,0.02121
2150.54788,0.02124
2148.61914,0.02136
2146.69039,0.02135
2144.76165,0.02123
2142.83291,0.02119
2140.90417,0.02126
2138.97542,0.02137
2137.04668,0.02151
2135.11794,0.02154
2133.18920,0.02142
2131.26045,0.02129
2129.33171,0.02126
2127.40297,0.02123
2125.47423,0.02113
2123.54548,0.02103
2121.61674,0.02105
2119.68800,0.02114
2117.75926,0.02123
2115.83051,0.02135
2113.90177,0.02154
2111.97303,0.02161
2110.04429,0.02137
2108.11554,0.02104
2106.18680,0.02103
2104.25806,0.02120
2102.32932,0.02114
2100.40057,0.02094
2098.47183,0.02089
2096.54309,0.02104
2094.61435,0.02124
2092.68560,0.02129
2090.75686,0.02119
2088.82812,0.02109
2086.89938,0.02104
2084.97063,0.02109
2083.04189,0.02123
2081.11315,0.02132
2079.18441,0.02134
2077.25566,0.02138
2075.32692,0.02138
2073.39818,0.02125
2071.46944,0.02110
2069.54069,0.02109
2067.61195,0.02127
2065.68321,0.02147
2063.75447,0.02148
2061.82572,0.02139
2059.89698,0.02134
2057.96824,0.02128
2056.03950,0.02121
2054.11075,0.02117
2052.18201,0.02118
2050.25327,0.02120
2048.32453,0.02121
2046.39578,0.02117
2044.46704,0.02109
2042.53830,0.02116
2040.60956,0.02137
2038.68081,0.02147
2036.75207,0.02140
2034.82333,0.02125
2032.89459,0.02109
2030.96584,0.02108
2029.03710,0.02119
2027.10836,0.02115
2025.17962,0.02094
2023.25087,0.02089
2021.32213,0.02111
2019.39339,0.02137
2017.46465,0.02153
2015.53590,0.02154
2013.60716,0.02134
2011.67842,0.02115
2009.74968,0.02115
2007.82093,0.02119
2005.89219,0.02116
2003.96345,0.02099
2002.03471,0.02069
2000.10596,0.02055
1998.17722,0.02073
1996.24848,0.02099
1994.31974,0.02112
1992.39099,0.02112
1990.46225,0.02110
1988.53351,0.02107
1986.60477,0.02090
1984.67602,0.02066
1982.74728,0.02061
1980.81854,0.02074
1978.88980,0.02092
1976.96105,0.02105
1975.03231,0.02109
1973.10357,0.02112
1971.17483,0.02120
1969.24608,0.02122
1967.31734,0.02112
1965.38860,0.02101
1963.45986,0.02085
1961.53111,0.02066
1959.60237,0.02057
1957.67363,0.02065
1955.74489,0.02079
1953.81614,0.02093
1951.88740,0.02106
1949.95866,0.02113
1948.02992,0.02116
1946.10117,0.02121
1944.17243,0.02127
1942.24369,0.02127
1940.31495,0.02120
1938.38620,0.02105
1936.45746,0.02088
1934.52872,0.02083
1932.59998,0.02086
1930.67123,0.02088
1928.74249,0.02098
1926.81375,0.02114
1924.88501,0.02112
1922.95626,0.02095
1921.02752,0.02083
1919.09878,0.02076
1917.17004,0.02067
1915.24129,0.02067
1913.31255,0.02069
1911.38381,0.02076
1909.45507,0.02099
1907.52632,0.02113
1905.59758,0.02091
1903.66884,0.02062
1901.74010,0.02056
1899.81135,0.02060
1897.88261,0.02059
1895.95387,0.02053
1894.02513,0.02055
1892.09638,0.02068
1890.16764,0.02071
1888.23890,0.02061
1886.31016,0.02059
1884.38141,0.02062
1882.45267,0.02051
1880.52393,0.02045
1878.59519,0.02058
1876.66644,0.02070
1874.73770,0.02077
1872.80896,0.02091
1870.88022,0.02100
1868.95147,0.02093
1867.02273,0.02085
1865.09399,0.02086
1863.16525,0.02091
1861.23650,0.02092
1859.30776,0.02085
1857.37902,0.02065
1855.45028,0.02046
1853.52153,0.02044
1851.59279,0.02053
1849.66405,0.02060
1847.73531,0.02056
1845.80656,0.02039
1843.87782,0.02023
1841.94908,0.02028
1840.02034,0.02047
1838.09159,0.02055
1836.16285,0.02048
1834.23411,0.02041
1832.30537,0.02044
1830.37662,0.02052
1828.44788,0.02061
1826.51914,0.02061
1824.59040,0.02046
1822.66165,0.02031
1820.73291,0.02028
1818.80417,0.02038
1816.87543,0.02046
1814.94668,0.02031
1813.01794,0.02014
1811.08920,0.02016
1809.16046,0.02016
1807.23171,0.01998
1805.30297,0.01985
1803.37423,0.01991
1801.44549,0.01995
1799.51674,0.01983
1797.58800,0.01969
1795.65926,0.01969
1793.73052,0.01970
1791.80177,0.01967
1789.87303,0.01964
1787.94429,0.01950
1786.01555,0.01922
1784.08680,0.01910
1782.15806,0.01932
1780.22932,0.01960
1778.30058,0.01954
1776.37183,0.01920
1774.44309,0.01885
1772.51435,0.01862
1770.58561,0.01857
1768.65686,0.01857
1766.72812,0.01846
1764.79938,0.01832
1762.87064,0.01821
1760.94189,0.01803
1759.01315,0.01789
1757.08441,0.01778
1755.15567,0.01757
1753.22692,0.01749
1751.29818,0.01767
1749.36944,0.01778
1747.44070,0.01769
1745.51195,0.01773
1743.58321,0.01800
1741.65447,0.01834
1739.72573,0.01878
1737.79698,0.01926
1735.86824,0.01961
1733.93950,0.01994
1732.01076,0.02026
1730.08201,0.02039
1728.15327,0.02055
1726.22453,0.02090
1724.29579,0.02118
1722.36704,0.02118
1720.43830,0.02115
1718.50956,0.02126
1716.58082,0.02114
1714.65207,0.02083
1712.72333,0.02076
1710.79459,0.02079
1708.86585,0.02060
1706.93710,0.02025
1705.00836,0.02010
1703.07962,0.02022
1701.15088,0.02025
1699.22213,0.02003
1697.29339,0.01995
1695.36465,0.01998
1693.43591,0.01980
1691.50716,0.01954
1689.57842,0.01937
1687.64968,0.01935
1685.72094,0.01932
1683.79219,0.01900
1681.86345,0.01868
1679.93471,0.01866
1678.00597,0.01875
1676.07722,0.01869
1674.14848,0.01856
1672.21974,0.01857
1670.29100,0.01856
1668.36225,0.01845
1666.43351,0.01851
1664.50477,0.01870
1662.57603,0.01870
1660.64728,0.01844
1658.71854,0.01820
1656.78980,0.01825
1654.86106,0.01859
1652.93231,0.01872
1651.00357,0.01843
1649.07483,0.01834
1647.14609,0.01852
1645.21735,0.01862
1643.28860,0.01856
1641.35986,0.01854
1639.43112,0.01858
1637.50238,0.01865
1635.57363,0.01871
1633.64489,0.01868
1631.71615,0.01863
1629.78741,0.01869
1627.85866,0.01882
1625.92992,0.01903
1624.00118,0.01931
1622.07244,0.01942
1620.14369,0.01937
1618.21495,0.01930
1616.28621,0.01921
1614.35747,0.01923
1612.42872,0.01934
1610.49998,0.01926
1608.57124,0.01907
1606.64250,0.01899
1604.71375,0.01900
1602.78501,0.01898
1600.85627,0.01892
1598.92753,0.01890
1596.99878,0.01894
1595.07004,0.01900
1593.14130,0.01907
1591.21256,0.01907
1589.28381,0.01889
1587.35507,0.01857
1585.42633,0.01830
1583.49759,0.01821
1581.56884,0.01827
1579.64010,0.01836
1577.71136,0.01838
1575.78262,0.01840
1573.85387,0.01860
1571.92513,0.01878
1569.99639,0.01855
1568.06765,0.01805
1566.13890,0.01788
1564.21016,0.01811
1562.28142,0.01832
1560.35268,0.01829
1558.42393,0.01811
1556.49519,0.01804
1554.56645,0.01810
1552.63771,0.01812
1550.70896,0.01811
1548.78022,0.01821
1546.85148,0.01837
1544.92274,0.01843
1542.99399,0.01844
1541.06525,0.01846
1539.13651,0.01844
1537.20777,0.01843
1535.27902,0.01846
1533.35028,0.01851
1531.42154,0.01862
1529.49280,0.01874
1527.56405,0.01875
1525.63531,0.01868
1523.70657,0.01867
1521.77783,0.01868
1519.84908,0.01863
1517.92034,0.01863
1515.99160,0.01867
1514.06286,0.01870
1512.13411,0.01871
1510.20537,0.01874
1508.27663,0.01891
1506.34789,0.01908
1504.41914,0.01903
1502.49040,0.01893
1500.56166,0.01896
1498.63292,0.01894
1496.70417,0.01868
1494.77543,0.01845
1492.84669,0.01845
1490.91795,0.01858
1488.98920,0.01867
1487.06046,0.01868
1485.13172,0.01860
1483.20298,0.01851
1481.27423,0.01848
1479.34549,0.01853
1477.41675,0.01855
1475.48801,0.01854
1473.55926,0.01856
1471.63052,0.01862
1469.70178,0.01867
1467.77304,0.01864
1465.84429,0.01856
1463.91555,0.01845
1461.98681,0.01844
1460.05807,0.01863
1458.12932,0.01885
1456.20058,0.01880
1454.27184,0.01869
1452.34310,0.01874
1450.41435,0.01890
1448.48561,0.01908
1446.55687,0.01927
1444.62813,0.01941
1442.69938,0.01941
1440.77064,0.01937
1438.84190,0.01935
1436.91316,0.01921
1434.98441,0.01898
1433.05567,0.01884
1431.12693,0.01882
1429.19819,0.01878
1427.26944,0.01868
1425.34070,0.01866
1423.41196,0.01870
1421.48322,0.01864
1419.55447,0.01852
1417.62573,0.01847
1415.69699,0.01856
1413.76825,0.01862
1411.83950,0.01853
1409.91076,0.01836
1407.98202,0.01821
1406.05328,0.01812
1404.12453,0.01813
1402.19579,0.01822
1400.26705,0.01827
1398.33831,0.01826
1396.40956,0.01824
1394.48082,0.01817
1392.55208,0.01811
1390.62334,0.01820
1388.69459,0.01830
1386.76585,0.01830
1384.83711,0.01836
1382.90837,0.01852
1380.97962,0.01858
1379.05088,0.01851
1377.12214,0.01844
1375.19340,0.01845
1373.26465,0.01846
1371.33591,0.01836
1369.40717,0.01820
1367.47843,0.01801
1365.54968,0.01788
1363.62094,0.01787
1361.69220,0.01788
1359.76346,0.01787
1357.83471,0.01789
1355.90597,0.01798
1353.97723,0.01811
1352.04849,0.01822
1350.11974,0.01826
1348.19100,0.01825
1346.26226,0.01819
1344.33352,0.01806
1342.40477,0.01783
1340.47603,0.01760
1338.54729,0.01761
1336.61855,0.01788
1334.68980,0.01803
1332.76106,0.01786
1330.83232,0.01767
1328.90358,0.01761
1326.97483,0.01748
1325.04609,0.01734
1323.11735,0.01748
1321.18861,0.01774
1319.25986,0.01781
1317.33112,0.01772
1315.40238,0.01760
1313.47364,0.01741
1311.54489,0.01708
1309.61615,0.01686
1307.68741,0.01699
1305.75867,0.01727
1303.82992,0.01742
1301.90118,0.01742
1299.97244,0.01740
1298.04370,0.01743
1296.11495,0.01739
1294.18621,0.01736
1292.25747,0.01752
1290.32873,0.01786
1288.39998,0.01819
1286.47124,0.01841
1284.54250,0.01868
1282.61376,0.01895
1280.68501,0.01912
1278.75627,0.01922
1276.82753,0.01928
1274.89879,0.01930
1272.97004,0.01929
1271.04130,0.01928
1269.11256,0.01932
1267.18382,0.01948
1265.25507,0.01966
1263.32633,0.01973
1261.39759,0.01984
1259.46885,0.02007
1257.54010,0.02020
1255.61136,0.02004
1253.68262,0.01979
1251.75388,0.01977
1249.82513,0.01989
1247.89639,0.01999
1245.96765,0.02019
1244.03891,0.02042
1242.11016,0.02037
1240.18142,0.02013
1238.25268,0.01992
1236.32394,0.01977
1234.39519,0.01969
1232.46645,0.01974
1230.53771,0.01979
1228.60897,0.01974
1226.68022,0.01969
1224.75148,0.01969
1222.82274,0.01953
1220.89400,0.01916
1218.96525,0.01884
1217.03651,0.01866
1215.10777,0.01852
1213.17903,0.01853
1211.25028,0.01877
1209.32154,0.01899
1207.39280,0.01901
1205.46406,0.01906
1203.53531,0.01909
1201.60657,0.01892
1199.67783,0.01860
1197.74909,0.01829
1195.82034,0.01824
1193.89160,0.01846
1191.96286,0.01861
1190.03412,0.01865
1188.10537,0.01866
1186.17663,0.01865
1184.24789,0.01865
1182.31915,0.01849
1180.39040,0.01807
1178.46166,0.01777
1176.53292,0.01779
1174.60418,0.01784
1172.67543,0.01779
1170.74669,0.01770
1168.81795,0.01774
1166.88921,0.01787
1164.96046,0.01772
1163.03172,0.01742
1161.10298,0.01738
1159.17424,0.01747
1157.24549,0.01751
1155.31675,0.01760
1153.38801,0.01763
1151.45927,0.01762
1149.53052,0.01773
1147.60178,0.01783
1145.67304,0.01768
1143.74430,0.01747
1141.81555,0.01751
1139.88681,0.01776
1137.95807,0.01801
1136.02933,0.01811
1134.10058,0.01796
1132.17184,0.01780
1130.24310,0.01795
1128.31436,0.01808
1126.38561,0.01802
1124.45687,0.01824
1122.52813,0.01863
1120.59939,0.01882
1118.67064,0.01892
1116.74190,0.01899
1114.81316,0.01894
1112.88442,0.01891
1110.95567,0.01888
1109.02693,0.01872
1107.09819,0.01845
1105.16945,0.01812
1103.24070,0.01789
1101.31196,0.01790
1099.38322,0.01820
1097.45448,0.01856
1095.52574,0.01859
1093.59699,0.01841
1091.66825,0.01836
1089.73951,0.01823
1087.81077,0.01778
1085.88202,0.01737
1083.95328,0.01729
1082.02454,0.01745
1080.09580,0.01783
1078.16705,0.01839
1076.23831,0.01894
1074.30957,0.01925
1072.38083,0.01928
1070.45208,0.01922
1068.52334,0.01924
1066.59460,0.01918
1064.66586,0.01918
1062.73711,0.01944
1060.80837,0.01963
1058.87963,0.01951
1056.95089,0.01937
1055.02214,0.01953
1053.09340,0.02002
1051.16466,0.02039
1049.23592,0.02034
1047.30717,0.02013
1045.37843,0.02008
1043.44969,0.02003
1041.52095,0.01982
1039.59220,0.01988
1037.66346,0.02018
1035.73472,0.02000
1033.80598,0.01952
1031.87723,0.01947
1029.94849,0.01946
1028.01975,0.01906
1026.09101,0.01870
1024.16226,0.01875
1022.23352,0.01902
1020.30478,0.01930
1018.37604,0.01936
1016.44729,0.01919
1014.51855,0.01913
1012.58981,0.01944
1010.66107,0.01996
1008.73232,0.02050
1006.80358,0.02094
1004.87484,0.02120
1002.94610,0.02123
1001.01735,0.02127
999.08861,0.02137
997.15987,0.02132
995.23113,0.02123
993.30238,0.02124
991.37364,0.02132
989.44490,0.02145
987.51616,0.02136
985.58741,0.02097
983.65867,0.02070
981.72993,0.02062
979.80119,0.02047
977.87244,0.02026
975.94370,0.02029
974.01496,0.02041
972.08622,0.02037
970.15747,0.02038
968.22873,0.02056
966.29999,0.02062
964.37125,0.02041
962.44250,0.02018
960.51376,0.02024
958.58502,0.02044
956.65628,0.02040
954.72753,0.02007
952.79879,0.01980
950.87005,0.01979
948.94131,0.01992
947.01256,0.02005
945.08382,0.02006
943.15508,0.01993
941.22634,0.01968
939.29759,0.01939
937.36885,0.01931
935.44011,0.01948
933.51137,0.01963
931.58262,0.01959
929.65388,0.01951
927.72514,0.01965
925.79640,0.01997
923.86765,0.02008
921.93891,0.01977
920.01017,0.01931
918.08143,0.01919
916.15268,0.01933
914.22394,0.01930
912.29520,0.01910
910.36646,0.01899
908.43771,0.01892
906.50897,0.01895
904.58023,0.01913
902.65149,0.01911
900.72274,0.01879
898.79400,0.01878
896.86526,0.01926
894.93652,0.01971
893.00777,0.01985
891.07903,0.01977
889.15029,0.01954
887.22155,0.01933
885.29280,0.01927
883.36406,0.01919
881.43532,0.01905
879.50658,0.01911
877.57783,0.01930
875.64909,0.01919
873.72035,0.01889
871.79161,0.01866
869.86286,0.01834
867.93412,0.01815
866.00538,0.01844
864.07664,0.01881
862.14789,0.01897
860.21915,0.01909
858.29041,0.01925
856.36167,0.01935
854.43292,0.01944
852.50418,0.01955
850.57544,0.01942
848.64670,0.01900
846.71795,0.01856
844.78921,0.01842
842.86047,0.01857
840.93173,0.01880
839.00298,0.01896
837.07424,0.01880
835.14550,0.01840
833.21676,0.01824
831.28801,0.01836
829.35927,0.01861
827.43053,0.01886
825.50179,0.01909
823.57304,0.01933
821.64430,0.01947
819.71556,0.01950
817.78682,0.01953
815.85807,0.01947
813.92933,0.01943
812.00059,0.01960
810.07185,0.01975
808.14310,0.01970
806.21436,0.01962
804.28562,0.01941
802.35688,0.01908
800.42813,0.01889
798.49939,0.01892
796.57065,0.01901
794.64191,0.01891
792.71316,0.01887
790.78442,0.01908
788.85568,0.01924
786.92694,0.01926
784.99819,0.01907
783.06945,0.01857
781.14071,0.01811
779.21197,0.01806
777.28322,0.01825
775.35448,0.01841
773.42574,0.01834
771.49700,0.01792
769.56825,0.01751
767.63951,0.01754
765.71077,0.01796
763.78203,0.01875
761.85328,0.01951
759.92454,0.01961
757.99580,0.01910
756.06706,0.01845
754.13831,0.01793
752.20957,0.01763
750.28083,0.01754
748.35209,0.01754
746.42334,0.01761
744.49460,0.01788
742.56586,0.01813
740.63712,0.01819
738.70837,0.01812
736.77963,0.01791
734.85089,0.01782
732.92215,0.01827
730.99340,0.01878
729.06466,0.01846
727.13592,0.01788
725.20718,0.01797
723.27843,0.01822
721.34969,0.01811
719.42095,0.01793
717.49221,0.01773
715.56346,0.01724
713.63472,0.01665
711.70598,0.01665
709.77724,0.01737
707.84849,0.01807
705.91975,0.01829
703.99101,0.01818
702.06227,0.01810
700.13352,0.01797
698.20478,0.01757
696.27604,0.01734
694.34730,0.01755
692.41855,0.01768
690.48981,0.01741
688.56107,0.01702
686.63233,0.01685
684.70358,0.01691
682.77484,0.01693
680.84610,0.01681
678.91736,0.01659
676.98861,0.01643
675.05987,0.01685
673.13113,0.01810
671.20239,0.01911
669.27364,0.01882
667.34490,0.01804
665.41616,0.01789
663.48742,0.01818
661.55867,0.01847
659.62993,0.01831
657.70119,0.01737
655.77245,0.01649
653.84370,0.01646
651.91496,0.01693
649.98622,0.01712
648.05748,0.01685
646.12873,0.01653
644.19999,0.01622
642.27125,0.01574
640.34251,0.01546
638.41376,0.01609
636.48502,0.01704
634.55628,0.01685
632.62754,0.01603
630.69879,0.01614
628.77005,0.01703
626.84131,0.01768
624.91257,0.01734
622.98382,0.01631
621.05508,0.01587
619.12634,0.01587
617.19760,0.01563
615.26885,0.01546
613.34011,0.01502
611.41137,0.01422
609.48263,0.01416
607.55388,0.01485
605.62514,0.01614
603.69640,0.01731
601.76766,0.01765
599.83891,0.01724
