7497.02206,0.86060
7495.09332,0.85360
7493.16458,0.84982
7491.23584,0.85263
7489.30709,0.85703
7487.37835,0.85474
7485.44961,0.84873
7483.52087,0.84568
7481.59212,0.84279
7479.66338,0.83980
7477.73464,0.84042
7475.80590,0.84132
7473.87715,0.83903
7471.94841,0.83661
7470.01967,0.83520
7468.09093,0.83335
7466.16218,0.83498
7464.23344,0.84095
7462.30470,0.84521
7460.37596,0.84505
7458.44721,0.84211
7456.51847,0.83924
7454.58973,0.83428
7452.66099,0.82487
7450.73224,0.81907
7448.80350,0.82241
7446.87476,0.83003
7444.94602,0.83464
7443.01727,0.83282
7441.08853,0.82774
7439.15979,0.82224
7437.23105,0.81640
7435.30230,0.81423
7433.37356,0.81823
7431.44482,0.82274
7429.51608,0.82456
7427.58733,0.82767
7425.65859,0.83102
7423.72985,0.82961
7421.80111,0.82370
7419.87236,0.81506
7417.94362,0.80753
7416.01488,0.80881
7414.08614,0.81708
7412.15739,0.82199
7410.22865,0.82214
7408.29991,0.82207
7406.37117,0.82246
7404.44242,0.82235
7402.51368,0.82105
7400.58494,0.81813
7398.65620,0.81378
7396.72745,0.80936
7394.79871,0.80772
7392.86997,0.81069
7390.94123,0.81470
7389.01248,0.81332
7387.08374,0.80777
7385.15500,0.80429
7383.22626,0.80298
7381.29751,0.80153
7379.36877,0.80100
7377.44003,0.80252
7375.51129,0.80517
7373.58254,0.80582
7371.65380,0.80438
7369.72506,0.80419
7367.79632,0.80317
7365.86757,0.79910
7363.93883,0.79559
7362.01009,0.79485
7360.08135,0.79595
7358.15260,0.79707
7356.22386,0.79816
7354.29512,0.80103
7352.36638,0.80450
7350.43763,0.80377
7348.50889,0.79776
7346.58015,0.79219
7344.65141,0.79091
7342.72266,0.79389
7340.79392,0.79936
7338.86518,0.80259
7336.93644,0.80097
7335.00769,0.79554
7333.07895,0.78982
7331.15021,0.78760
7329.22147,0.78793
7327.29272,0.78971
7325.36398,0.79393
7323.43524,0.79678
7321.50650,0.79525
7319.57775,0.79442
7317.64901,0.79813
7315.72027,0.80311
7313.79153,0.80347
7311.86278,0.79706
7309.93404,0.79082
7308.00530,0.79017
7306.07656,0.79128
7304.14781,0.79189
7302.21907,0.79304
7300.29033,0.79424
7298.36159,0.79497
7296.43284,0.79360
7294.50410,0.78834
7292.57536,0.78199
7290.64662,0.77923
7288.71787,0.78075
7286.78913,0.78507
7284.86039,0.78893
7282.93165,0.78869
7281.00290,0.78608
7279.07416,0.78386
7277.14542,0.78389
7275.21668,0.78729
7273.28793,0.78888
7271.35919,0.78667
7269.43045,0.78603
7267.50171,0.78604
7265.57296,0.78301
7263.64422,0.78068
7261.71548,0.78226
7259.78674,0.78414
7257.85799,0.78325
7255.92925,0.78197
7254.00051,0.78187
7252.07177,0.78166
7250.14302,0.78201
7248.21428,0.78343
7246.28554,0.78427
7244.35680,0.78340
7242.42805,0.78099
7240.49931,0.77923
7238.57057,0.77856
7236.64183,0.77774
7234.71308,0.77890
7232.78434,0.78210
7230.85560,0.78255
7228.92686,0.77835
7226.99811,0.77342
7225.06937,0.77194
7223.14063,0.77251
7221.21189,0.77279
7219.28314,0.77478
7217.35440,0.77850
7215.42566,0.77902
7213.49692,0.77540
7211.56817,0.77337
7209.63943,0.77411
7207.71069,0.77139
7205.78195,0.76385
7203.85320,0.75926
7201.92446,0.76223
7199.99572,0.76750
7198.06698,0.76951
7196.13823,0.76842
7194.20949,0.76801
7192.28075,0.77034
7190.35201,0.77063
7188.42326,0.76790
7186.49452,0.76760
7184.56578,0.76824
7182.63704,0.76643
7180.70829,0.76399
7178.77955,0.76236
7176.85081,0.76216
7174.92207,0.76266
7172.99332,0.76115
7171.06458,0.75826
7169.13584,0.75792
7167.20710,0.75979
7165.27835,0.76052
7163.34961,0.76089
7161.42087,0.76103
7159.49213,0.75845
7157.56338,0.75633
7155.63464,0.75859
7153.70590,0.76126
7151.77716,0.75953
7149.84841,0.75502
7147.91967,0.75146
7145.99093,0.74864
7144.06219,0.74573
7142.13344,0.74529
7140.20470,0.74756
7138.27596,0.74930
7136.34722,0.74834
7134.41847,0.74567
7132.48973,0.74445
7130.56099,0.74454
7128.63225,0.74272
7126.70351,0.73894
7124.77476,0.73708
7122.84602,0.73984
7120.91728,0.74350
7118.98854,0.74379
7117.05979,0.74328
7115.13105,0.74349
7113.20231,0.74055
7111.27357,0.73343
7109.34482,0.72698
7107.41608,0.72348
7105.48734,0.72084
7103.55860,0.72122
7101.62985,0.72606
7099.70111,0.72848
7097.77237,0.72502
7095.84363,0.72056
7093.91488,0.71779
7091.98614,0.71685
7090.05740,0.71823
7088.12866,0.72010
7086.19991,0.71989
7084.27117,0.71740
7082.34243,0.71464
7080.41369,0.71327
7078.48494,0.71229
7076.55620,0.70891
7074.62746,0.70322
7072.69872,0.69997
7070.76997,0.70028
7068.84123,0.69998
7066.91249,0.69814
7064.98375,0.69720
7063.05500,0.69760
7061.12626,0.69755
7059.19752,0.69765
7057.26878,0.70021
7055.34003,0.70103
7053.41129,0.69555
7051.48255,0.68984
7049.55381,0.69011
7047.62506,0.69270
7045.69632,0.69251
7043.76758,0.69064
7041.83884,0.68883
7039.91009,0.68522
7037.98135,0.68104
7036.05261,0.67960
7034.12387,0.67985
7032.19512,0.67971
7030.26638,0.67885
7028.33764,0.67792
7026.40890,0.67785
7024.48015,0.67847
7022.55141,0.67747
7020.62267,0.67243
7018.69393,0.66677
7016.76518,0.66558
7014.83644,0.66665
7012.90770,0.66661
7010.97896,0.66546
7009.05021,0.66396
7007.12147,0.66372
7005.19273,0.66350
7003.26399,0.66088
7001.33524,0.65959
6999.40650,0.66243
6997.47776,0.66504
6995.54902,0.66385
6993.62027,0.66020
6991.69153,0.65640
6989.76279,0.65426
6987.83405,0.65425
6985.90530,0.65528
6983.97656,0.65724
6982.04782,0.65934
6980.11908,0.66071
6978.19033,0.66113
6976.26159,0.65768
6974.33285,0.65108
6972.40411,0.64719
6970.47536,0.64827
6968.54662,0.65037
6966.61788,0.64893
6964.68914,0.64536
6962.76039,0.64239
6960.83165,0.63996
6958.90291,0.63967
6956.97417,0.64177
6955.04542,0.64348
6953.11668,0.64463
6951.18794,0.64686
6949.25920,0.64905
6947.33045,0.64843
6945.40171,0.64576
6943.47297,0.64538
6941.54423,0.64719
6939.61548,0.64630
6937.68674,0.64249
6935.75800,0.64031
6933.82926,0.64117
6931.90051,0.64177
6929.97177,0.63991
6928.04303,0.63692
6926.11429,0.63518
6924.18554,0.63651
6922.25680,0.63863
6920.32806,0.63915
6918.39932,0.63835
6916.47057,0.63482
6914.54183,0.63020
6912.61309,0.62892
6910.68435,0.63144
6908.75560,0.63518
6906.82686,0.63831
6904.89812,0.64058
6902.96938,0.64022
6901.04063,0.63689
6899.11189,0.63438
6897.18315,0.63382
6895.25441,0.63279
6893.32566,0.63148
6891.39692,0.63185
6889.46818,0.63312
6887.53944,0.63356
6885.61069,0.63317
6883.68195,0.63334
6881.75321,0.63489
6879.82447,0.63598
6877.89572,0.63577
6875.96698,0.63532
6874.03824,0.63421
6872.10950,0.63211
6870.18075,0.63084
6868.25201,0.63169
6866.32327,0.63389
6864.39453,0.63673
6862.46578,0.63838
6860.53704,0.63646
6858.60830,0.63289
6856.67956,0.63148
6854.75081,0.63295
6852.82207,0.63433
6850.89333,0.63334
6848.96459,0.63101
6847.03584,0.62897
6845.10710,0.62809
6843.17836,0.62844
6841.24962,0.62954
6839.32087,0.63116
6837.39213,0.63238
6835.46339,0.63184
6833.53465,0.62991
6831.60590,0.62919
6829.67716,0.63079
6827.74842,0.63232
6825.81968,0.63103
6823.89093,0.62716
6821.96219,0.62424
6820.03345,0.62496
6818.10471,0.62733
6816.17596,0.62729
6814.24722,0.62484
6812.31848,0.62442
6810.38974,0.62679
6808.46099,0.62801
6806.53225,0.62688
6804.60351,0.62507
6802.67477,0.62445
6800.74602,0.62637
6798.81728,0.62861
6796.88854,0.62829
6794.95980,0.62624
6793.03105,0.62509
6791.10231,0.62561
6789.17357,0.62565
6787.24483,0.62440
6785.31608,0.62255
6783.38734,0.62083
6781.45860,0.62191
6779.52986,0.62480
6777.60111,0.62535
6775.67237,0.62395
6773.74363,0.62254
6771.81489,0.62121
6769.88614,0.62044
6767.95740,0.62065
6766.02866,0.62002
6764.09992,0.61919
6762.17117,0.62121
6760.24243,0.62316
6758.31369,0.62143
6756.38495,0.61862
6754.45620,0.61689
6752.52746,0.61658
6750.59872,0.61846
6748.66998,0.62103
6746.74123,0.62132
6744.81249,0.61886
6742.88375,0.61660
6740.95501,0.61687
6739.02626,0.61817
6737.09752,0.61856
6735.16878,0.61781
6733.24004,0.61699
6731.31129,0.61783
6729.38255,0.61884
6727.45381,0.61850
6725.52507,0.61803
6723.59632,0.61748
6721.66758,0.61797
6719.73884,0.62045
6717.81010,0.62182
6715.88135,0.62006
6713.95261,0.61837
6712.02387,0.61976
6710.09513,0.62174
6708.16638,0.62194
6706.23764,0.62176
6704.30890,0.62119
6702.38016,0.61942
6700.45141,0.61770
6698.52267,0.61723
6696.59393,0.61741
6694.66519,0.61701
6692.73644,0.61699
6690.80770,0.61817
6688.87896,0.61843
6686.95022,0.61671
6685.02147,0.61471
6683.09273,0.61420
6681.16399,0.61635
6679.23525,0.62064
6677.30650,0.62359
6675.37776,0.62281
6673.44902,0.62067
6671.52028,0.62082
6669.59153,0.62388
6667.66279,0.62675
6665.73405,0.62648
6663.80531,0.62501
6661.87656,0.62566
6659.94782,0.62732
6658.01908,0.62656
6656.09034,0.62429
6654.16159,0.62454
6652.23285,0.62710
6650.30411,0.62859
6648.37537,0.62769
6646.44662,0.62652
6644.51788,0.62748
6642.58914,0.62944
6640.66040,0.62964
6638.73165,0.62759
6636.80291,0.62520
6634.87417,0.62502
6632.94543,0.62710
6631.01668,0.62823
6629.08794,0.62765
6627.15920,0.62789
6625.23046,0.62880
6623.30171,0.62898
6621.37297,0.62854
6619.44423,0.62867
6617.51549,0.63024
6615.58674,0.63184
6613.65800,0.63237
6611.72926,0.63177
6609.80052,0.62953
6607.87177,0.62745
6605.94303,0.62834
6604.01429,0.63136
6602.08555,0.63358
6600.15680,0.63461
6598.22806,0.63438
6596.29932,0.63236
6594.37058,0.63134
6592.44183,0.63326
6590.51309,0.63532
6588.58435,0.63589
6586.65561,0.63672
6584.72686,0.63750
6582.79812,0.63695
6580.86938,0.63648
6578.94064,0.63694
6577.01190,0.63852
6575.08315,0.64185
6573.15441,0.64533
6571.22567,0.64668
6569.29693,0.64514
6567.36818,0.64209
6565.43944,0.63987
6563.51070,0.63890
6561.58196,0.63911
6559.65321,0.64064
6557.72447,0.64230
6555.79573,0.64371
6553.86699,0.64526
6551.93824,0.64563
6550.00950,0.64417
6548.08076,0.64223
6546.15202,0.64137
6544.22327,0.64240
6542.29453,0.64333
6540.36579,0.64256
6538.43705,0.64279
6536.50830,0.64460
6534.57956,0.64482
6532.65082,0.64433
6530.72208,0.64568
6528.79333,0.64626
6526.86459,0.64326
6524.93585,0.63931
6523.00711,0.63868
6521.07836,0.64229
6519.14962,0.64600
6517.22088,0.64514
6515.29214,0.64210
6513.36339,0.64214
6511.43465,0.64537
6509.50591,0.64880
6507.57717,0.65037
6505.64842,0.64999
6503.71968,0.64893
6501.79094,0.64851
6499.86220,0.64968
6497.93345,0.65134
6496.00471,0.65040
6494.07597,0.64784
6492.14723,0.64792
6490.21848,0.64932
6488.28974,0.64912
6486.36100,0.64848
6484.43226,0.64668
6482.50351,0.64436
6480.57477,0.64669
6478.64603,0.65252
6476.71729,0.65480
6474.78854,0.65327
6472.85980,0.65272
6470.93106,0.65232
6469.00232,0.64886
6467.07357,0.64528
6465.14483,0.64575
6463.21609,0.64824
6461.28735,0.64945
6459.35860,0.65000
6457.42986,0.65026
6455.50112,0.65060
6453.57238,0.65274
6451.64363,0.65500
6449.71489,0.65491
6447.78615,0.65296
6445.85741,0.65006
6443.92866,0.64737
6441.99992,0.64654
6440.07118,0.64796
6438.14244,0.65034
6436.21369,0.65176
6434.28495,0.65158
6432.35621,0.65070
6430.42747,0.64978
6428.49872,0.64937
6426.56998,0.65052
6424.64124,0.65254
6422.71250,0.65332
6420.78375,0.65235
6418.85501,0.65143
6416.92627,0.65239
6414.99753,0.65371
6413.06878,0.65325
6411.14004,0.65285
6409.21130,0.65446
6407.28256,0.65635
6405.35381,0.65644
6403.42507,0.65567
6401.49633,0.65611
6399.56759,0.65755
6397.63884,0.65790
6395.71010,0.65675
6393.78136,0.65583
6391.85262,0.65574
6389.92387,0.65617
6387.99513,0.65733
6386.06639,0.65857
6384.13765,0.65850
6382.20890,0.65695
6380.28016,0.65586
6378.35142,0.65665
6376.42268,0.65805
6374.49393,0.65886
6372.56519,0.65955
6370.63645,0.65977
6368.70771,0.65877
6366.77896,0.65799
6364.85022,0.65828
6362.92148,0.65864
6360.99274,0.65947
6359.06399,0.66148
6357.13525,0.66260
6355.20651,0.66133
6353.27777,0.66008
6351.34902,0.66015
6349.42028,0.66080
6347.49154,0.66323
6345.56280,0.66667
6343.63405,0.66733
6341.70531,0.66490
6339.77657,0.66249
6337.84783,0.66129
6335.91908,0.65990
6333.99034,0.65882
6332.06160,0.65971
6330.13286,0.66082
6328.20411,0.66149
6326.27537,0.66371
6324.34663,0.66556
6322.41789,0.66481
6320.48914,0.66363
6318.56040,0.66334
6316.63166,0.66378
6314.70292,0.66516
6312.77417,0.66609
6310.84543,0.66495
6308.91669,0.66309
6306.98795,0.66298
6305.05920,0.66431
6303.13046,0.66531
6301.20172,0.66499
6299.27298,0.66379
6297.34423,0.66376
6295.41549,0.66574
6293.48675,0.66836
6291.55801,0.67053
6289.62926,0.67165
6287.70052,0.67112
6285.77178,0.66988
6283.84304,0.66964
6281.91429,0.67013
6279.98555,0.66972
6278.05681,0.66944
6276.12807,0.67137
6274.19932,0.67320
6272.27058,0.67247
6270.34184,0.67137
6268.41310,0.67156
6266.48435,0.67167
6264.55561,0.67152
6262.62687,0.67205
6260.69813,0.67268
6258.76938,0.67332
6256.84064,0.67530
6254.91190,0.67824
6252.98316,0.67956
6251.05441,0.67927
6249.12567,0.68013
6247.19693,0.68126
6245.26819,0.68043
6243.33944,0.67967
6241.41070,0.68015
6239.48196,0.68004
6237.55322,0.67962
6235.62447,0.68083
6233.69573,0.68366
6231.76699,0.68562
6229.83825,0.68503
6227.90950,0.68371
6225.98076,0.68404
6224.05202,0.68518
6222.12328,0.68491
6220.19453,0.68376
6218.26579,0.68410
6216.33705,0.68666
6214.40831,0.69006
6212.47956,0.69195
6210.55082,0.69096
6208.62208,0.68911
6206.69334,0.68894
6204.76459,0.68945
6202.83585,0.68969
6200.90711,0.68990
6198.97837,0.68929
6197.04962,0.68905
6195.12088,0.69032
6193.19214,0.69103
6191.26340,0.69052
6189.33465,0.69011
6187.40591,0.69040
6185.47717,0.69122
6183.54843,0.69175
6181.61968,0.69161
6179.69094,0.69165
6177.76220,0.69256
6175.83346,0.69404
6173.90471,0.69560
6171.97597,0.69648
6170.04723,0.69585
6168.11849,0.69436
6166.18974,0.69392
6164.26100,0.69561
6162.33226,0.69722
6160.40352,0.69691
6158.47477,0.69689
6156.54603,0.69786
6154.61729,0.69805
6152.68855,0.69802
6150.75980,0.69838
6148.83106,0.69843
6146.90232,0.69920
6144.97358,0.70122
6143.04483,0.70242
6141.11609,0.70190
6139.18735,0.70154
6137.25861,0.70292
6135.32986,0.70486
6133.40112,0.70534
6131.47238,0.70435
6129.54364,0.70302
6127.61489,0.70217
6125.68615,0.70159
6123.75741,0.70092
6121.82867,0.70121
6119.89992,0.70229
6117.97118,0.70284
6116.04244,0.70325
6114.11370,0.70363
6112.18495,0.70369
6110.25621,0.70411
6108.32747,0.70469
6106.39873,0.70402
6104.46998,0.70198
6102.54124,0.70110
6100.61250,0.70276
6098.68376,0.70472
6096.75501,0.70561
6094.82627,0.70641
6092.89753,0.70678
6090.96879,0.70567
6089.04004,0.70399
6087.11130,0.70351
6085.18256,0.70398
6083.25382,0.70384
6081.32507,0.70332
6079.39633,0.70339
6077.46759,0.70367
6075.53885,0.70380
6073.61010,0.70355
6071.68136,0.70283
6069.75262,0.70281
6067.82388,0.70316
6065.89513,0.70201
6063.96639,0.70054
6062.03765,0.70032
6060.10891,0.70024
6058.18016,0.70007
6056.25142,0.70050
6054.32268,0.70112
6052.39394,0.70091
6050.46519,0.70013
6048.53645,0.70048
6046.60771,0.70108
6044.67897,0.69985
6042.75022,0.69848
6040.82148,0.69883
6038.89274,0.69944
6036.96400,0.69851
6035.03525,0.69609
6033.10651,0.69396
6031.17777,0.69351
6029.24903,0.69444
6027.32029,0.69605
6025.39154,0.69664
6023.46280,0.69524
6021.53406,0.69387
6019.60532,0.69341
6017.67657,0.69276
6015.74783,0.69167
6013.81909,0.69016
6011.89035,0.68827
6009.96160,0.68662
6008.03286,0.68643
6006.10412,0.68844
6004.17538,0.69069
6002.24663,0.69095
6000.31789,0.69029
5998.38915,0.69034
5996.46041,0.69056
5994.53166,0.69025
5992.60292,0.68950
5990.67418,0.68830
5988.74544,0.68754
5986.81669,0.68804
5984.88795,0.68841
5982.95921,0.68785
5981.03047,0.68734
5979.10172,0.68713
5977.17298,0.68709
5975.24424,0.68754
5973.31550,0.68816
5971.38675,0.68710
5969.45801,0.68397
5967.52927,0.68097
5965.60053,0.67979
5963.67178,0.68093
5961.74304,0.68281
5959.81430,0.68327
5957.88556,0.68384
5955.95681,0.68594
5954.02807,0.68723
5952.09933,0.68643
5950.17059,0.68535
5948.24184,0.68498
5946.31310,0.68458
5944.38436,0.68355
5942.45562,0.68286
5940.52687,0.68389
5938.59813,0.68581
5936.66939,0.68649
5934.74065,0.68526
5932.81190,0.68456
5930.88316,0.68611
5928.95442,0.68718
5927.02568,0.68610
5925.09693,0.68509
5923.16819,0.68540
5921.23945,0.68560
5919.31071,0.68403
5917.38196,0.68140
5915.45322,0.68043
5913.52448,0.68228
5911.59574,0.68450
5909.66699,0.68434
5907.73825,0.68222
5905.80951,0.68019
5903.88077,0.67973
5901.95202,0.68067
5900.02328,0.68127
5898.09454,0.68082
5896.16580,0.68014
5894.23705,0.67945
5892.30831,0.67831
5890.37957,0.67699
5888.45083,0.67665
5886.52208,0.67765
5884.59334,0.67858
5882.66460,0.67794
5880.73586,0.67627
5878.80711,0.67545
5876.87837,0.67625
5874.94963,0.67741
5873.02089,0.67722
5871.09214,0.67603
5869.16340,0.67511
5867.23466,0.67392
5865.30592,0.67266
5863.37717,0.67349
5861.44843,0.67568
5859.51969,0.67600
5857.59095,0.67453
5855.66220,0.67387
5853.73346,0.67459
5851.80472,0.67548
5849.87598,0.67588
5847.94723,0.67594
5846.01849,0.67534
5844.08975,0.67393
5842.16101,0.67315
5840.23226,0.67360
5838.30352,0.67329
5836.37478,0.67209
5834.44604,0.67238
5832.51729,0.67429
5830.58855,0.67584
5828.65981,0.67587
5826.73107,0.67519
5824.80232,0.67481
5822.87358,0.67423
5820.94484,0.67299
5819.01610,0.67167
5817.08735,0.67163
5815.15861,0.67289
5813.22987,0.67354
5811.30113,0.67306
5809.37238,0.67237
5807.44364,0.67156
5805.51490,0.67020
5803.58616,0.66870
5801.65741,0.66798
5799.72867,0.66832
5797.79993,0.66887
5795.87119,0.66890
5793.94244,0.66911
5792.01370,0.67019
5790.08496,0.67129
5788.15622,0.67122
5786.22747,0.67049
5784.29873,0.67035
5782.36999,0.67007
5780.44125,0.66921
5778.51250,0.66903
5776.58376,0.66965
5774.65502,0.66997
5772.72628,0.66962
5770.79753,0.66963
5768.86879,0.67098
5766.94005,0.67287
5765.01131,0.67410
5763.08256,0.67503
5761.15382,0.67628
5759.22508,0.67721
5757.29634,0.67701
5755.36759,0.67626
5753.43885,0.67623
5751.51011,0.67637
5749.58137,0.67549
5747.65262,0.67448
5745.72388,0.67427
5743.79514,0.67443
5741.86640,0.67459
5739.93765,0.67463
5738.00891,0.67445
5736.08017,0.67432
5734.15143,0.67411
5732.22268,0.67343
5730.29394,0.67336
5728.36520,0.67420
5726.43646,0.67442
5724.50771,0.67377
5722.57897,0.67332
5720.65023,0.67375
5718.72149,0.67469
5716.79274,0.67509
5714.86400,0.67496
5712.93526,0.67496
5711.00652,0.67537
5709.07777,0.67615
5707.14903,0.67701
5705.22029,0.67745
5703.29155,0.67664
5701.36280,0.67501
5699.43406,0.67434
5697.50532,0.67474
5695.57658,0.67519
5693.64783,0.67535
5691.71909,0.67492
5689.79035,0.67451
5687.86161,0.67541
5685.93286,0.67664
5684.00412,0.67649
5682.07538,0.67588
5680.14664,0.67621
5678.21789,0.67646
5676.28915,0.67549
5674.36041,0.67447
5672.43167,0.67456
5670.50292,0.67509
5668.57418,0.67515
5666.64544,0.67503
5664.71670,0.67553
5662.78795,0.67610
5660.85921,0.67613
5658.93047,0.67593
5657.00173,0.67528
5655.07298,0.67435
5653.14424,0.67410
5651.21550,0.67457
5649.28676,0.67500
5647.35801,0.67523
5645.42927,0.67550
5643.50053,0.67540
5641.57179,0.67481
5639.64304,0.67461
5637.71430,0.67514
5635.78556,0.67550
5633.85682,0.67501
5631.92807,0.67434
5629.99933,0.67421
5628.07059,0.67429
5626.14185,0.67433
5624.21310,0.67426
5622.28436,0.67408
5620.35562,0.67406
5618.42688,0.67413
5616.49813,0.67429
5614.56939,0.67448
5612.64065,0.67413
5610.71191,0.67314
5608.78316,0.67233
5606.85442,0.67217
5604.92568,0.67274
5602.99694,0.67398
5601.06819,0.67507
5599.13945,0.67542
5597.21071,0.67561
5595.28197,0.67557
5593.35322,0.67509
5591.42448,0.67543
5589.49574,0.67666
5587.56700,0.67665
5585.63825,0.67530
5583.70951,0.67465
5581.78077,0.67507
5579.85203,0.67582
5577.92328,0.67674
5575.99454,0.67734
5574.06580,0.67759
5572.13706,0.67818
5570.20831,0.67859
5568.27957,0.67826
5566.35083,0.67769
5564.42209,0.67687
5562.49334,0.67607
5560.56460,0.67627
5558.63586,0.67740
5556.70712,0.67822
5554.77837,0.67812
5552.84963,0.67834
5550.92089,0.67945
5548.99215,0.68014
5547.06340,0.67996
5545.13466,0.67948
5543.20592,0.67911
5541.27718,0.67964
5539.34843,0.68081
5537.41969,0.68084
5535.49095,0.67978
5533.56221,0.67956
5531.63346,0.68006
5529.70472,0.67965
5527.77598,0.67905
5525.84724,0.67963
5523.91849,0.68062
5521.98975,0.68150
5520.06101,0.68246
5518.13227,0.68277
5516.20352,0.68219
5514.27478,0.68142
5512.34604,0.68076
5510.41730,0.68044
5508.48855,0.68060
5506.55981,0.68040
5504.63107,0.67970
5502.70233,0.67975
5500.77358,0.68047
5498.84484,0.68070
5496.91610,0.68056
5494.98736,0.68078
5493.05861,0.68123
5491.12987,0.68147
5489.20113,0.68146
5487.27239,0.68105
5485.34365,0.68073
5483.41490,0.68123
5481.48616,0.68168
5479.55742,0.68169
5477.62868,0.68223
5475.69993,0.68284
5473.77119,0.68265
5471.84245,0.68269
5469.91371,0.68372
5467.98496,0.68466
5466.05622,0.68467
5464.12748,0.68431
5462.19874,0.68408
5460.26999,0.68385
5458.34125,0.68367
5456.41251,0.68400
5454.48377,0.68485
5452.55502,0.68539
5450.62628,0.68553
5448.69754,0.68583
5446.76880,0.68604
5444.84005,0.68587
5442.91131,0.68552
5440.98257,0.68583
5439.05383,0.68697
5437.12508,0.68740
5435.19634,0.68681
5433.26760,0.68677
5431.33886,0.68731
5429.41011,0.68740
5427.48137,0.68740
5425.55263,0.68800
5423.62389,0.68905
5421.69514,0.68960
5419.76640,0.68899
5417.83766,0.68829
5415.90892,0.68864
5413.98017,0.68968
5412.05143,0.69050
5410.12269,0.69073
5408.19395,0.69116
5406.26520,0.69203
5404.33646,0.69270
5402.40772,0.69293
5400.47898,0.69274
5398.55023,0.69236
5396.62149,0.69163
5394.69275,0.69058
5392.76401,0.69055
5390.83526,0.69136
5388.90652,0.69157
5386.97778,0.69177
5385.04904,0.69212
5383.12029,0.69172
5381.19155,0.69163
5379.26281,0.69237
5377.33407,0.69245
5375.40532,0.69176
5373.47658,0.69114
5371.54784,0.69070
5369.61910,0.69065
5367.69035,0.69084
5365.76161,0.69096
5363.83287,0.69100
5361.90413,0.69042
5359.97538,0.68963
5358.04664,0.68961
5356.11790,0.68959
5354.18916,0.68885
5352.26041,0.68817
5350.33167,0.68801
5348.40293,0.68810
5346.47419,0.68789
5344.54544,0.68704
5342.61670,0.68633
5340.68796,0.68663
5338.75922,0.68722
5336.83047,0.68694
5334.90173,0.68588
5332.97299,0.68496
5331.04425,0.68446
5329.11550,0.68353
5327.18676,0.68190
5325.25802,0.68051
5323.32928,0.67943
5321.40053,0.67812
5319.47179,0.67695
5317.54305,0.67605
5315.61431,0.67475
5313.68556,0.67304
5311.75682,0.67131
5309.82808,0.66928
5307.89934,0.66713
5305.97059,0.66524
5304.04185,0.66278
5302.11311,0.65997
5300.18437,0.65793
5298.25562,0.65641
5296.32688,0.65499
5294.39814,0.65354
5292.46940,0.65150
5290.54065,0.64872
5288.61191,0.64569
5286.68317,0.64255
5284.75443,0.63912
5282.82568,0.63570
5280.89694,0.63202
5278.96820,0.62784
5277.03946,0.62409
5275.11071,0.62148
5273.18197,0.61916
5271.25323,0.61592
5269.32449,0.61194
5267.39574,0.60805
5265.46700,0.60446
5263.53826,0.60117
5261.60952,0.59792
5259.68077,0.59446
5257.75203,0.59094
5255.82329,0.58736
5253.89455,0.58386
5251.96580,0.58085
5250.03706,0.57827
5248.10832,0.57575
5246.17958,0.57302
5244.25083,0.57014
5242.32209,0.56720
5240.39335,0.56446
5238.46461,0.56214
5236.53586,0.55988
5234.60712,0.55759
5232.67838,0.55576
5230.74964,0.55431
5228.82089,0.55325
5226.89215,0.55260
5224.96341,0.55152
5223.03467,0.54961
5221.10592,0.54786
5219.17718,0.54694
5217.24844,0.54593
5215.31970,0.54404
5213.39095,0.54200
5211.46221,0.54104
5209.53347,0.54135
5207.60473,0.54180
5205.67598,0.54160
5203.74724,0.54105
5201.81850,0.54026
5199.88976,0.53917
5197.96101,0.53815
5196.03227,0.53742
5194.10353,0.53671
5192.17479,0.53612
5190.24604,0.53577
5188.31730,0.53575
5186.38856,0.53633
5184.45982,0.53704
5182.53107,0.53746
5180.60233,0.53800
5178.67359,0.53840
5176.74485,0.53791
5174.81610,0.53715
5172.88736,0.53719
5170.95862,0.53785
5169.02988,0.53864
5167.10113,0.53966
5165.17239,0.54046
5163.24365,0.54056
5161.31491,0.54065
5159.38616,0.54139
5157.45742,0.54242
5155.52868,0.54294
5153.59994,0.54302
5151.67119,0.54349
5149.74245,0.54398
5147.81371,0.54388
5145.88497,0.54400
5143.95622,0.54479
5142.02748,0.54576
5140.09874,0.54654
5138.17000,0.54718
5136.24125,0.54782
5134.31251,0.54811
5132.38377,0.54779
5130.45503,0.54782
5128.52628,0.54888
5126.59754,0.55007
5124.66880,0.55038
5122.74006,0.54983
5120.81131,0.54916
5118.88257,0.54887
5116.95383,0.54862
5115.02509,0.54806
5113.09634,0.54742
5111.16760,0.54721
5109.23886,0.54726
5107.31012,0.54699
5105.38137,0.54635
5103.45263,0.54535
5101.52389,0.54426
5099.59515,0.54375
5097.66640,0.54376
5095.73766,0.54342
5093.80892,0.54235
5091.88018,0.54144
5089.95143,0.54168
5088.02269,0.54237
5086.09395,0.54229
5084.16521,0.54170
5082.23646,0.54123
5080.30772,0.54076
5078.37898,0.54051
5076.45024,0.54089
5074.52149,0.54144
5072.59275,0.54179
5070.66401,0.54215
5068.73527,0.54244
5066.80652,0.54284
5064.87778,0.54368
5062.94904,0.54460
5061.02030,0.54530
5059.09155,0.54591
5057.16281,0.54684
5055.23407,0.54814
5053.30533,0.54899
5051.37658,0.54910
5049.44784,0.54935
5047.51910,0.55051
5045.59036,0.55229
5043.66161,0.55364
5041.73287,0.55428
5039.80413,0.55498
5037.87539,0.55624
5035.94664,0.55742
5034.01790,0.55792
5032.08916,0.55841
5030.16042,0.55959
5028.23167,0.56119
5026.30293,0.56238
5024.37419,0.56275
5022.44545,0.56290
5020.51670,0.56315
5018.58796,0.56327
5016.65922,0.56353
5014.73048,0.56407
5012.80173,0.56452
5010.87299,0.56522
5008.94425,0.56658
5007.01551,0.56803
5005.08676,0.56892
5003.15802,0.56933
5001.22928,0.56956
4999.30054,0.56968
4997.37179,0.56989
4995.44305,0.57022
4993.51431,0.57049
4991.58557,0.57085
4989.65682,0.57126
4987.72808,0.57126
4985.79934,0.57108
4983.87060,0.57123
4981.94185,0.57140
4980.01311,0.57135
4978.08437,0.57153
4976.15563,0.57189
4974.22688,0.57166
4972.29814,0.57081
4970.36940,0.57016
4968.44066,0.56978
4966.51191,0.56941
4964.58317,0.56908
4962.65443,0.56830
4960.72569,0.56686
4958.79694,0.56541
4956.86820,0.56424
4954.93946,0.56312
4953.01072,0.56189
4951.08197,0.56044
4949.15323,0.55891
4947.22449,0.55747
4945.29575,0.55604
4943.36700,0.55478
4941.43826,0.55403
4939.50952,0.55358
4937.58078,0.55288
4935.65204,0.55205
4933.72329,0.55131
4931.79455,0.55014
4929.86581,0.54862
4927.93707,0.54737
4926.00832,0.54624
4924.07958,0.54516
4922.15084,0.54442
4920.22210,0.54368
4918.29335,0.54272
4916.36461,0.54215
4914.43587,0.54204
4912.50713,0.54164
4910.57838,0.54059
4908.64964,0.53914
4906.72090,0.53785
4904.79216,0.53682
4902.86341,0.53574
4900.93467,0.53489
4899.00593,0.53436
4897.07719,0.53380
4895.14844,0.53292
4893.21970,0.53181
4891.29096,0.53067
4889.36222,0.52936
4887.43347,0.52795
4885.50473,0.52692
4883.57599,0.52632
4881.64725,0.52543
4879.71850,0.52403
4877.78976,0.52306
4875.86102,0.52306
4873.93228,0.52301
4872.00353,0.52196
4870.07479,0.52027
4868.14605,0.51884
4866.21731,0.51787
4864.28856,0.51698
4862.35982,0.51599
4860.43108,0.51509
4858.50234,0.51414
4856.57359,0.51285
4854.64485,0.51151
4852.71611,0.51039
4850.78737,0.50951
4848.85862,0.50881
4846.92988,0.50802
4845.00114,0.50696
4843.07240,0.50589
4841.14365,0.50513
4839.21491,0.50433
4837.28617,0.50286
4835.35743,0.50105
4833.42868,0.49981
4831.49994,0.49928
4829.57120,0.49893
4827.64246,0.49810
4825.71371,0.49707
4823.78497,0.49689
4821.85623,0.49714
4819.92749,0.49656
4817.99874,0.49541
4816.07000,0.49441
4814.14126,0.49343
4812.21252,0.49239
4810.28377,0.49167
4808.35503,0.49168
4806.42629,0.49200
4804.49755,0.49164
4802.56880,0.49058
4800.64006,0.48964
4798.71132,0.48929
4796.78258,0.48928
4794.85383,0.48936
4792.92509,0.48968
4790.99635,0.48985
4789.06761,0.48931
4787.13886,0.48865
4785.21012,0.48864
4783.28138,0.48869
4781.35264,0.48811
4779.42389,0.48744
4777.49515,0.48732
4775.56641,0.48739
4773.63767,0.48701
4771.70892,0.48651
4769.78018,0.48646
4767.85144,0.48643
4765.92270,0.48578
4763.99395,0.48494
4762.06521,0.48481
4760.13647,0.48534
4758.20773,0.48578
4756.27898,0.48576
4754.35024,0.48549
4752.42150,0.48521
4750.49276,0.48480
4748.56401,0.48427
4746.63527,0.48382
4744.70653,0.48371
4742.77779,0.48438
4740.84904,0.48517
4738.92030,0.48510
4736.99156,0.48459
4735.06282,0.48436
4733.13407,0.48444
4731.20533,0.48451
4729.27659,0.48415
4727.34785,0.48355
4725.41910,0.48346
4723.49036,0.48389
4721.56162,0.48430
4719.63288,0.48461
4717.70413,0.48477
4715.77539,0.48475
4713.84665,0.48484
4711.91791,0.48500
4709.98916,0.48506
4708.06042,0.48503
4706.13168,0.48477
4704.20294,0.48434
4702.27419,0.48412
4700.34545,0.48397
4698.41671,0.48355
4696.48797,0.48321
4694.55922,0.48356
4692.63048,0.48431
4690.70174,0.48479
4688.77300,0.48504
4686.84425,0.48531
4684.91551,0.48542
4682.98677,0.48524
4681.05803,0.48532
4679.12928,0.48582
4677.20054,0.48584
4675.27180,0.48531
4673.34306,0.48509
4671.41431,0.48526
4669.48557,0.48563
4667.55683,0.48626
4665.62809,0.48694
4663.69934,0.48747
4661.77060,0.48771
4659.84186,0.48744
4657.91312,0.48732
4655.98437,0.48774
4654.05563,0.48808
4652.12689,0.48821
4650.19815,0.48829
4648.26940,0.48853
4646.34066,0.48915
4644.41192,0.48962
4642.48318,0.48971
4640.55443,0.48997
4638.62569,0.49031
4636.69695,0.49032
4634.76821,0.49035
4632.83946,0.49072
4630.91072,0.49146
4628.98198,0.49269
4627.05324,0.49389
4625.12449,0.49419
4623.19575,0.49406
4621.26701,0.49476
4619.33827,0.49602
4617.40952,0.49667
4615.48078,0.49697
4613.55204,0.49769
4611.62330,0.49861
4609.69455,0.49926
4607.76581,0.49965
4605.83707,0.50019
4603.90833,0.50101
4601.97958,0.50170
4600.05084,0.50226
4598.12210,0.50300
4596.19336,0.50372
4594.26461,0.50424
4592.33587,0.50466
4590.40713,0.50500
4588.47839,0.50537
4586.54964,0.50595
4584.62090,0.50659
4582.69216,0.50710
4580.76342,0.50761
4578.83467,0.50802
4576.90593,0.50787
4574.97719,0.50750
4573.04845,0.50762
4571.11970,0.50816
4569.19096,0.50871
4567.26222,0.50911
4565.33348,0.50933
4563.40473,0.50924
4561.47599,0.50906
4559.54725,0.50925
4557.61851,0.50972
4555.68976,0.50991
4553.76102,0.50960
4551.83228,0.50917
4549.90354,0.50913
4547.97479,0.50941
4546.04605,0.50975
4544.11731,0.51021
4542.18857,0.51070
4540.25982,0.51103
4538.33108,0.51135
4536.40234,0.51171
4534.47360,0.51211
4532.54485,0.51260
4530.61611,0.51292
4528.68737,0.51293
4526.75863,0.51314
4524.82988,0.51376
4522.90114,0.51439
4520.97240,0.51461
4519.04366,0.51442
4517.11491,0.51428
4515.18617,0.51413
4513.25743,0.51369
4511.32869,0.51341
4509.39994,0.51356
4507.47120,0.51364
4505.54246,0.51341
4503.61372,0.51302
4501.68497,0.51258
4499.75623,0.51226
4497.82749,0.51214
4495.89875,0.51200
4493.97000,0.51157
4492.04126,0.51075
4490.11252,0.50956
4488.18378,0.50832
4486.25503,0.50736
4484.32629,0.50672
4482.39755,0.50590
4480.46881,0.50444
4478.54006,0.50285
4476.61132,0.50147
4474.68258,0.49994
4472.75384,0.49796
4470.82509,0.49561
4468.89635,0.49341
4466.96761,0.49185
4465.03887,0.49074
4463.11012,0.48932
4461.18138,0.48724
4459.25264,0.48503
4457.32390,0.48297
4455.39515,0.48088
4453.46641,0.47875
4451.53767,0.47660
4449.60893,0.47460
4447.68018,0.47287
4445.75144,0.47113
4443.82270,0.46926
4441.89396,0.46718
4439.96521,0.46474
4438.03647,0.46212
4436.10773,0.45961
4434.17899,0.45730
4432.25024,0.45522
4430.32150,0.45325
4428.39276,0.45111
4426.46402,0.44879
4424.53527,0.44664
4422.60653,0.44466
4420.67779,0.44240
4418.74905,0.44004
4416.82030,0.43821
4414.89156,0.43694
4412.96282,0.43585
4411.03408,0.43491
4409.10533,0.43413
4407.17659,0.43326
4405.24785,0.43254
4403.31911,0.43196
4401.39036,0.43123
4399.46162,0.43059
4397.53288,0.43037
4395.60414,0.43069
4393.67539,0.43134
4391.74665,0.43177
4389.81791,0.43213
4387.88917,0.43300
4385.96043,0.43434
4384.03168,0.43550
4382.10294,0.43616
4380.17420,0.43680
4378.24546,0.43787
4376.31671,0.43898
4374.38797,0.43971
4372.45923,0.44050
4370.53049,0.44166
4368.60174,0.44285
4366.67300,0.44397
4364.74426,0.44508
4362.81552,0.44600
4360.88677,0.44667
4358.95803,0.44726
4357.02929,0.44765
4355.10055,0.44786
4353.17180,0.44838
4351.24306,0.44897
4349.31432,0.44894
4347.38558,0.44835
4345.45683,0.44777
4343.52809,0.44786
4341.59935,0.44842
4339.67061,0.44834
4337.74186,0.44757
4335.81312,0.44700
4333.88438,0.44674
4331.95564,0.44642
4330.02689,0.44592
4328.09815,0.44510
4326.16941,0.44382
4324.24067,0.44237
4322.31192,0.44147
4320.38318,0.44153
4318.45444,0.44186
4316.52570,0.44191
4314.59695,0.44192
4312.66821,0.44173
4310.73947,0.44104
4308.81073,0.44014
4306.88198,0.43946
4304.95324,0.43887
4303.02450,0.43810
4301.09576,0.43743
4299.16701,0.43694
4297.23827,0.43615
4295.30953,0.43506
4293.38079,0.43420
4291.45204,0.43366
4289.52330,0.43303
4287.59456,0.43230
4285.66582,0.43196
4283.73707,0.43188
4281.80833,0.43166
4279.87959,0.43147
4277.95085,0.43159
4276.02210,0.43177
4274.09336,0.43188
4272.16462,0.43220
4270.23588,0.43272
4268.30713,0.43314
4266.37839,0.43361
4264.44965,0.43436
4262.52091,0.43513
4260.59216,0.43539
4258.66342,0.43520
4256.73468,0.43518
4254.80594,0.43569
4252.87719,0.43659
4250.94845,0.43739
4249.01971,0.43754
4247.09097,0.43734
4245.16222,0.43743
4243.23348,0.43771
4241.30474,0.43796
4239.37600,0.43824
4237.44725,0.43851
4235.51851,0.43876
4233.58977,0.43908
4231.66103,0.43930
4229.73228,0.43930
4227.80354,0.43929
4225.87480,0.43938
4223.94606,0.43949
4222.01731,0.43954
4220.08857,0.43942
4218.15983,0.43921
4216.23109,0.43914
4214.30234,0.43936
4212.37360,0.43969
4210.44486,0.43965
4208.51612,0.43927
4206.58737,0.43919
4204.65863,0.43936
4202.72989,0.43919
4200.80115,0.43878
4198.87240,0.43871
4196.94366,0.43902
4195.01492,0.43899
4193.08618,0.43861
4191.15743,0.43881
4189.22869,0.43951
4187.29995,0.43995
4185.37121,0.44035
4183.44246,0.44098
4181.51372,0.44153
4179.58498,0.44188
4177.65624,0.44224
4175.72749,0.44268
4173.79875,0.44332
4171.87001,0.44411
4169.94127,0.44457
4168.01252,0.44464
4166.08378,0.44488
4164.15504,0.44547
4162.22630,0.44595
4160.29755,0.44586
4158.36881,0.44528
4156.44007,0.44468
4154.51133,0.44444
4152.58258,0.44437
4150.65384,0.44401
4148.72510,0.44342
4146.79636,0.44273
4144.86761,0.44203
4142.93887,0.44143
4141.01013,0.44077
4139.08139,0.43989
4137.15264,0.43903
4135.22390,0.43836
4133.29516,0.43765
4131.36642,0.43659
4129.43767,0.43514
4127.50893,0.43364
4125.58019,0.43245
4123.65145,0.43142
4121.72270,0.43024
4119.79396,0.42895
4117.86522,0.42767
4115.93648,0.42632
4114.00773,0.42509
4112.07899,0.42417
4110.15025,0.42318
4108.22151,0.42159
4106.29276,0.41965
4104.36402,0.41795
4102.43528,0.41649
4100.50654,0.41490
4098.57779,0.41319
4096.64905,0.41157
4094.72031,0.41019
4092.79157,0.40881
4090.86282,0.40712
4088.93408,0.40517
4087.00534,0.40338
4085.07660,0.40192
4083.14785,0.40038
4081.21911,0.39859
4079.29037,0.39700
4077.36163,0.39545
4075.43288,0.39341
4073.50414,0.39116
4071.57540,0.38920
4069.64666,0.38742
4067.71791,0.38571
4065.78917,0.38407
4063.86043,0.38227
4061.93169,0.38042
4060.00294,0.37885
4058.07420,0.37728
4056.14546,0.37529
4054.21672,0.37314
4052.28797,0.37138
4050.35923,0.36995
4048.43049,0.36834
4046.50175,0.36652
4044.57300,0.36484
4042.64426,0.36340
4040.71552,0.36218
4038.78678,0.36096
4036.85803,0.35950
4034.92929,0.35818
4033.00055,0.35723
4031.07181,0.35619
4029.14306,0.35483
4027.21432,0.35377
4025.28558,0.35329
4023.35684,0.35286
4021.42809,0.35217
4019.49935,0.35144
4017.57061,0.35091
4015.64187,0.35059
4013.71312,0.35048
4011.78438,0.35049
4009.85564,0.35059
4007.92690,0.35086
4005.99815,0.35119
4004.06941,0.35147
4002.14067,0.35193
4000.21193,0.35253
3998.28318,0.35301
3996.35444,0.35334
3994.42570,0.35375
3992.49696,0.35413
3990.56821,0.35446
3988.63947,0.35490
3986.71073,0.35539
3984.78199,0.35587
3982.85324,0.35625
3980.92450,0.35655
3978.99576,0.35714
3977.06702,0.35803
3975.13827,0.35886
3973.20953,0.35968
3971.28079,0.36066
3969.35205,0.36163
3967.42330,0.36238
3965.49456,0.36296
3963.56582,0.36359
3961.63708,0.36446
3959.70833,0.36546
3957.77959,0.36621
3955.85085,0.36663
3953.92211,0.36718
3951.99336,0.36816
3950.06462,0.36933
3948.13588,0.37031
3946.20714,0.37122
3944.27839,0.37218
3942.34965,0.37311
3940.42091,0.37410
3938.49217,0.37522
3936.56342,0.37633
3934.63468,0.37721
3932.70594,0.37785
3930.77720,0.37858
3928.84845,0.37939
3926.91971,0.38010
3924.99097,0.38083
3923.06223,0.38154
3921.13348,0.38219
3919.20474,0.38301
3917.27600,0.38388
3915.34726,0.38458
3913.41851,0.38523
3911.48977,0.38595
3909.56103,0.38672
3907.63229,0.38753
3905.70354,0.38838
3903.77480,0.38919
3901.84606,0.38995
3899.91732,0.39065
3897.98857,0.39133
3896.05983,0.39204
3894.13109,0.39275
3892.20235,0.39344
3890.27360,0.39393
3888.34486,0.39429
3886.41612,0.39487
3884.48738,0.39565
3882.55863,0.39628
3880.62989,0.39686
3878.70115,0.39761
3876.77241,0.39834
3874.84366,0.39898
3872.91492,0.39966
3870.98618,0.40049
3869.05744,0.40165
3867.12869,0.40296
3865.19995,0.40415
3863.27121,0.40532
3861.34247,0.40643
3859.41372,0.40737
3857.48498,0.40810
3855.55624,0.40876
3853.62750,0.40972
3851.69875,0.41094
3849.77001,0.41216
3847.84127,0.41341
3845.91253,0.41456
3843.98378,0.41547
3842.05504,0.41611
3840.12630,0.41645
3838.19756,0.41670
3836.26882,0.41705
3834.34007,0.41749
3832.41133,0.41815
3830.48259,0.41890
3828.55385,0.41933
3826.62510,0.41947
3824.69636,0.41976
3822.76762,0.42034
3820.83888,0.42076
3818.91013,0.42079
3816.98139,0.42082
3815.05265,0.42111
3813.12391,0.42143
3811.19516,0.42148
3809.26642,0.42122
3807.33768,0.42096
3805.40894,0.42093
3803.48019,0.42111
3801.55145,0.42147
3799.62271,0.42165
3797.69397,0.42149
3795.76522,0.42137
3793.83648,0.42135
3791.90774,0.42125
3789.97900,0.42113
3788.05025,0.42102
3786.12151,0.42072
3784.19277,0.42017
3782.26403,0.41970
3780.33528,0.41957
3778.40654,0.41954
3776.47780,0.41923
3774.54906,0.41884
3772.62031,0.41868
3770.69157,0.41846
3768.76283,0.41762
3766.83409,0.41644
3764.90534,0.41571
3762.97660,0.41525
3761.04786,0.41454
3759.11912,0.41389
3757.19037,0.41336
3755.26163,0.41249
3753.33289,0.41142
3751.40415,0.41047
3749.47540,0.40958
3747.54666,0.40875
3745.61792,0.40789
3743.68918,0.40687
3741.76043,0.40591
3739.83169,0.40501
3737.90295,0.40375
3735.97421,0.40221
3734.04546,0.40073
3732.11672,0.39914
3730.18798,0.39744
3728.25924,0.39580
3726.33049,0.39400
3724.40175,0.39209
3722.47301,0.39035
3720.54427,0.38859
3718.61552,0.38665
3716.68678,0.38468
3714.75804,0.38252
3712.82930,0.37976
3710.90055,0.37662
3708.97181,0.37377
3707.04307,0.37111
3705.11433,0.36797
3703.18558,0.36444
3701.25684,0.36108
3699.32810,0.35765
3697.39936,0.35361
3695.47061,0.34921
3693.54187,0.34481
3691.61313,0.34030
3689.68439,0.33524
3687.75564,0.32934
3685.82690,0.32320
3683.89816,0.31714
3681.96942,0.31077
3680.04067,0.30426
3678.11193,0.29790
3676.18319,0.29100
3674.25445,0.28352
3672.32570,0.27631
3670.39696,0.26882
3668.46822,0.26125
3666.53948,0.25459
3664.61073,0.24823
3662.68199,0.24159
3660.75325,0.23496
3658.82451,0.22864
3656.89576,0.22218
3654.96702,0.21579
3653.03828,0.21028
3651.10954,0.20495
3649.18079,0.19915
3647.25205,0.19371
3645.32331,0.18904
3643.39457,0.18481
3641.46582,0.18068
3639.53708,0.17642
3637.60834,0.17195
3635.67960,0.16722
3633.75085,0.16276
3631.82211,0.15920
3629.89337,0.15606
3627.96463,0.15268
3626.03588,0.14932
3624.10714,0.14613
3622.17840,0.14305
3620.24966,0.13999
3618.32091,0.13680
3616.39217,0.13368
3614.46343,0.13083
3612.53469,0.12824
3610.60594,0.12568
3608.67720,0.12288
3606.74846,0.11990
3604.81972,0.11703
3602.89097,0.11441
3600.96223,0.11202
3599.03349,0.10973
3597.10475,0.10736
3595.17600,0.10487
3593.24726,0.10255
3591.31852,0.10060
3589.38978,0.09866
3587.46103,0.09655
3585.53229,0.09461
3583.60355,0.09285
3581.67481,0.09118
3579.74606,0.08950
3577.81732,0.08768
3575.88858,0.08586
3573.95984,0.08420
3572.03109,0.08271
3570.10235,0.08145
3568.17361,0.08035
3566.24487,0.07930
3564.31612,0.07823
3562.38738,0.07692
3560.45864,0.07527
3558.52990,0.07365
3556.60115,0.07249
3554.67241,0.07161
3552.74367,0.07063
3550.81493,0.06960
3548.88618,0.06866
3546.95744,0.06765
3545.02870,0.06656
3543.09996,0.06563
3541.17121,0.06489
3539.24247,0.06425
3537.31373,0.06355
3535.38499,0.06265
3533.45624,0.06170
3531.52750,0.06079
3529.59876,0.05986
3527.67002,0.05897
3525.74127,0.05813
3523.81253,0.05737
3521.88379,0.05664
3519.95505,0.05564
3518.02630,0.05454
3516.09756,0.05384
3514.16882,0.05356
3512.24008,0.05322
3510.31133,0.05256
3508.38259,0.05168
3506.45385,0.05093
3504.52511,0.05043
3502.59636,0.04988
3500.66762,0.04928
3498.73888,0.04888
3496.81014,0.04855
3494.88139,0.04814
3492.95265,0.04775
3491.02391,0.04729
3489.09517,0.04666
3487.16642,0.04598
3485.23768,0.04538
3483.30894,0.04502
3481.38020,0.04493
3479.45145,0.04483
3477.52271,0.04437
3475.59397,0.04374
3473.66523,0.04332
3471.73648,0.04321
3469.80774,0.04332
3467.87900,0.04357
3465.95026,0.04372
3464.02151,0.04338
3462.09277,0.04269
3460.16403,0.04234
3458.23529,0.04221
3456.30654,0.04181
3454.37780,0.04134
3452.44906,0.04107
3450.52032,0.04082
3448.59157,0.04070
3446.66283,0.04085
3444.73409,0.04089
3442.80535,0.04071
3440.87660,0.04060
3438.94786,0.04060
3437.01912,0.04053
3435.09038,0.04052
3433.16163,0.04059
3431.23289,0.04040
3429.30415,0.04006
3427.37541,0.03997
3425.44666,0.04012
3423.51792,0.04030
3421.58918,0.04053
3419.66044,0.04074
3417.73169,0.04054
3415.80295,0.04006
3413.87421,0.04007
3411.94547,0.04061
3410.01672,0.04085
3408.08798,0.04060
3406.15924,0.04044
3404.23050,0.04059
3402.30175,0.04071
3400.37301,0.04066
3398.44427,0.04057
3396.51553,0.04050
3394.58678,0.04047
3392.65804,0.04064
3390.72930,0.04087
3388.80056,0.04082
3386.87181,0.04054
3384.94307,0.04035
3383.01433,0.04038
3381.08559,0.04036
3379.15684,0.04015
3377.22810,0.04008
3375.29936,0.04034
3373.37062,0.04056
3371.44187,0.04045
3369.51313,0.04037
3367.58439,0.04063
3365.65565,0.04083
3363.72690,0.04081
3361.79816,0.04086
3359.86942,0.04090
3357.94068,0.04084
3356.01193,0.04099
3354.08319,0.04148
3352.15445,0.04196
3350.22571,0.04230
3348.29696,0.04258
3346.36822,0.04277
3344.43948,0.04280
3342.51074,0.04289
3340.58199,0.04310
3338.65325,0.04316
3336.72451,0.04317
3334.79577,0.04334
3332.86702,0.04353
3330.93828,0.04375
3329.00954,0.04408
3327.08080,0.04444
3325.15205,0.04461
3323.22331,0.04463
3321.29457,0.04485
3319.36583,0.04537
3317.43708,0.04598
3315.50834,0.04637
3313.57960,0.04648
3311.65086,0.04634
3309.72211,0.04604
3307.79337,0.04589
3305.86463,0.04608
3303.93589,0.04655
3302.00714,0.04713
3300.07840,0.04758
3298.14966,0.04778
3296.22092,0.04794
3294.29217,0.04821
3292.36343,0.04845
3290.43469,0.04865
3288.50595,0.04881
3286.57721,0.04869
3284.64846,0.04863
3282.71972,0.04903
3280.79098,0.04942
3278.86224,0.04964
3276.93349,0.04984
3275.00475,0.04987
3273.07601,0.04997
3271.14727,0.05054
3269.21852,0.05137
3267.28978,0.05186
3265.36104,0.05179
3263.43230,0.05172
3261.50355,0.05221
3259.57481,0.05301
3257.64607,0.05359
3255.71733,0.05398
3253.78858,0.05450
3251.85984,0.05525
3249.93110,0.05595
3248.00236,0.05633
3246.07361,0.05656
3244.14487,0.05684
3242.21613,0.05729
3240.28739,0.05767
3238.35864,0.05772
3236.42990,0.05791
3234.50116,0.05859
3232.57242,0.05920
3230.64367,0.05939
3228.71493,0.05959
3226.78619,0.06005
3224.85745,0.06049
3222.92870,0.06073
3220.99996,0.06089
3219.07122,0.06114
3217.14248,0.06159
3215.21373,0.06236
3213.28499,0.06331
3211.35625,0.06409
3209.42751,0.06455
3207.49876,0.06478
3205.57002,0.06510
3203.64128,0.06560
3201.71254,0.06598
3199.78379,0.06630
3197.85505,0.06688
3195.92631,0.06754
3193.99757,0.06800
3192.06882,0.06854
3190.14008,0.06931
3188.21134,0.06986
3186.28260,0.07010
3184.35385,0.07047
3182.42511,0.07134
3180.49637,0.07252
3178.56763,0.07342
3176.63888,0.07399
3174.71014,0.07464
3172.78140,0.07526
3170.85266,0.07580
3168.92391,0.07645
3166.99517,0.07710
3165.06643,0.07771
3163.13769,0.07824
3161.20894,0.07868
3159.28020,0.07933
3157.35146,0.08026
3155.42272,0.08111
3153.49397,0.08170
3151.56523,0.08222
3149.63649,0.08286
3147.70775,0.08362
3145.77900,0.08433
3143.85026,0.08487
3141.92152,0.08540
3139.99278,0.08613
3138.06403,0.08693
3136.13529,0.08760
3134.20655,0.08819
3132.27781,0.08879
3130.34906,0.08928
3128.42032,0.08962
3126.49158,0.09010
3124.56284,0.09092
3122.63409,0.09176
3120.70535,0.09224
3118.77661,0.09246
3116.84787,0.09259
3114.91912,0.09295
3112.99038,0.09379
3111.06164,0.09463
3109.13290,0.09511
3107.20415,0.09555
3105.27541,0.09608
3103.34667,0.09659
3101.41793,0.09707
3099.48918,0.09750
3097.56044,0.09789
3095.63170,0.09818
3093.70296,0.09846
3091.77421,0.09883
3089.84547,0.09931
3087.91673,0.09987
3085.98799,0.10037
3084.05924,0.10077
3082.13050,0.10111
3080.20176,0.10126
3078.27302,0.10141
3076.34427,0.10193
3074.41553,0.10265
3072.48679,0.10308
3070.55805,0.10324
3068.62930,0.10350
3066.70056,0.10397
3064.77182,0.10448
3062.84308,0.10493
3060.91433,0.10533
3058.98559,0.10570
3057.05685,0.10613
3055.12811,0.10667
3053.19936,0.10719
3051.27062,0.10755
3049.34188,0.10790
3047.41314,0.10829
3045.48439,0.10848
3043.55565,0.10860
3041.62691,0.10894
3039.69817,0.10942
3037.76942,0.10989
3035.84068,0.11021
3033.91194,0.11016
3031.98320,0.10980
3030.05445,0.10949
3028.12571,0.10956
3026.19697,0.10997
3024.26823,0.11020
3022.33948,0.10999
3020.41074,0.10962
3018.48200,0.10935
3016.55326,0.10909
3014.62451,0.10872
3012.69577,0.10809
3010.76703,0.10722
3008.83829,0.10652
3006.90954,0.10602
3004.98080,0.10527
3003.05206,0.10446
3001.12332,0.10403
2999.19457,0.10386
2997.26583,0.10377
2995.33709,0.10367
2993.40835,0.10337
2991.47960,0.10266
2989.55086,0.10152
2987.62212,0.10018
2985.69338,0.09889
2983.76463,0.09768
2981.83589,0.09630
2979.90715,0.09446
2977.97841,0.09207
2976.04966,0.08955
2974.12092,0.08727
2972.19218,0.08500
2970.26344,0.08273
2968.33469,0.08092
2966.40595,0.07973
2964.47721,0.07891
2962.54847,0.07822
2960.61972,0.07745
2958.69098,0.07660
2956.76224,0.07578
2954.83350,0.07483
2952.90475,0.07366
2950.97601,0.07260
2949.04727,0.07184
2947.11853,0.07125
2945.18978,0.07059
2943.26104,0.06992
2941.33230,0.06946
2939.40356,0.06906
2937.47481,0.06859
2935.54607,0.06844
2933.61733,0.06871
2931.68859,0.06910
2929.75984,0.06941
2927.83110,0.06952
2925.90236,0.06927
2923.97362,0.06868
2922.04487,0.06812
2920.11613,0.06785
2918.18739,0.06771
2916.25865,0.06783
2914.32990,0.06847
2912.40116,0.06923
2910.47242,0.06960
2908.54368,0.06982
2906.61493,0.07015
2904.68619,0.07042
2902.75745,0.07072
2900.82871,0.07122
2898.89996,0.07184
2896.97122,0.07236
2895.04248,0.07267
2893.11374,0.07296
2891.18499,0.07344
2889.25625,0.07397
2887.32751,0.07434
2885.39877,0.07469
2883.47002,0.07518
2881.54128,0.07569
2879.61254,0.07611
2877.68380,0.07642
2875.75505,0.07669
2873.82631,0.07687
2871.89757,0.07688
2869.96883,0.07701
2868.04008,0.07768
2866.11134,0.07868
2864.18260,0.07949
2862.25386,0.08011
2860.32511,0.08089
2858.39637,0.08174
2856.46763,0.08225
2854.53889,0.08240
2852.61014,0.08261
2850.68140,0.08314
2848.75266,0.08429
2846.82392,0.08614
2844.89517,0.08816
2842.96643,0.09005
2841.03769,0.09221
2839.10895,0.09470
2837.18020,0.09708
2835.25146,0.09941
2833.32272,0.10194
2831.39398,0.10447
2829.46523,0.10682
2827.53649,0.10905
2825.60775,0.11130
2823.67901,0.11359
2821.75026,0.11589
2819.82152,0.11821
2817.89278,0.12052
2815.96404,0.12268
2814.03529,0.12452
2812.10655,0.12609
2810.17781,0.12760
2808.24907,0.12915
2806.32032,0.13071
2804.39158,0.13216
2802.46284,0.13345
2800.53410,0.13470
2798.60535,0.13593
2796.67661,0.13708
2794.74787,0.13818
2792.81913,0.13927
2790.89038,0.14026
2788.96164,0.14103
2787.03290,0.14167
2785.10416,0.14239
2783.17541,0.14321
2781.24667,0.14399
2779.31793,0.14477
2777.38919,0.14551
2775.46044,0.14596
2773.53170,0.14624
2771.60296,0.14675
2769.67422,0.14752
2767.74547,0.14820
2765.81673,0.14858
2763.88799,0.14877
2761.95925,0.14905
2760.03050,0.14948
2758.10176,0.14990
2756.17302,0.15031
2754.24428,0.15073
2752.31553,0.15110
2750.38679,0.15131
2748.45805,0.15127
2746.52931,0.15123
2744.60056,0.15148
2742.67182,0.15182
2740.74308,0.15190
2738.81434,0.15171
2736.88560,0.15150
2734.95685,0.15163
2733.02811,0.15228
2731.09937,0.15310
2729.17063,0.15367
2727.24188,0.15407
2725.31314,0.15457
2723.38440,0.15509
2721.45566,0.15560
2719.52691,0.15631
2717.59817,0.15719
2715.66943,0.15801
2713.74069,0.15861
2711.81194,0.15908
2709.88320,0.15972
2707.95446,0.16072
2706.02572,0.16188
2704.09697,0.16285
2702.16823,0.16355
2700.23949,0.16415
2698.31075,0.16483
2696.38200,0.16569
2694.45326,0.16659
2692.52452,0.16744
2690.59578,0.16832
2688.66703,0.16927
2686.73829,0.17018
2684.80955,0.17089
2682.88081,0.17158
2680.95206,0.17242
2679.02332,0.17322
2677.09458,0.17389
2675.16584,0.17461
2673.23709,0.17545
2671.30835,0.17619
2669.37961,0.17671
2667.45087,0.17712
2665.52212,0.17753
2663.59338,0.17789
2661.66464,0.17816
2659.73590,0.17854
2657.80715,0.17912
2655.87841,0.17972
2653.94967,0.18031
2652.02093,0.18100
2650.09218,0.18168
2648.16344,0.18216
2646.23470,0.18263
2644.30596,0.18325
2642.37721,0.18392
2640.44847,0.18463
2638.51973,0.18538
2636.59099,0.18615
2634.66224,0.18693
2632.73350,0.18764
2630.80476,0.18824
2628.87602,0.18896
2626.94727,0.18984
2625.01853,0.19063
2623.08979,0.19128
2621.16105,0.19198
2619.23230,0.19286
2617.30356,0.19378
2615.37482,0.19451
2613.44608,0.19500
2611.51733,0.19540
2609.58859,0.19576
2607.65985,0.19618
2605.73111,0.19683
2603.80236,0.19763
2601.87362,0.19825
2599.94488,0.19872
2598.01614,0.19931
2596.08739,0.20004
2594.15865,0.20079
2592.22991,0.20145
2590.30117,0.20189
2588.37242,0.20222
2586.44368,0.20266
2584.51494,0.20337
2582.58620,0.20426
2580.65745,0.20488
2578.72871,0.20510
2576.79997,0.20531
2574.87123,0.20564
2572.94248,0.20598
2571.01374,0.20620
2569.08500,0.20628
2567.15626,0.20646
2565.22751,0.20678
2563.29877,0.20710
2561.37003,0.20751
2559.44129,0.20806
2557.51254,0.20867
2555.58380,0.20924
2553.65506,0.20958
2551.72632,0.20966
2549.79757,0.20979
2547.86883,0.21011
2545.94009,0.21049
2544.01135,0.21084
2542.08260,0.21112
2540.15386,0.21143
2538.22512,0.21188
2536.29638,0.21242
2534.36763,0.21306
2532.43889,0.21375
2530.51015,0.21448
2528.58141,0.21528
2526.65266,0.21613
2524.72392,0.21684
2522.79518,0.21728
2520.86644,0.21758
2518.93769,0.21788
2517.00895,0.21830
2515.08021,0.21901
2513.15147,0.21992
2511.22272,0.22074
2509.29398,0.22152
2507.36524,0.22250
2505.43650,0.22362
2503.50775,0.22468
2501.57901,0.22579
2499.65027,0.22698
2497.72153,0.22814
2495.79278,0.22929
2493.86404,0.23036
2491.93530,0.23121
2490.00656,0.23206
2488.07781,0.23306
2486.14907,0.23392
2484.22033,0.23446
2482.29159,0.23506
2480.36284,0.23597
2478.43410,0.23686
2476.50536,0.23756
2474.57662,0.23824
2472.64787,0.23897
2470.71913,0.23975
2468.79039,0.24051
2466.86165,0.24121
2464.93290,0.24178
2463.00416,0.24223
2461.07542,0.24278
2459.14668,0.24338
2457.21793,0.24388
2455.28919,0.24446
2453.36045,0.24530
2451.43171,0.24626
2449.50296,0.24706
2447.57422,0.24775
2445.64548,0.24855
2443.71674,0.24939
2441.78799,0.25029
2439.85925,0.25137
2437.93051,0.25236
2436.00177,0.25310
2434.07302,0.25396
2432.14428,0.25502
2430.21554,0.25609
2428.28680,0.25717
2426.35805,0.25842
2424.42931,0.25976
2422.50057,0.26092
2420.57183,0.26186
2418.64308,0.26284
2416.71434,0.26400
2414.78560,0.26528
2412.85686,0.26663
2410.92811,0.26803
2408.99937,0.26935
2407.07063,0.27053
2405.14189,0.27168
2403.21314,0.27280
2401.28440,0.27384
2399.35566,0.27493
2397.42692,0.27608
2395.49817,0.27715
2393.56943,0.27818
2391.64069,0.27913
2389.71195,0.27993
2387.78320,0.28081
2385.85446,0.28186
2383.92572,0.28292
2381.99698,0.28390
2380.06823,0.28482
2378.13949,0.28563
2376.21075,0.28625
2374.28201,0.28691
2372.35326,0.28776
2370.42452,0.28851
2368.49578,0.28896
2366.56704,0.28941
2364.63829,0.29012
2362.70955,0.29108
2360.78081,0.29206
2358.85207,0.29288
2356.92332,0.29357
2354.99458,0.29420
2353.06584,0.29491
2351.13710,0.29573
2349.20835,0.29648
2347.27961,0.29718
2345.35087,0.29796
2343.42213,0.29863
2341.49338,0.29905
2339.56464,0.29942
2337.63590,0.29979
2335.70716,0.30003
2333.77841,0.30026
2331.84967,0.30060
2329.92093,0.30099
2327.99219,0.30140
2326.06344,0.30184
2324.13470,0.30220
2322.20596,0.30246
2320.27722,0.30266
2318.34847,0.30274
2316.41973,0.30277
2314.49099,0.30296
2312.56225,0.30332
2310.63350,0.30355
2308.70476,0.30349
2306.77602,0.30335
2304.84728,0.30316
2302.91853,0.30287
2300.98979,0.30270
2299.06105,0.30275
2297.13231,0.30275
2295.20356,0.30268
2293.27482,0.30267
2291.34608,0.30265
2289.41734,0.30259
2287.48859,0.30256
2285.55985,0.30259
2283.63111,0.30260
2281.70237,0.30251
2279.77362,0.30232
2277.84488,0.30205
2275.91614,0.30164
2273.98740,0.30109
2272.05865,0.30060
2270.12991,0.30015
2268.20117,0.29955
2266.27243,0.29879
2264.34368,0.29801
2262.41494,0.29734
2260.48620,0.29678
2258.55746,0.29618
2256.62871,0.29550
2254.69997,0.29481
2252.77123,0.29415
2250.84249,0.29339
2248.91374,0.29267
2246.98500,0.29229
2245.05626,0.29215
2243.12752,0.29189
2241.19877,0.29145
2239.27003,0.29102
2237.34129,0.29088
2235.41255,0.29106
2233.48380,0.29131
2231.55506,0.29137
2229.62632,0.29131
2227.69758,0.29142
2225.76883,0.29169
2223.84009,0.29193
2221.91135,0.29213
2219.98261,0.29239
2218.05386,0.29261
2216.12512,0.29275
2214.19638,0.29293
2212.26764,0.29307
2210.33889,0.29295
2208.41015,0.29256
2206.48141,0.29212
2204.55267,0.29169
2202.62392,0.29117
2200.69518,0.29057
2198.76644,0.28993
2196.83770,0.28925
2194.90895,0.28835
2192.98021,0.28726
2191.05147,0.28624
2189.12273,0.28531
2187.19399,0.28418
2185.26524,0.28283
2183.33650,0.28156
2181.40776,0.28037
2179.47902,0.27907
2177.55027,0.27763
2175.62153,0.27628
2173.69279,0.27509
2171.76405,0.27384
2169.83530,0.27254
2167.90656,0.27129
2165.97782,0.27014
2164.04908,0.26915
2162.12033,0.26830
2160.19159,0.26761
2158.26285,0.26703
2156.33411,0.26640
2154.40536,0.26579
2152.47662,0.26523
2150.54788,0.26458
2148.61914,0.26407
2146.69039,0.26382
2144.76165,0.26364
2142.83291,0.26340
2140.90417,0.26309
2138.97542,0.26289
2137.04668,0.26296
2135.11794,0.26309
2133.18920,0.26311
2131.26045,0.26312
2129.33171,0.26330
2127.40297,0.26359
2125.47423,0.26392
2123.54548,0.26440
2121.61674,0.26492
2119.68800,0.26541
2117.75926,0.26585
2115.83051,0.26613
2113.90177,0.26629
2111.97303,0.26655
2110.04429,0.26699
2108.11554,0.26756
2106.18680,0.26818
2104.25806,0.26874
2102.32932,0.26913
2100.40057,0.26947
2098.47183,0.26998
2096.54309,0.27061
2094.61435,0.27120
2092.68560,0.27168
2090.75686,0.27205
2088.82812,0.27234
2086.89938,0.27255
2084.97063,0.27261
2083.04189,0.27256
2081.11315,0.27244
2079.18441,0.27214
2077.25566,0.27160
2075.32692,0.27094
2073.39818,0.27042
2071.46944,0.27008
2069.54069,0.26980
2067.61195,0.26952
2065.68321,0.26931
2063.75447,0.26910
2061.82572,0.26884
2059.89698,0.26872
2057.96824,0.26877
2056.03950,0.26880
2054.11075,0.26884
2052.18201,0.26901
2050.25327,0.26929
2048.32453,0.26970
2046.39578,0.27023
2044.46704,0.27079
2042.53830,0.27135
2040.60956,0.27198
2038.68081,0.27266
2036.75207,0.27342
2034.82333,0.27436
2032.89459,0.27538
2030.96584,0.27631
2029.03710,0.27718
2027.10836,0.27821
2025.17962,0.27945
2023.25087,0.28078
2021.32213,0.28215
2019.39339,0.28354
2017.46465,0.28470
2015.53590,0.28559
2013.60716,0.28660
2011.67842,0.28785
2009.74968,0.28906
2007.82093,0.29000
2005.89219,0.29063
2003.96345,0.29100
2002.03471,0.29141
2000.10596,0.29205
1998.17722,0.29275
1996.24848,0.29346
1994.31974,0.29423
1992.39099,0.29500
1990.46225,0.29563
1988.53351,0.29601
1986.60477,0.29630
1984.67602,0.29667
1982.74728,0.29709
1980.81854,0.29743
1978.88980,0.29760
1976.96105,0.29768
1975.03231,0.29775
1973.10357,0.29793
1971.17483,0.29812
1969.24608,0.29819
1967.31734,0.29820
1965.38860,0.29824
1963.45986,0.29831
1961.53111,0.29838
1959.60237,0.29847
1957.67363,0.29864
1955.74489,0.29891
1953.81614,0.29934
1951.88740,0.29991
1949.95866,0.30059
1948.02992,0.30144
1946.10117,0.30242
1944.17243,0.30347
1942.24369,0.30455
1940.31495,0.30561
1938.38620,0.30669
1936.45746,0.30791
1934.52872,0.30921
1932.59998,0.31043
1930.67123,0.31154
1928.74249,0.31254
1926.81375,0.31347
1924.88501,0.31439
1922.95626,0.31518
1921.02752,0.31578
1919.09878,0.31639
1917.17004,0.31717
1915.24129,0.31791
1913.31255,0.31836
1911.38381,0.31851
1909.45507,0.31849
1907.52632,0.31847
1905.59758,0.31843
1903.66884,0.31837
1901.74010,0.31836
1899.81135,0.31837
1897.88261,0.31824
1895.95387,0.31803
1894.02513,0.31789
1892.09638,0.31774
1890.16764,0.31744
1888.23890,0.31697
1886.31016,0.31656
1884.38141,0.31625
1882.45267,0.31584
1880.52393,0.31540
1878.59519,0.31512
1876.66644,0.31484
1874.73770,0.31431
1872.80896,0.31361
1870.88022,0.31300
1868.95147,0.31243
1867.02273,0.31175
1865.09399,0.31105
1863.16525,0.31040
1861.23650,0.30980
1859.30776,0.30918
1857.37902,0.30847
1855.45028,0.30765
1853.52153,0.30672
1851.59279,0.30573
1849.66405,0.30478
1847.73531,0.30386
1845.80656,0.30285
1843.87782,0.30169
1841.94908,0.30050
1840.02034,0.29932
1838.09159,0.29808
1836.16285,0.29674
1834.23411,0.29533
1832.30537,0.29397
1830.37662,0.29253
1828.44788,0.29089
1826.51914,0.28917
1824.59040,0.28735
1822.66165,0.28545
1820.73291,0.28350
1818.80417,0.28138
1816.87543,0.27908
1814.94668,0.27682
1813.01794,0.27453
1811.08920,0.27198
1809.16046,0.26932
1807.23171,0.26670
1805.30297,0.26392
1803.37423,0.26082
1801.44549,0.25747
1799.51674,0.25414
1797.58800,0.25094
1795.65926,0.24780
1793.73052,0.24443
1791.80177,0.24052
1789.87303,0.23633
1787.94429,0.23220
1786.01555,0.22781
1784.08680,0.22281
1782.15806,0.21732
1780.22932,0.21134
1778.30058,0.20463
1776.37183,0.19726
1774.44309,0.18896
1772.51435,0.17912
1770.58561,0.16843
1768.65686,0.15767
1766.72812,0.14683
1764.79938,0.13658
1762.87064,0.12687
1760.94189,0.11758
1759.01315,0.10968
1757.08441,0.10324
1755.15567,0.09796
1753.22692,0.09358
1751.29818,0.08959
1749.36944,0.08596
1747.44070,0.08299
1745.51195,0.08078
1743.58321,0.07922
1741.65447,0.07820
1739.72573,0.07747
1737.79698,0.07703
1735.86824,0.07719
1733.93950,0.07811
1732.01076,0.07940
1730.08201,0.08077
1728.15327,0.08245
1726.22453,0.08433
1724.29579,0.08609
1722.36704,0.08767
1720.43830,0.08906
1718.50956,0.09008
1716.58082,0.09038
1714.65207,0.09014
1712.72333,0.08974
1710.79459,0.08904
1708.86585,0.08781
1706.93710,0.08609
1705.00836,0.08405
1703.07962,0.08178
1701.15088,0.07896
1699.22213,0.07564
1697.29339,0.07245
1695.36465,0.06899
1693.43591,0.06551
1691.50716,0.06251
1689.57842,0.05971
1687.64968,0.05718
1685.72094,0.05479
1683.79219,0.05230
1681.86345,0.05019
1679.93471,0.04861
1678.00597,0.04733
1676.07722,0.04633
1674.14848,0.04575
1672.21974,0.04562
1670.29100,0.04570
1668.36225,0.04572
1666.43351,0.04577
1664.50477,0.04593
1662.57603,0.04616
1660.64728,0.04661
1658.71854,0.04730
1656.78980,0.04815
1654.86106,0.04920
1652.93231,0.05048
1651.00357,0.05148
1649.07483,0.05214
1647.14609,0.05264
1645.21735,0.05311
1643.28860,0.05373
1641.35986,0.05438
1639.43112,0.05474
1637.50238,0.05478
1635.57363,0.05470
1633.64489,0.05455
1631.71615,0.05438
1629.78741,0.05441
1627.85866,0.05464
1625.92992,0.05488
1624.00118,0.05506
1622.07244,0.05521
1620.14369,0.05542
1618.21495,0.05580
1616.28621,0.05617
1614.35747,0.05624
1612.42872,0.05603
1610.49998,0.05572
1608.57124,0.05565
1606.64250,0.05586
1604.71375,0.05602
1602.78501,0.05612
1600.85627,0.05614
1598.92753,0.05607
1596.99878,0.05617
1595.07004,0.05659
1593.14130,0.05737
1591.21256,0.05869
1589.28381,0.06068
1587.35507,0.06320
1585.42633,0.06606
1583.49759,0.06913
1581.56884,0.07223
1579.64010,0.07507
1577.71136,0.07772
1575.78262,0.08037
1573.85387,0.08260
1571.92513,0.08420
1569.99639,0.08530
1568.06765,0.08591
1566.13890,0.08622
1564.21016,0.08632
1562.28142,0.08615
1560.35268,0.08568
1558.42393,0.08486
1556.49519,0.08391
1554.56645,0.08300
1552.63771,0.08220
1550.70896,0.08173
1548.78022,0.08143
1546.85148,0.08093
1544.92274,0.08023
1542.99399,0.07949
1541.06525,0.07876
1539.13651,0.07797
1537.20777,0.07714
1535.27902,0.07630
1533.35028,0.07534
1531.42154,0.07423
1529.49280,0.07297
1527.56405,0.07147
1525.63531,0.06947
1523.70657,0.06688
1521.77783,0.06363
1519.84908,0.06023
1517.92034,0.05738
1515.99160,0.05516
1514.06286,0.05360
1512.13411,0.05270
1510.20537,0.05238
1508.27663,0.05252
1506.34789,0.05304
1504.41914,0.05394
1502.49040,0.05514
1500.56166,0.05675
1498.63292,0.05879
1496.70417,0.06099
1494.77543,0.06299
1492.84669,0.06470
1490.91795,0.06610
1488.98920,0.06695
1487.06046,0.06719
1485.13172,0.06687
1483.20298,0.06596
1481.27423,0.06443
1479.34549,0.06245
1477.41675,0.06015
1475.48801,0.05759
1473.55926,0.05485
1471.63052,0.05226
1469.70178,0.05036
1467.77304,0.04918
1465.84429,0.04854
1463.91555,0.04842
1461.98681,0.04873
1460.05807,0.04927
1458.12932,0.04979
1456.20058,0.05018
1454.27184,0.05057
1452.34310,0.05114
1450.41435,0.05191
1448.48561,0.05278
1446.55687,0.05345
1444.62813,0.05373
1442.69938,0.05373
1440.77064,0.05358
1438.84190,0.05322
1436.91316,0.05256
1434.98441,0.05173
1433.05567,0.05088
1431.12693,0.05023
1429.19819,0.05003
1427.26944,0.05019
1425.34070,0.05056
1423.41196,0.05121
1421.48322,0.05211
1419.55447,0.05318
1417.62573,0.05449
1415.69699,0.05589
1413.76825,0.05722
1411.83950,0.05840
1409.91076,0.05937
1407.98202,0.06009
1406.05328,0.06055
1404.12453,0.06065
1402.19579,0.06050
1400.26705,0.06029
1398.33831,0.05990
1396.40956,0.05933
1394.48082,0.05867
1392.55208,0.05784
1390.62334,0.05674
1388.69459,0.05537
1386.76585,0.05384
1384.83711,0.05233
1382.90837,0.05098
1380.97962,0.04987
1379.05088,0.04904
1377.12214,0.04859
1375.19340,0.04852
1373.26465,0.04867
1371.33591,0.04896
1369.40717,0.04948
1367.47843,0.05011
1365.54968,0.05077
1363.62094,0.05149
1361.69220,0.05219
1359.76346,0.05272
1357.83471,0.05302
1355.90597,0.05312
1353.97723,0.05327
1352.04849,0.05363
1350.11974,0.05389
1348.19100,0.05373
1346.26226,0.05327
1344.33352,0.05275
1342.40477,0.05209
1340.47603,0.05132
1338.54729,0.05086
1336.61855,0.05067
1334.68980,0.05031
1332.76106,0.04993
1330.83232,0.04986
1328.90358,0.05006
1326.97483,0.05039
1325.04609,0.05073
1323.11735,0.05095
1321.18861,0.05127
1319.25986,0.05181
1317.33112,0.05247
1315.40238,0.05318
1313.47364,0.05397
1311.54489,0.05473
1309.61615,0.05538
1307.68741,0.05606
1305.75867,0.05672
1303.82992,0.05722
1301.90118,0.05764
1299.97244,0.05791
1298.04370,0.05780
1296.11495,0.05727
1294.18621,0.05645
1292.25747,0.05552
1290.32873,0.05463
1288.39998,0.05375
1286.47124,0.05273
1284.54250,0.05166
1282.61376,0.05085
1280.68501,0.05039
1278.75627,0.04997
1276.82753,0.04937
1274.89879,0.04870
1272.97004,0.04813
1271.04130,0.04777
1269.11256,0.04766
1267.18382,0.04768
1265.25507,0.04774
1263.32633,0.04779
1261.39759,0.04790
1259.46885,0.04807
1257.54010,0.04811
1255.61136,0.04794
1253.68262,0.04777
1251.75388,0.04767
1249.82513,0.04740
1247.89639,0.04702
1245.96765,0.04685
1244.03891,0.04681
1242.11016,0.04665
1240.18142,0.04648
1238.25268,0.04646
1236.32394,0.04658
1234.39519,0.04679
1232.46645,0.04707
1230.53771,0.04738
1228.60897,0.04776
1226.68022,0.04827
1224.75148,0.04896
1222.82274,0.04974
1220.89400,0.05039
1218.96525,0.05084
1217.03651,0.05112
1215.10777,0.05140
1213.17903,0.05189
1211.25028,0.05239
1209.32154,0.05254
1207.39280,0.05257
1205.46406,0.05276
1203.53531,0.05279
1201.60657,0.05267
1199.67783,0.05286
1197.74909,0.05326
1195.82034,0.05340
1193.89160,0.05314
1191.96286,0.05257
1190.03412,0.05164
1188.10537,0.05048
1186.17663,0.04942
1184.24789,0.04840
1182.31915,0.04712
1180.39040,0.04554
1178.46166,0.04376
1176.53292,0.04199
1174.60418,0.04047
1172.67543,0.03936
1170.74669,0.03873
1168.81795,0.03879
1166.88921,0.03963
1164.96046,0.04086
1163.03172,0.04196
1161.10298,0.04302
1159.17424,0.04409
1157.24549,0.04480
1155.31675,0.04516
1153.38801,0.04547
1151.45927,0.04561
1149.53052,0.04529
1147.60178,0.04468
1145.67304,0.04414
1143.74430,0.04366
1141.81555,0.04291
1139.88681,0.04174
1137.95807,0.04041
1136.02933,0.03923
1134.10058,0.03837
1132.17184,0.03787
1130.24310,0.03777
1128.31436,0.03808
1126.38561,0.03868
1124.45687,0.03941
1122.52813,0.04026
1120.59939,0.04102
1118.67064,0.04135
1116.74190,0.04162
1114.81316,0.04230
1112.88442,0.04306
1110.95567,0.04364
1109.02693,0.04426
1107.09819,0.04499
1105.16945,0.04562
1103.24070,0.04605
1101.31196,0.04621
1099.38322,0.04589
1097.45448,0.04524
1095.52574,0.04477
1093.59699,0.04443
1091.66825,0.04383
1089.73951,0.04308
1087.81077,0.04269
1085.88202,0.04246
1083.95328,0.04215
1082.02454,0.04228
1080.09580,0.04288
1078.16705,0.04344
1076.23831,0.04401
1074.30957,0.04486
1072.38083,0.04604
1070.45208,0.04737
1068.52334,0.04859
1066.59460,0.04989
1064.66586,0.05170
1062.73711,0.05402
1060.80837,0.05623
1058.87963,0.05786
1056.95089,0.05903
1055.02214,0.06005
1053.09340,0.06092
1051.16466,0.06130
1049.23592,0.06110
1047.30717,0.06060
1045.37843,0.06007
1043.44969,0.05994
1041.52095,0.06048
1039.59220,0.06151
1037.66346,0.06295
1035.73472,0.06472
1033.80598,0.06635
1031.87723,0.06734
1029.94849,0.06796
1028.01975,0.06877
1026.09101,0.06962
1024.16226,0.07028
1022.23352,0.07093
1020.30478,0.07144
1018.37604,0.07165
1016.44729,0.07201
1014.51855,0.07287
1012.58981,0.07386
1010.66107,0.07448
1008.73232,0.07493
1006.80358,0.07553
1004.87484,0.07619
1002.94610,0.07699
1001.01735,0.07797
999.08861,0.07876
997.15987,0.07928
995.23113,0.07978
993.30238,0.08069
991.37364,0.08215
989.44490,0.08406
987.51616,0.08648
985.58741,0.08941
983.65867,0.09249
981.72993,0.09547
979.80119,0.09819
977.87244,0.10047
975.94370,0.10229
974.01496,0.10385
972.08622,0.10537
970.15747,0.10680
968.22873,0.10798
966.29999,0.10922
964.37125,0.11102
962.44250,0.11343
960.51376,0.11602
958.58502,0.11866
956.65628,0.12144
954.72753,0.12415
952.79879,0.12662
950.87005,0.12874
948.94131,0.13043
947.01256,0.13166
945.08382,0.13242
943.15508,0.13293
941.22634,0.13327
939.29759,0.13333
937.36885,0.13330
935.44011,0.13334
933.51137,0.13328
931.58262,0.13306
929.65388,0.13284
927.72514,0.13269
925.79640,0.13270
923.86765,0.13279
921.93891,0.13249
920.01017,0.13171
918.08143,0.13076
916.15268,0.12961
914.22394,0.12803
912.29520,0.12631
910.36646,0.12489
908.43771,0.12350
906.50897,0.12160
904.58023,0.11920
902.65149,0.11677
900.72274,0.11486
898.79400,0.11403
896.86526,0.11455
894.93652,0.11611
893.00777,0.11822
891.07903,0.12059
889.15029,0.12286
887.22155,0.12477
885.29280,0.12626
883.36406,0.12740
881.43532,0.12825
879.50658,0.12876
877.57783,0.12897
875.64909,0.12916
873.72035,0.12961
871.79161,0.13017
869.86286,0.13054
867.93412,0.13081
866.00538,0.13107
864.07664,0.13114
862.14789,0.13087
860.21915,0.13026
858.29041,0.12943
856.36167,0.12870
854.43292,0.12819
852.50418,0.12769
850.57544,0.12715
848.64670,0.12695
846.71795,0.12710
844.78921,0.12685
842.86047,0.12601
840.93173,0.12515
839.00298,0.12453
837.07424,0.12401
835.14550,0.12340
833.21676,0.12264
831.28801,0.12202
829.35927,0.12178
827.43053,0.12165
825.50179,0.12134
823.57304,0.12102
821.64430,0.12095
819.71556,0.12104
817.78682,0.12104
815.85807,0.12103
813.92933,0.12113
812.00059,0.12112
810.07185,0.12074
808.14310,0.12024
806.21436,0.12003
804.28562,0.12022
802.35688,0.12067
800.42813,0.12086
798.49939,0.12042
796.57065,0.11959
794.64191,0.11875
792.71316,0.11792
790.78442,0.11705
788.85568,0.11637
786.92694,0.11581
784.99819,0.11506
783.06945,0.11417
781.14071,0.11328
779.21197,0.11242
777.28322,0.11165
775.35448,0.11087
773.42574,0.11015
771.49700,0.10946
769.56825,0.10846
767.63951,0.10721
765.71077,0.10614
763.78203,0.10529
761.85328,0.10439
759.92454,0.10332
757.99580,0.10193
756.06706,0.10034
754.13831,0.09890
752.20957,0.09757
750.28083,0.09625
748.35209,0.09527
746.42334,0.09444
744.49460,0.09340
742.56586,0.09262
740.63712,0.09240
738.70837,0.09219
736.77963,0.09154
734.85089,0.09046
732.92215,0.08914
730.99340,0.08793
729.06466,0.08693
727.13592,0.08577
725.20718,0.08448
723.27843,0.08344
721.34969,0.08274
719.42095,0.08229
717.49221,0.08203
715.56346,0.08198
713.63472,0.08192
711.70598,0.08152
709.77724,0.08119
707.84849,0.08136
705.91975,0.08134
703.99101,0.08045
702.06227,0.07933
700.13352,0.07909
698.20478,0.07970
696.27604,0.08023
694.34730,0.08012
692.41855,0.07932
690.48981,0.07832
688.56107,0.07757
686.63233,0.07692
684.70358,0.07611
682.77484,0.07522
680.84610,0.07408
678.91736,0.07286
676.98861,0.07219
675.05987,0.07176
673.13113,0.07098
671.20239,0.07021
669.27364,0.06991
667.34490,0.07041
665.41616,0.07154
663.48742,0.07239
661.55867,0.07250
659.62993,0.07240
657.70119,0.07245
655.77245,0.07224
653.84370,0.07164
651.91496,0.07118
649.98622,0.07095
648.05748,0.07050
646.12873,0.06965
644.19999,0.06886
642.27125,0.06886
640.34251,0.06935
638.41376,0.06930
636.48502,0.06845
634.55628,0.06744
632.62754,0.06721
630.69879,0.06741
628.77005,0.06643
626.84131,0.06447
624.91257,0.06367
622.98382,0.06424
621.05508,0.06441
619.12634,0.06409
617.19760,0.06426
615.26885,0.06469
613.34011,0.06512
611.41137,0.06597
609.48263,0.06706
607.55388,0.06746
605.62514,0.06741
603.69640,0.06781
601.76766,0.06881
599.83891,0.06988
