7497.02206,0.02574
7495.09332,0.02746
7493.16458,0.02647
7491.23584,0.02515
7489.30709,0.02768
7487.37835,0.03297
7485.44961,0.03529
7483.52087,0.03067
7481.59212,0.02443
7479.66338,0.02338
7477.73464,0.02529
7475.80590,0.02561
7473.87715,0.02551
7471.94841,0.02681
7470.01967,0.02576
7468.09093,0.02334
7466.16218,0.02537
7464.23344,0.02940
7462.30470,0.02819
7460.37596,0.02284
7458.44721,0.01887
7456.51847,0.01735
7454.58973,0.01614
7452.66099,0.01660
7450.73224,0.02116
7448.80350,0.02729
7446.87476,0.02912
7444.94602,0.02603
7443.01727,0.02099
7441.08853,0.01660
7439.15979,0.01623
7437.23105,0.02062
7435.30230,0.02387
7433.37356,0.02262
7431.44482,0.01970
7429.51608,0.02024
7427.58733,0.02323
7425.65859,0.02296
7423.72985,0.02070
7421.80111,0.02278
7419.87236,0.02464
7417.94362,0.02100
7416.01488,0.01919
7414.08614,0.02342
7412.15739,0.02649
7410.22865,0.02628
7408.29991,0.02535
7406.37117,0.02454
7404.44242,0.02296
7402.51368,0.02400
7400.58494,0.02774
7398.65620,0.02865
7396.72745,0.02543
7394.79871,0.02266
7392.86997,0.02289
7390.94123,0.02601
7389.01248,0.02866
7387.08374,0.02904
7385.15500,0.02782
7383.22626,0.02465
7381.29751,0.02226
7379.36877,0.02284
7377.44003,0.02243
7375.51129,0.01984
7373.58254,0.01763
7371.65380,0.01828
7369.72506,0.01800
7367.79632,0.01671
7365.86757,0.01787
7363.93883,0.01881
7362.01009,0.01778
7360.08135,0.01832
7358.15260,0.02193
7356.22386,0.02735
7354.29512,0.03022
7352.36638,0.02745
7350.43763,0.02221
7348.50889,0.01886
7346.58015,0.01878
7344.65141,0.02252
7342.72266,0.02775
7340.79392,0.02915
7338.86518,0.02757
7336.93644,0.02829
7335.00769,0.02861
7333.07895,0.02665
7331.15021,0.02675
7329.22147,0.02789
7327.29272,0.02491
7325.36398,0.01909
7323.43524,0.01476
7321.50650,0.01544
7319.57775,0.02172
7317.64901,0.02891
7315.72027,0.03125
7313.79153,0.02740
7311.86278,0.02236
7309.93404,0.02239
7308.00530,0.02733
7306.07656,0.03294
7304.14781,0.03417
7302.21907,0.03016
7300.29033,0.02646
7298.36159,0.02688
7296.43284,0.02786
7294.50410,0.02664
7292.57536,0.02403
7290.64662,0.02267
7288.71787,0.02270
7286.78913,0.02187
7284.86039,0.02059
7282.93165,0.02197
7281.00290,0.02368
7279.07416,0.02166
7277.14542,0.01695
7275.21668,0.01702
7273.28793,0.02229
7271.35919,0.02567
7269.43045,0.02496
7267.50171,0.02302
7265.57296,0.02076
7263.64422,0.02002
7261.71548,0.02182
7259.78674,0.02409
7257.85799,0.02593
7255.92925,0.02679
7254.00051,0.02575
7252.07177,0.02627
7250.14302,0.02886
7248.21428,0.03025
7246.28554,0.02948
7244.35680,0.02941
7242.42805,0.02970
7240.49931,0.02734
7238.57057,0.02391
7236.64183,0.02456
7234.71308,0.02892
7232.78434,0.03039
7230.85560,0.02576
7228.92686,0.02218
7226.99811,0.02305
7225.06937,0.02550
7223.14063,0.02702
7221.21189,0.02704
7219.28314,0.02408
7217.35440,0.01985
7215.42566,0.01745
7213.49692,0.01700
7211.56817,0.01830
7209.63943,0.01973
7207.71069,0.01956
7205.78195,0.01884
7203.85320,0.01758
7201.92446,0.01831
7199.99572,0.02456
7198.06698,0.03088
7196.13823,0.03148
7194.20949,0.02850
7192.28075,0.02605
7190.35201,0.02554
7188.42326,0.02418
7186.49452,0.02335
7184.56578,0.02691
7182.63704,0.03102
7180.70829,0.03061
7178.77955,0.02923
7176.85081,0.02820
7174.92207,0.02664
7172.99332,0.02642
7171.06458,0.02807
7169.13584,0.02784
7167.20710,0.02551
7165.27835,0.02444
7163.34961,0.02754
7161.42087,0.03161
7159.49213,0.03098
7157.56338,0.02636
7155.63464,0.02315
7153.70590,0.02312
7151.77716,0.02396
7149.84841,0.02212
7147.91967,0.01945
7145.99093,0.01987
7144.06219,0.02211
7142.13344,0.02307
7140.20470,0.02243
7138.27596,0.01929
7136.34722,0.01704
7134.41847,0.01964
7132.48973,0.02368
7130.56099,0.02551
7128.63225,0.02448
7126.70351,0.02059
7124.77476,0.01768
7122.84602,0.02032
7120.91728,0.02627
7118.98854,0.02728
7117.05979,0.02282
7115.13105,0.01987
7113.20231,0.02051
7111.27357,0.02234
7109.34482,0.02530
7107.41608,0.02781
7105.48734,0.02713
7103.55860,0.02449
7101.62985,0.02251
7099.70111,0.02136
7097.77237,0.02100
7095.84363,0.02165
7093.91488,0.02304
7091.98614,0.02382
7090.05740,0.02346
7088.12866,0.02289
7086.19991,0.02295
7084.27117,0.02208
7082.34243,0.01834
7080.41369,0.01440
7078.48494,0.01453
7076.55620,0.01708
7074.62746,0.02089
7072.69872,0.02709
7070.76997,0.03187
7068.84123,0.03068
7066.91249,0.02807
7064.98375,0.02844
7063.05500,0.02872
7061.12626,0.02777
7059.19752,0.02750
7057.26878,0.02668
7055.34003,0.02526
7053.41129,0.02409
7051.48255,0.02248
7049.55381,0.02155
7047.62506,0.02178
7045.69632,0.02273
7043.76758,0.02581
7041.83884,0.02804
7039.91009,0.02684
7037.98135,0.02562
7036.05261,0.02576
7034.12387,0.02628
7032.19512,0.02753
7030.26638,0.02724
7028.33764,0.02553
7026.40890,0.02530
7024.48015,0.02535
7022.55141,0.02343
7020.62267,0.02125
7018.69393,0.02036
7016.76518,0.02034
7014.83644,0.02096
7012.90770,0.02297
7010.97896,0.02340
7009.05021,0.02174
7007.12147,0.02281
7005.19273,0.02660
7003.26399,0.02876
7001.33524,0.02895
6999.40650,0.02750
6997.47776,0.02603
6995.54902,0.02715
6993.62027,0.02761
6991.69153,0.02405
6989.76279,0.02009
6987.83405,0.01734
6985.90530,0.01570
6983.97656,0.01624
6982.04782,0.01793
6980.11908,0.01977
6978.19033,0.02236
6976.26159,0.02181
6974.33285,0.01935
6972.40411,0.01980
6970.47536,0.02266
6968.54662,0.02497
6966.61788,0.02486
6964.68914,0.02149
6962.76039,0.01890
6960.83165,0.02144
6958.90291,0.02599
6956.97417,0.02783
6955.04542,0.02841
6953.11668,0.02860
6951.18794,0.02731
6949.25920,0.02556
6947.33045,0.02401
6945.40171,0.02210
6943.47297,0.02113
6941.54423,0.02162
6939.61548,0.02254
6937.68674,0.02374
6935.75800,0.02408
6933.82926,0.02284
6931.90051,0.02260
6929.97177,0.02404
6928.04303,0.02659
6926.11429,0.02951
6924.18554,0.03032
6922.25680,0.02911
6920.32806,0.02804
6918.39932,0.02692
6916.47057,0.02571
6914.54183,0.02455
6912.61309,0.02283
6910.68435,0.02142
6908.75560,0.02104
6906.82686,0.01979
6904.89812,0.01852
6902.96938,0.02017
6901.04063,0.02423
6899.11189,0.02758
6897.18315,0.02851
6895.25441,0.02727
6893.32566,0.02640
6891.39692,0.02778
6889.46818,0.03016
6887.53944,0.02936
6885.61069,0.02429
6883.68195,0.02000
6881.75321,0.02036
6879.82447,0.02104
6877.89572,0.01848
6875.96698,0.01645
6874.03824,0.01825
6872.10950,0.02086
6870.18075,0.02347
6868.25201,0.02737
6866.32327,0.02920
6864.39453,0.02678
6862.46578,0.02426
6860.53704,0.02518
6858.60830,0.02808
6856.67956,0.02791
6854.75081,0.02356
6852.82207,0.02060
6850.89333,0.02261
6848.96459,0.02544
6847.03584,0.02578
6845.10710,0.02466
6843.17836,0.02415
6841.24962,0.02427
6839.32087,0.02412
6837.39213,0.02333
6835.46339,0.02392
6833.53465,0.02658
6831.60590,0.02858
6829.67716,0.02796
6827.74842,0.02667
6825.81968,0.02702
6823.89093,0.02786
6821.96219,0.02699
6820.03345,0.02549
6818.10471,0.02494
6816.17596,0.02502
6814.24722,0.02418
6812.31848,0.02170
6810.38974,0.01955
6808.46099,0.02038
6806.53225,0.02209
6804.60351,0.02184
6802.67477,0.02017
6800.74602,0.01941
6798.81728,0.01915
6796.88854,0.01936
6794.95980,0.02161
6793.03105,0.02431
6791.10231,0.02305
6789.17357,0.01850
6787.24483,0.01510
6785.31608,0.01560
6783.38734,0.01921
6781.45860,0.02258
6779.52986,0.02244
6777.60111,0.02026
6775.67237,0.01917
6773.74363,0.01909
6771.81489,0.01838
6769.88614,0.01812
6767.95740,0.01933
6766.02866,0.02103
6764.09992,0.02257
6762.17117,0.02368
6760.24243,0.02416
6758.31369,0.02464
6756.38495,0.02471
6754.45620,0.02427
6752.52746,0.02384
6750.59872,0.02366
6748.66998,0.02268
6746.74123,0.02056
6744.81249,0.02053
6742.88375,0.02438
6740.95501,0.02742
6739.02626,0.02715
6737.09752,0.02664
6735.16878,0.02669
6733.24004,0.02605
6731.31129,0.02478
6729.38255,0.02169
6727.45381,0.01809
6725.52507,0.01724
6723.59632,0.01937
6721.66758,0.02213
6719.73884,0.02452
6717.81010,0.02654
6715.88135,0.02718
6713.95261,0.02596
6712.02387,0.02476
6710.09513,0.02377
6708.16638,0.02188
6706.23764,0.01962
6704.30890,0.01914
6702.38016,0.02076
6700.45141,0.02152
6698.52267,0.02092
6696.59393,0.02171
6694.66519,0.02244
6692.73644,0.02095
6690.80770,0.01990
6688.87896,0.02002
6686.95022,0.01905
6685.02147,0.01889
6683.09273,0.02141
6681.16399,0.02520
6679.23525,0.02646
6677.30650,0.02446
6675.37776,0.02307
6673.44902,0.02403
6671.52028,0.02542
6669.59153,0.02724
6667.66279,0.02860
6665.73405,0.02861
6663.80531,0.02770
6661.87656,0.02632
6659.94782,0.02413
6658.01908,0.02081
6656.09034,0.01764
6654.16159,0.01773
6652.23285,0.02117
6650.30411,0.02318
6648.37537,0.02283
6646.44662,0.02329
6644.51788,0.02452
6642.58914,0.02544
6640.66040,0.02405
6638.73165,0.02024
6636.80291,0.01856
6634.87417,0.02048
6632.94543,0.02173
6631.01668,0.02089
6629.08794,0.01964
6627.15920,0.01935
6625.23046,0.02009
6623.30171,0.02098
6621.37297,0.02161
6619.44423,0.02264
6617.51549,0.02393
6615.58674,0.02471
6613.65800,0.02440
6611.72926,0.02400
6609.80052,0.02486
6607.87177,0.02564
6605.94303,0.02485
6604.01429,0.02450
6602.08555,0.02517
6600.15680,0.02448
6598.22806,0.02310
6596.29932,0.02352
6594.37058,0.02431
6592.44183,0.02387
6590.51309,0.02257
6588.58435,0.02096
6586.65561,0.02031
6584.72686,0.02119
6582.79812,0.02202
6580.86938,0.02262
6578.94064,0.02344
6577.01190,0.02443
6575.08315,0.02404
6573.15441,0.02225
6571.22567,0.02248
6569.29693,0.02391
6567.36818,0.02261
6565.43944,0.01970
6563.51070,0.01771
6561.58196,0.01810
6559.65321,0.02013
6557.72447,0.02116
6555.79573,0.02072
6553.86699,0.02040
6551.93824,0.02084
6550.00950,0.02160
6548.08076,0.02132
6546.15202,0.01910
6544.22327,0.01699
6542.29453,0.01803
6540.36579,0.02079
6538.43705,0.02214
6536.50830,0.02164
6534.57956,0.02073
6532.65082,0.01994
6530.72208,0.01972
6528.79333,0.02042
6526.86459,0.02084
6524.93585,0.01824
6523.00711,0.01531
6521.07836,0.01602
6519.14962,0.01790
6517.22088,0.01897
6515.29214,0.02083
6513.36339,0.02264
6511.43465,0.02331
6509.50591,0.02300
6507.57717,0.02242
6505.64842,0.02171
6503.71968,0.02055
6501.79094,0.02066
6499.86220,0.02234
6497.93345,0.02300
6496.00471,0.02288
6494.07597,0.02305
6492.14723,0.02430
6490.21848,0.02601
6488.28974,0.02522
6486.36100,0.02308
6484.43226,0.02301
6482.50351,0.02403
6480.57477,0.02436
6478.64603,0.02280
6476.71729,0.02034
6474.78854,0.01973
6472.85980,0.02001
6470.93106,0.02042
6469.00232,0.02270
6467.07357,0.02512
6465.14483,0.02559
6463.21609,0.02492
6461.28735,0.02407
6459.35860,0.02322
6457.42986,0.02252
6455.50112,0.02230
6453.57238,0.02273
6451.64363,0.02294
6449.71489,0.02218
6447.78615,0.02159
6445.85741,0.02207
6443.92866,0.02234
6441.99992,0.02187
6440.07118,0.02165
6438.14244,0.02217
6436.21369,0.02242
6434.28495,0.02174
6432.35621,0.02087
6430.42747,0.02160
6428.49872,0.02374
6426.56998,0.02534
6424.64124,0.02576
6422.71250,0.02537
6420.78375,0.02362
6418.85501,0.02210
6416.92627,0.02219
6414.99753,0.02183
6413.06878,0.02019
6411.14004,0.01924
6409.21130,0.01955
6407.28256,0.02032
6405.35381,0.01990
6403.42507,0.01894
6401.49633,0.02031
6399.56759,0.02274
6397.63884,0.02333
6395.71010,0.02293
6393.78136,0.02277
6391.85262,0.02268
6389.92387,0.02193
6387.99513,0.02102
6386.06639,0.02043
6384.13765,0.02014
6382.20890,0.02077
6380.28016,0.02148
6378.35142,0.02063
6376.42268,0.02057
6374.49393,0.02310
6372.56519,0.02544
6370.63645,0.02514
6368.70771,0.02418
6366.77896,0.02480
6364.85022,0.02545
6362.92148,0.02391
6360.99274,0.02195
6359.06399,0.02213
6357.13525,0.02360
6355.20651,0.02444
6353.27777,0.02389
6351.34902,0.02181
6349.42028,0.02018
6347.49154,0.02165
6345.56280,0.02483
6343.63405,0.02568
6341.70531,0.02312
6339.77657,0.01930
6337.84783,0.01771
6335.91908,0.02007
6333.99034,0.02348
6332.06160,0.02390
6330.13286,0.02147
6328.20411,0.01940
6326.27537,0.01901
6324.34663,0.01952
6322.41789,0.02144
6320.48914,0.02358
6318.56040,0.02333
6316.63166,0.02110
6314.70292,0.01924
6312.77417,0.01956
6310.84543,0.02150
6308.91669,0.02229
6306.98795,0.02150
6305.05920,0.02086
6303.13046,0.02054
6301.20172,0.02045
6299.27298,0.02093
6297.34423,0.02092
6295.41549,0.02025
6293.48675,0.02000
6291.55801,0.02059
6289.62926,0.02219
6287.70052,0.02411
6285.77178,0.02483
6283.84304,0.02420
6281.91429,0.02290
6279.98555,0.02120
6278.05681,0.02000
6276.12807,0.02032
6274.19932,0.02113
6272.27058,0.02218
6270.34184,0.02337
6268.41310,0.02321
6266.48435,0.02253
6264.55561,0.02285
6262.62687,0.02333
6260.69813,0.02282
6258.76938,0.02107
6256.84064,0.01955
6254.91190,0.01845
6252.98316,0.01757
6251.05441,0.01790
6249.12567,0.01973
6247.19693,0.02098
6245.26819,0.02019
6243.33944,0.01933
6241.41070,0.02076
6239.48196,0.02299
6237.55322,0.02323
6235.62447,0.02187
6233.69573,0.02115
6231.76699,0.02099
6229.83825,0.02076
6227.90950,0.02047
6225.98076,0.01908
6224.05202,0.01721
6222.12328,0.01699
6220.19453,0.01847
6218.26579,0.02029
6216.33705,0.02078
6214.40831,0.02038
6212.47956,0.02120
6210.55082,0.02312
6208.62208,0.02424
6206.69334,0.02432
6204.76459,0.02436
6202.83585,0.02440
6200.90711,0.02330
6198.97837,0.02148
6197.04962,0.02146
6195.12088,0.02336
6193.19214,0.02426
6191.26340,0.02362
6189.33465,0.02196
6187.40591,0.01963
6185.47717,0.01923
6183.54843,0.02221
6181.61968,0.02531
6179.69094,0.02512
6177.76220,0.02198
6175.83346,0.01929
6173.90471,0.01913
6171.97597,0.02059
6170.04723,0.02255
6168.11849,0.02460
6166.18974,0.02550
6164.26100,0.02478
6162.33226,0.02356
6160.40352,0.02253
6158.47477,0.02193
6156.54603,0.02319
6154.61729,0.02525
6152.68855,0.02471
6150.75980,0.02152
6148.83106,0.01946
6146.90232,0.01995
6144.97358,0.02083
6143.04483,0.02044
6141.11609,0.01998
6139.18735,0.02048
6137.25861,0.02075
6135.32986,0.02073
6133.40112,0.02136
6131.47238,0.02140
6129.54364,0.01964
6127.61489,0.01767
6125.68615,0.01799
6123.75741,0.02014
6121.82867,0.02149
6119.89992,0.02107
6117.97118,0.02090
6116.04244,0.02237
6114.11370,0.02369
6112.18495,0.02362
6110.25621,0.02324
6108.32747,0.02285
6106.39873,0.02264
6104.46998,0.02307
6102.54124,0.02338
6100.61250,0.02222
6098.68376,0.02097
6096.75501,0.02103
6094.82627,0.02098
6092.89753,0.01987
6090.96879,0.01955
6089.04004,0.02045
6087.11130,0.02083
6085.18256,0.02049
6083.25382,0.02096
6081.32507,0.02256
6079.39633,0.02395
6077.46759,0.02372
6075.53885,0.02239
6073.61010,0.02222
6071.68136,0.02366
6069.75262,0.02483
6067.82388,0.02534
6065.89513,0.02519
6063.96639,0.02445
6062.03765,0.02434
6060.10891,0.02437
6058.18016,0.02358
6056.25142,0.02340
6054.32268,0.02387
6052.39394,0.02315
6050.46519,0.02161
6048.53645,0.02100
6046.60771,0.02069
6044.67897,0.02026
6042.75022,0.02113
6040.82148,0.02299
6038.89274,0.02374
6036.96400,0.02301
6035.03525,0.02244
6033.10651,0.02291
6031.17777,0.02277
6029.24903,0.02077
6027.32029,0.01880
6025.39154,0.01922
6023.46280,0.02064
6021.53406,0.02045
6019.60532,0.01942
6017.67657,0.01972
6015.74783,0.02147
6013.81909,0.02271
6011.89035,0.02211
6009.96160,0.02109
6008.03286,0.02056
6006.10412,0.02046
6004.17538,0.02145
6002.24663,0.02283
6000.31789,0.02285
5998.38915,0.02163
5996.46041,0.02075
5994.53166,0.02149
5992.60292,0.02264
5990.67418,0.02236
5988.74544,0.02172
5986.81669,0.02185
5984.88795,0.02152
5982.95921,0.02056
5981.03047,0.02032
5979.10172,0.02116
5977.17298,0.02254
5975.24424,0.02372
5973.31550,0.02393
5971.38675,0.02317
5969.45801,0.02184
5967.52927,0.02044
5965.60053,0.01970
5963.67178,0.01984
5961.74304,0.02025
5959.81430,0.02078
5957.88556,0.02092
5955.95681,0.02077
5954.02807,0.02124
5952.09933,0.02236
5950.17059,0.02276
5948.24184,0.02244
5946.31310,0.02226
5944.38436,0.02229
5942.45562,0.02220
5940.52687,0.02241
5938.59813,0.02291
5936.66939,0.02206
5934.74065,0.01986
5932.81190,0.01951
5930.88316,0.02186
5928.95442,0.02372
5927.02568,0.02291
5925.09693,0.02053
5923.16819,0.01889
5921.23945,0.01934
5919.31071,0.02112
5917.38196,0.02269
5915.45322,0.02290
5913.52448,0.02161
5911.59574,0.02003
5909.66699,0.01996
5907.73825,0.02121
5905.80951,0.02184
5903.88077,0.02159
5901.95202,0.02178
5900.02328,0.02212
5898.09454,0.02218
5896.16580,0.02234
5894.23705,0.02244
5892.30831,0.02229
5890.37957,0.02157
5888.45083,0.02066
5886.52208,0.02086
5884.59334,0.02170
5882.66460,0.02203
5880.73586,0.02186
5878.80711,0.02173
5876.87837,0.02214
5874.94963,0.02276
5873.02089,0.02268
5871.09214,0.02217
5869.16340,0.02154
5867.23466,0.02052
5865.30592,0.01995
5863.37717,0.02080
5861.44843,0.02211
5859.51969,0.02257
5857.59095,0.02252
5855.66220,0.02218
5853.73346,0.02120
5851.80472,0.02035
5849.87598,0.02054
5847.94723,0.02123
5846.01849,0.02120
5844.08975,0.02099
5842.16101,0.02145
5840.23226,0.02182
5838.30352,0.02168
5836.37478,0.02202
5834.44604,0.02246
5832.51729,0.02142
5830.58855,0.01954
5828.65981,0.01924
5826.73107,0.02056
5824.80232,0.02194
5822.87358,0.02309
5820.94484,0.02345
5819.01610,0.02254
5817.08735,0.02178
5815.15861,0.02223
5813.22987,0.02330
5811.30113,0.02401
5809.37238,0.02367
5807.44364,0.02270
5805.51490,0.02182
5803.58616,0.02054
5801.65741,0.01914
5799.72867,0.01887
5797.79993,0.01946
5795.87119,0.02050
5793.94244,0.02204
5792.01370,0.02268
5790.08496,0.02193
5788.15622,0.02118
5786.22747,0.02085
5784.29873,0.02008
5782.36999,0.01879
5780.44125,0.01841
5778.51250,0.02007
5776.58376,0.02201
5774.65502,0.02244
5772.72628,0.02207
5770.79753,0.02183
5768.86879,0.02183
5766.94005,0.02227
5765.01131,0.02261
5763.08256,0.02244
5761.15382,0.02215
5759.22508,0.02207
5757.29634,0.02186
5755.36759,0.02173
5753.43885,0.02200
5751.51011,0.02185
5749.58137,0.02135
5747.65262,0.02136
5745.72388,0.02126
5743.79514,0.02067
5741.86640,0.02069
5739.93765,0.02197
5738.00891,0.02317
5736.08017,0.02287
5734.15143,0.02168
5732.22268,0.02099
5730.29394,0.02155
5728.36520,0.02297
5726.43646,0.02390
5724.50771,0.02348
5722.57897,0.02172
5720.65023,0.01979
5718.72149,0.01943
5716.79274,0.02063
5714.86400,0.02199
5712.93526,0.02268
5711.00652,0.02249
5709.07777,0.02156
5707.14903,0.02002
5705.22029,0.01885
5703.29155,0.01961
5701.36280,0.02146
5699.43406,0.02172
5697.50532,0.02094
5695.57658,0.02133
5693.64783,0.02252
5691.71909,0.02317
5689.79035,0.02318
5687.86161,0.02300
5685.93286,0.02281
5684.00412,0.02222
5682.07538,0.02100
5680.14664,0.01997
5678.21789,0.02016
5676.28915,0.02077
5674.36041,0.02107
5672.43167,0.02136
5670.50292,0.02139
5668.57418,0.02100
5666.64544,0.02047
5664.71670,0.02044
5662.78795,0.02149
5660.85921,0.02305
5658.93047,0.02390
5657.00173,0.02333
5655.07298,0.02220
5653.14424,0.02177
5651.21550,0.02212
5649.28676,0.02249
5647.35801,0.02283
5645.42927,0.02351
5643.50053,0.02462
5641.57179,0.02522
5639.64304,0.02445
5637.71430,0.02288
5635.78556,0.02164
5633.85682,0.02132
5631.92807,0.02170
5629.99933,0.02176
5628.07059,0.02172
5626.14185,0.02182
5624.21310,0.02173
5622.28436,0.02210
5620.35562,0.02249
5618.42688,0.02162
5616.49813,0.02085
5614.56939,0.02145
5612.64065,0.02172
5610.71191,0.02112
5608.78316,0.02113
5606.85442,0.02155
5604.92568,0.02174
5602.99694,0.02214
5601.06819,0.02250
5599.13945,0.02201
5597.21071,0.02124
5595.28197,0.02095
5593.35322,0.02087
5591.42448,0.02099
5589.49574,0.02143
5587.56700,0.02159
5585.63825,0.02141
5583.70951,0.02139
5581.78077,0.02148
5579.85203,0.02167
5577.92328,0.02200
5575.99454,0.02203
5574.06580,0.02207
5572.13706,0.02245
5570.20831,0.02252
5568.27957,0.02174
5566.35083,0.02067
5564.42209,0.02059
5562.49334,0.02144
5560.56460,0.02195
5558.63586,0.02199
5556.70712,0.02197
5554.77837,0.02189
5552.84963,0.02211
5550.92089,0.02283
5548.99215,0.02320
5547.06340,0.02276
5545.13466,0.02203
5543.20592,0.02145
5541.27718,0.02154
5539.34843,0.02255
5537.41969,0.02346
5535.49095,0.02320
5533.56221,0.02223
5531.63346,0.02173
5529.70472,0.02163
5527.77598,0.02117
5525.84724,0.02089
5523.91849,0.02181
5521.98975,0.02275
5520.06101,0.02189
5518.13227,0.02044
5516.20352,0.02067
5514.27478,0.02206
5512.34604,0.02252
5510.41730,0.02174
5508.48855,0.02117
5506.55981,0.02151
5504.63107,0.02183
5502.70233,0.02144
5500.77358,0.02096
5498.84484,0.02109
5496.91610,0.02185
5494.98736,0.02279
5493.05861,0.02315
5491.12987,0.02269
5489.20113,0.02234
5487.27239,0.02268
5485.34365,0.02285
5483.41490,0.02228
5481.48616,0.02180
5479.55742,0.02177
5477.62868,0.02138
5475.69993,0.02086
5473.77119,0.02144
5471.84245,0.02297
5469.91371,0.02395
5467.98496,0.02351
5466.05622,0.02275
5464.12748,0.02262
5462.19874,0.02238
5460.26999,0.02168
5458.34125,0.02157
5456.41251,0.02218
5454.48377,0.02265
5452.55502,0.02288
5450.62628,0.02297
5448.69754,0.02243
5446.76880,0.02153
5444.84005,0.02096
5442.91131,0.02109
5440.98257,0.02155
5439.05383,0.02155
5437.12508,0.02114
5435.19634,0.02105
5433.26760,0.02131
5431.33886,0.02139
5429.41011,0.02107
5427.48137,0.02132
5425.55263,0.02282
5423.62389,0.02392
5421.69514,0.02316
5419.76640,0.02185
5417.83766,0.02170
5415.90892,0.02253
5413.98017,0.02301
5412.05143,0.02247
5410.12269,0.02138
5408.19395,0.02056
5406.26520,0.02049
5404.33646,0.02110
5402.40772,0.02177
5400.47898,0.02227
5398.55023,0.02261
5396.62149,0.02216
5394.69275,0.02117
5392.76401,0.02139
5390.83526,0.02268
5388.90652,0.02302
5386.97778,0.02224
5385.04904,0.02152
5383.12029,0.02141
5381.19155,0.02213
5379.26281,0.02284
5377.33407,0.02262
5375.40532,0.02235
5373.47658,0.02244
5371.54784,0.02220
5369.61910,0.02184
5367.69035,0.02186
5365.76161,0.02240
5363.83287,0.02291
5361.90413,0.02298
5359.97538,0.02342
5358.04664,0.02413
5356.11790,0.02406
5354.18916,0.02373
5352.26041,0.02373
5350.33167,0.02339
5348.40293,0.02248
5346.47419,0.02126
5344.54544,0.02044
5342.61670,0.02095
5340.68796,0.02192
5338.75922,0.02201
5336.83047,0.02176
5334.90173,0.02187
5332.97299,0.02208
5331.04425,0.02208
5329.11550,0.02164
5327.18676,0.02110
5325.25802,0.02120
5323.32928,0.02187
5321.40053,0.02226
5319.47179,0.02226
5317.54305,0.02243
5315.61431,0.02283
5313.68556,0.02314
5311.75682,0.02317
5309.82808,0.02308
5307.89934,0.02308
5305.97059,0.02280
5304.04185,0.02225
5302.11311,0.02219
5300.18437,0.02232
5298.25562,0.02161
5296.32688,0.02105
5294.39814,0.02158
5292.46940,0.02211
5290.54065,0.02223
5288.61191,0.02246
5286.68317,0.02266
5284.75443,0.02274
5282.82568,0.02287
5280.89694,0.02285
5278.96820,0.02243
5277.03946,0.02209
5275.11071,0.02225
5273.18197,0.02224
5271.25323,0.02146
5269.32449,0.02083
5267.39574,0.02128
5265.46700,0.02218
5263.53826,0.02253
5261.60952,0.02218
5259.68077,0.02126
5257.75203,0.02037
5255.82329,0.02040
5253.89455,0.02127
5251.96580,0.02171
5250.03706,0.02104
5248.10832,0.02057
5246.17958,0.02138
5244.25083,0.02217
5242.32209,0.02210
5240.39335,0.02191
5238.46461,0.02182
5236.53586,0.02181
5234.60712,0.02202
5232.67838,0.02217
5230.74964,0.02200
5228.82089,0.02191
5226.89215,0.02233
5224.96341,0.02245
5223.03467,0.02170
5221.10592,0.02099
5219.17718,0.02103
5217.24844,0.02172
5215.31970,0.02278
5213.39095,0.02344
5211.46221,0.02316
5209.53347,0.02231
5207.60473,0.02147
5205.67598,0.02088
5203.74724,0.02086
5201.81850,0.02164
5199.88976,0.02266
5197.96101,0.02311
5196.03227,0.02321
5194.10353,0.02327
5192.17479,0.02309
5190.24604,0.02301
5188.31730,0.02307
5186.38856,0.02279
5184.45982,0.02247
5182.53107,0.02289
5180.60233,0.02349
5178.67359,0.02290
5176.74485,0.02166
5174.81610,0.02114
5172.88736,0.02141
5170.95862,0.02197
5169.02988,0.02254
5167.10113,0.02284
5165.17239,0.02276
5163.24365,0.02234
5161.31491,0.02216
5159.38616,0.02255
5157.45742,0.02265
5155.52868,0.02202
5153.59994,0.02160
5151.67119,0.02180
5149.74245,0.02210
5147.81371,0.02205
5145.88497,0.02166
5143.95622,0.02138
5142.02748,0.02121
5140.09874,0.02116
5138.17000,0.02186
5136.24125,0.02289
5134.31251,0.02289
5132.38377,0.02223
5130.45503,0.02219
5128.52628,0.02266
5126.59754,0.02281
5124.66880,0.02241
5122.74006,0.02209
5120.81131,0.02247
5118.88257,0.02305
5116.95383,0.02306
5115.02509,0.02299
5113.09634,0.02344
5111.16760,0.02381
5109.23886,0.02373
5107.31012,0.02382
5105.38137,0.02399
5103.45263,0.02357
5101.52389,0.02279
5099.59515,0.02236
5097.66640,0.02234
5095.73766,0.02245
5093.80892,0.02246
5091.88018,0.02253
5089.95143,0.02277
5088.02269,0.02272
5086.09395,0.02214
5084.16521,0.02192
5082.23646,0.02277
5080.30772,0.02378
5078.37898,0.02367
5076.45024,0.02306
5074.52149,0.02272
5072.59275,0.02240
5070.66401,0.02224
5068.73527,0.02219
5066.80652,0.02171
5064.87778,0.02132
5062.94904,0.02148
5061.02030,0.02176
5059.09155,0.02192
5057.16281,0.02190
5055.23407,0.02200
5053.30533,0.02263
5051.37658,0.02335
5049.44784,0.02359
5047.51910,0.02331
5045.59036,0.02287
5043.66161,0.02255
5041.73287,0.02242
5039.80413,0.02260
5037.87539,0.02269
5035.94664,0.02201
5034.01790,0.02133
5032.08916,0.02181
5030.16042,0.02273
5028.23167,0.02300
5026.30293,0.02278
5024.37419,0.02269
5022.44545,0.02276
5020.51670,0.02239
5018.58796,0.02179
5016.65922,0.02169
5014.73048,0.02193
5012.80173,0.02219
5010.87299,0.02245
5008.94425,0.02257
5007.01551,0.02253
5005.08676,0.02245
5003.15802,0.02209
5001.22928,0.02130
4999.30054,0.02082
4997.37179,0.02096
4995.44305,0.02107
4993.51431,0.02113
4991.58557,0.02145
4989.65682,0.02181
4987.72808,0.02216
4985.79934,0.02254
4983.87060,0.02299
4981.94185,0.02345
4980.01311,0.02323
4978.08437,0.02229
4976.15563,0.02176
4974.22688,0.02199
4972.29814,0.02250
4970.36940,0.02284
4968.44066,0.02274
4966.51191,0.02253
4964.58317,0.02238
4962.65443,0.02209
4960.72569,0.02210
4958.79694,0.02244
4956.86820,0.02244
4954.93946,0.02235
4953.01072,0.02270
4951.08197,0.02315
4949.15323,0.02311
4947.22449,0.02271
4945.29575,0.02262
4943.36700,0.02283
4941.43826,0.02300
4939.50952,0.02313
4937.58078,0.02313
4935.65204,0.02268
4933.72329,0.02192
4931.79455,0.02139
4929.86581,0.02153
4927.93707,0.02196
4926.00832,0.02200
4924.07958,0.02197
4922.15084,0.02234
4920.22210,0.02271
4918.29335,0.02289
4916.36461,0.02292
4914.43587,0.02249
4912.50713,0.02149
4910.57838,0.02059
4908.64964,0.02062
4906.72090,0.02134
4904.79216,0.02206
4902.86341,0.02265
4900.93467,0.02306
4899.00593,0.02322
4897.07719,0.02322
4895.14844,0.02291
4893.21970,0.02234
4891.29096,0.02195
4889.36222,0.02171
4887.43347,0.02150
4885.50473,0.02172
4883.57599,0.02220
4881.64725,0.02206
4879.71850,0.02154
4877.78976,0.02148
4875.86102,0.02157
4873.93228,0.02150
4872.00353,0.02177
4870.07479,0.02232
4868.14605,0.02249
4866.21731,0.02222
4864.28856,0.02223
4862.35982,0.02267
4860.43108,0.02270
4858.50234,0.02196
4856.57359,0.02131
4854.64485,0.02138
4852.71611,0.02157
4850.78737,0.02145
4848.85862,0.02146
4846.92988,0.02170
4845.00114,0.02188
4843.07240,0.02227
4841.14365,0.02310
4839.21491,0.02354
4837.28617,0.02330
4835.35743,0.02327
4833.42868,0.02369
4831.49994,0.02380
4829.57120,0.02324
4827.64246,0.02276
4825.71371,0.02313
4823.78497,0.02354
4821.85623,0.02324
4819.92749,0.02279
4817.99874,0.02259
4816.07000,0.02234
4814.14126,0.02209
4812.21252,0.02224
4810.28377,0.02256
4808.35503,0.02243
4806.42629,0.02211
4804.49755,0.02229
4802.56880,0.02259
4800.64006,0.02240
4798.71132,0.02216
4796.78258,0.02223
4794.85383,0.02229
4792.92509,0.02237
4790.99635,0.02256
4789.06761,0.02250
4787.13886,0.02224
4785.21012,0.02244
4783.28138,0.02288
4781.35264,0.02270
4779.42389,0.02239
4777.49515,0.02272
4775.56641,0.02312
4773.63767,0.02296
4771.70892,0.02239
4769.78018,0.02202
4767.85144,0.02205
4765.92270,0.02205
4763.99395,0.02210
4762.06521,0.02218
4760.13647,0.02209
4758.20773,0.02224
4756.27898,0.02269
4754.35024,0.02287
4752.42150,0.02286
4750.49276,0.02305
4748.56401,0.02311
4746.63527,0.02268
4744.70653,0.02220
4742.77779,0.02207
4740.84904,0.02246
4738.92030,0.02325
4736.99156,0.02343
4735.06282,0.02271
4733.13407,0.02228
4731.20533,0.02273
4729.27659,0.02301
4727.34785,0.02258
4725.41910,0.02207
4723.49036,0.02178
4721.56162,0.02179
4719.63288,0.02203
4717.70413,0.02226
4715.77539,0.02265
4713.84665,0.02324
4711.91791,0.02340
4709.98916,0.02301
4708.06042,0.02279
4706.13168,0.02285
4704.20294,0.02281
4702.27419,0.02290
4700.34545,0.02337
4698.41671,0.02401
4696.48797,0.02407
4694.55922,0.02292
4692.63048,0.02159
4690.70174,0.02147
4688.77300,0.02205
4686.84425,0.02225
4684.91551,0.02230
4682.98677,0.02282
4681.05803,0.02347
4679.12928,0.02371
4677.20054,0.02359
4675.27180,0.02309
4673.34306,0.02249
4671.41431,0.02243
4669.48557,0.02274
4667.55683,0.02277
4665.62809,0.02248
4663.69934,0.02233
4661.77060,0.02268
4659.84186,0.02332
4657.91312,0.02359
4655.98437,0.02337
4654.05563,0.02303
4652.12689,0.02257
4650.19815,0.02226
4648.26940,0.02248
4646.34066,0.02298
4644.41192,0.02347
4642.48318,0.02370
4640.55443,0.02350
4638.62569,0.02327
4636.69695,0.02331
4634.76821,0.02321
4632.83946,0.02305
4630.91072,0.02325
4628.98198,0.02323
4627.05324,0.02241
4625.12449,0.02140
4623.19575,0.02098
4621.26701,0.02122
4619.33827,0.02148
4617.40952,0.02141
4615.48078,0.02133
4613.55204,0.02167
4611.62330,0.02229
4609.69455,0.02272
4607.76581,0.02294
4605.83707,0.02318
4603.90833,0.02324
4601.97958,0.02301
4600.05084,0.02269
4598.12210,0.02242
4596.19336,0.02240
4594.26461,0.02281
4592.33587,0.02322
4590.40713,0.02328
4588.47839,0.02317
4586.54964,0.02315
4584.62090,0.02315
4582.69216,0.02298
4580.76342,0.02275
4578.83467,0.02273
4576.90593,0.02269
4574.97719,0.02259
4573.04845,0.02267
4571.11970,0.02282
4569.19096,0.02269
4567.26222,0.02238
4565.33348,0.02230
4563.40473,0.02242
4561.47599,0.02240
4559.54725,0.02211
4557.61851,0.02169
4555.68976,0.02164
4553.76102,0.02214
4551.83228,0.02254
4549.90354,0.02248
4547.97479,0.02225
4546.04605,0.02220
4544.11731,0.02255
4542.18857,0.02302
4540.25982,0.02320
4538.33108,0.02310
4536.40234,0.02291
4534.47360,0.02278
4532.54485,0.02276
4530.61611,0.02278
4528.68737,0.02278
4526.75863,0.02293
4524.82988,0.02305
4522.90114,0.02278
4520.97240,0.02230
4519.04366,0.02220
4517.11491,0.02244
4515.18617,0.02251
4513.25743,0.02248
4511.32869,0.02255
4509.39994,0.02266
4507.47120,0.02281
4505.54246,0.02306
4503.61372,0.02301
4501.68497,0.02248
4499.75623,0.02228
4497.82749,0.02276
4495.89875,0.02318
4493.97000,0.02321
4492.04126,0.02296
4490.11252,0.02255
4488.18378,0.02236
4486.25503,0.02256
4484.32629,0.02292
4482.39755,0.02300
4480.46881,0.02267
4478.54006,0.02245
4476.61132,0.02248
4474.68258,0.02241
4472.75384,0.02250
4470.82509,0.02294
4468.89635,0.02319
4466.96761,0.02298
4465.03887,0.02263
4463.11012,0.02253
4461.18138,0.02269
4459.25264,0.02291
4457.32390,0.02322
4455.39515,0.02352
4453.46641,0.02334
4451.53767,0.02267
4449.60893,0.02219
4447.68018,0.02203
4445.75144,0.02184
4443.82270,0.02174
4441.89396,0.02187
4439.96521,0.02232
4438.03647,0.02290
4436.10773,0.02300
4434.17899,0.02266
4432.25024,0.02237
4430.32150,0.02236
4428.39276,0.02259
4426.46402,0.02255
4424.53527,0.02208
4422.60653,0.02188
4420.67779,0.02216
4418.74905,0.02233
4416.82030,0.02227
4414.89156,0.02231
4412.96282,0.02245
4411.03408,0.02273
4409.10533,0.02326
4407.17659,0.02355
4405.24785,0.02316
4403.31911,0.02253
4401.39036,0.02223
4399.46162,0.02240
4397.53288,0.02290
4395.60414,0.02334
4393.67539,0.02315
4391.74665,0.02233
4389.81791,0.02175
4387.88917,0.02196
4385.96043,0.02248
4384.03168,0.02264
4382.10294,0.02228
4380.17420,0.02161
4378.24546,0.02116
4376.31671,0.02143
4374.38797,0.02214
4372.45923,0.02251
4370.53049,0.02259
4368.60174,0.02289
4366.67300,0.02314
4364.74426,0.02315
4362.81552,0.02314
4360.88677,0.02288
4358.95803,0.02227
4357.02929,0.02192
4355.10055,0.02218
4353.17180,0.02247
4351.24306,0.02233
4349.31432,0.02199
4347.38558,0.02181
4345.45683,0.02200
4343.52809,0.02247
4341.59935,0.02270
4339.67061,0.02257
4337.74186,0.02256
4335.81312,0.02277
4333.88438,0.02275
4331.95564,0.02258
4330.02689,0.02263
4328.09815,0.02275
4326.16941,0.02263
4324.24067,0.02245
4322.31192,0.02258
4320.38318,0.02293
4318.45444,0.02305
4316.52570,0.02298
4314.59695,0.02298
4312.66821,0.02289
4310.73947,0.02276
4308.81073,0.02267
4306.88198,0.02239
4304.95324,0.02208
4303.02450,0.02201
4301.09576,0.02218
4299.16701,0.02256
4297.23827,0.02294
4295.30953,0.02296
4293.38079,0.02284
4291.45204,0.02287
4289.52330,0.02296
4287.59456,0.02304
4285.66582,0.02299
4283.73707,0.02259
4281.80833,0.02213
4279.87959,0.02216
4277.95085,0.02280
4276.02210,0.02372
4274.09336,0.02410
4272.16462,0.02348
4270.23588,0.02280
4268.30713,0.02274
4266.37839,0.02270
4264.44965,0.02245
4262.52091,0.02250
4260.59216,0.02283
4258.66342,0.02310
4256.73468,0.02301
4254.80594,0.02257
4252.87719,0.02214
4250.94845,0.02201
4249.01971,0.02228
4247.09097,0.02276
4245.16222,0.02319
4243.23348,0.02352
4241.30474,0.02355
4239.37600,0.02323
4237.44725,0.02277
4235.51851,0.02233
4233.58977,0.02218
4231.66103,0.02236
4229.73228,0.02248
4227.80354,0.02243
4225.87480,0.02252
4223.94606,0.02278
4222.01731,0.02293
4220.08857,0.02319
4218.15983,0.02360
4216.23109,0.02355
4214.30234,0.02282
4212.37360,0.02199
4210.44486,0.02168
4208.51612,0.02183
4206.58737,0.02206
4204.65863,0.02225
4202.72989,0.02230
4200.80115,0.02213
4198.87240,0.02208
4196.94366,0.02239
4195.01492,0.02286
4193.08618,0.02315
4191.15743,0.02303
4189.22869,0.02253
4187.29995,0.02203
4185.37121,0.02197
4183.44246,0.02245
4181.51372,0.02299
4179.58498,0.02298
4177.65624,0.02266
4175.72749,0.02262
4173.79875,0.02285
4171.87001,0.02297
4169.94127,0.02283
4168.01252,0.02274
4166.08378,0.02296
4164.15504,0.02305
4162.22630,0.02259
4160.29755,0.02211
4158.36881,0.02225
4156.44007,0.02269
4154.51133,0.02292
4152.58258,0.02292
4150.65384,0.02282
4148.72510,0.02284
4146.79636,0.02310
4144.86761,0.02327
4142.93887,0.02320
4141.01013,0.02292
4139.08139,0.02258
4137.15264,0.02243
4135.22390,0.02255
4133.29516,0.02290
4131.36642,0.02319
4129.43767,0.02292
4127.50893,0.02257
4125.58019,0.02278
4123.65145,0.02301
4121.72270,0.02289
4119.79396,0.02295
4117.86522,0.02328
4115.93648,0.02339
4114.00773,0.02315
4112.07899,0.02283
4110.15025,0.02267
4108.22151,0.02272
4106.29276,0.02297
4104.36402,0.02321
4102.43528,0.02310
4100.50654,0.02263
4098.57779,0.02222
4096.64905,0.02205
4094.72031,0.02208
4092.79157,0.02230
4090.86282,0.02267
4088.93408,0.02306
4087.00534,0.02310
4085.07660,0.02278
4083.14785,0.02277
4081.21911,0.02315
4079.29037,0.02326
4077.36163,0.02307
4075.43288,0.02317
4073.50414,0.02360
4071.57540,0.02361
4069.64666,0.02302
4067.71791,0.02267
4065.78917,0.02300
4063.86043,0.02333
4061.93169,0.02306
4060.00294,0.02242
4058.07420,0.02186
4056.14546,0.02155
4054.21672,0.02161
4052.28797,0.02205
4050.35923,0.02256
4048.43049,0.02283
4046.50175,0.02289
4044.57300,0.02268
4042.64426,0.02240
4040.71552,0.02238
4038.78678,0.02255
4036.85803,0.02279
4034.92929,0.02312
4033.00055,0.02336
4031.07181,0.02315
4029.14306,0.02270
4027.21432,0.02248
4025.28558,0.02251
4023.35684,0.02266
4021.42809,0.02295
4019.49935,0.02327
4017.57061,0.02344
4015.64187,0.02340
4013.71312,0.02325
4011.78438,0.02307
4009.85564,0.02302
4007.92690,0.02313
4005.99815,0.02306
4004.06941,0.02268
4002.14067,0.02247
4000.21193,0.02267
3998.28318,0.02302
3996.35444,0.02318
3994.42570,0.02304
3992.49696,0.02287
3990.56821,0.02297
3988.63947,0.02315
3986.71073,0.02306
3984.78199,0.02281
3982.85324,0.02273
3980.92450,0.02287
3978.99576,0.02310
3977.06702,0.02334
3975.13827,0.02343
3973.20953,0.02350
3971.28079,0.02353
3969.35205,0.02323
3967.42330,0.02298
3965.49456,0.02302
3963.56582,0.02281
3961.63708,0.02238
3959.70833,0.02224
3957.77959,0.02228
3955.85085,0.02232
3953.92211,0.02247
3951.99336,0.02266
3950.06462,0.02267
3948.13588,0.02257
3946.20714,0.02263
3944.27839,0.02299
3942.34965,0.02357
3940.42091,0.02394
3938.49217,0.02360
3936.56342,0.02308
3934.63468,0.02307
3932.70594,0.02312
3930.77720,0.02295
3928.84845,0.02295
3926.91971,0.02306
3924.99097,0.02319
3923.06223,0.02337
3921.13348,0.02329
3919.20474,0.02290
3917.27600,0.02259
3915.34726,0.02256
3913.41851,0.02257
3911.48977,0.02249
3909.56103,0.02251
3907.63229,0.02262
3905.70354,0.02254
3903.77480,0.02241
3901.84606,0.02250
3899.91732,0.02257
3897.98857,0.02248
3896.05983,0.02248
3894.13109,0.02265
3892.20235,0.02281
3890.27360,0.02300
3888.34486,0.02339
3886.41612,0.02372
3884.48738,0.02374
3882.55863,0.02356
3880.62989,0.02342
3878.70115,0.02337
3876.77241,0.02317
3874.84366,0.02295
3872.91492,0.02293
3870.98618,0.02262
3869.05744,0.02207
3867.12869,0.02225
3865.19995,0.02302
3863.27121,0.02336
3861.34247,0.02303
3859.41372,0.02266
3857.48498,0.02264
3855.55624,0.02270
3853.62750,0.02253
3851.69875,0.02256
3849.77001,0.02294
3847.84127,0.02332
3845.91253,0.02350
3843.98378,0.02351
3842.05504,0.02353
3840.12630,0.02360
3838.19756,0.02345
3836.26882,0.02300
3834.34007,0.02263
3832.41133,0.02250
3830.48259,0.02247
3828.55385,0.02252
3826.62510,0.02279
3824.69636,0.02322
3822.76762,0.02342
3820.83888,0.02315
3818.91013,0.02276
3816.98139,0.02263
3815.05265,0.02269
3813.12391,0.02266
3811.19516,0.02257
3809.26642,0.02262
3807.33768,0.02279
3805.40894,0.02299
3803.48019,0.02328
3801.55145,0.02334
3799.62271,0.02301
3797.69397,0.02278
3795.76522,0.02271
3793.83648,0.02260
3791.90774,0.02250
3789.97900,0.02268
3788.05025,0.02297
3786.12151,0.02299
3784.19277,0.02301
3782.26403,0.02318
3780.33528,0.02308
3778.40654,0.02289
3776.47780,0.02302
3774.54906,0.02319
3772.62031,0.02338
3770.69157,0.02367
3768.76283,0.02355
3766.83409,0.02310
3764.90534,0.02288
3762.97660,0.02289
3761.04786,0.02289
3759.11912,0.02281
3757.19037,0.02276
3755.26163,0.02291
3753.33289,0.02321
3751.40415,0.02336
3749.47540,0.02318
3747.54666,0.02284
3745.61792,0.02256
3743.68918,0.02249
3741.76043,0.02257
3739.83169,0.02255
3737.90295,0.02239
3735.97421,0.02237
3734.04546,0.02256
3732.11672,0.02267
3730.18798,0.02264
3728.25924,0.02254
3726.33049,0.02241
3724.40175,0.02245
3722.47301,0.02264
3720.54427,0.02274
3718.61552,0.02267
3716.68678,0.02259
3714.75804,0.02262
3712.82930,0.02275
3710.90055,0.02294
3708.97181,0.02295
3707.04307,0.02285
3705.11433,0.02284
3703.18558,0.02276
3701.25684,0.02249
3699.32810,0.02209
3697.39936,0.02178
3695.47061,0.02181
3693.54187,0.02221
3691.61313,0.02262
3689.68439,0.02268
3687.75564,0.02269
3685.82690,0.02302
3683.89816,0.02320
3681.96942,0.02290
3680.04067,0.02270
3678.11193,0.02278
3676.18319,0.02262
3674.25445,0.02245
3672.32570,0.02264
3670.39696,0.02281
3668.46822,0.02297
3666.53948,0.02315
3664.61073,0.02301
3662.68199,0.02267
3660.75325,0.02256
3658.82451,0.02250
3656.89576,0.02211
3654.96702,0.02170
3653.03828,0.02174
3651.10954,0.02197
3649.18079,0.02206
3647.25205,0.02231
3645.32331,0.02251
3643.39457,0.02241
3641.46582,0.02238
3639.53708,0.02241
3637.60834,0.02229
3635.67960,0.02220
3633.75085,0.02226
3631.82211,0.02223
3629.89337,0.02195
3627.96463,0.02172
3626.03588,0.02181
3624.10714,0.02197
3622.17840,0.02192
3620.24966,0.02186
3618.32091,0.02206
3616.39217,0.02218
3614.46343,0.02211
3612.53469,0.02222
3610.60594,0.02242
3608.67720,0.02223
3606.74846,0.02179
3604.81972,0.02162
3602.89097,0.02185
3600.96223,0.02215
3599.03349,0.02219
3597.10475,0.02197
3595.17600,0.02173
3593.24726,0.02181
3591.31852,0.02212
3589.38978,0.02206
3587.46103,0.02156
3585.53229,0.02117
3583.60355,0.02115
3581.67481,0.02135
3579.74606,0.02146
3577.81732,0.02142
3575.88858,0.02147
3573.95984,0.02145
3572.03109,0.02124
3570.10235,0.02114
3568.17361,0.02116
3566.24487,0.02111
3564.31612,0.02103
3562.38738,0.02106
3560.45864,0.02138
3558.52990,0.02189
3556.60115,0.02214
3554.67241,0.02196
3552.74367,0.02181
3550.81493,0.02182
3548.88618,0.02160
3546.95744,0.02118
3545.02870,0.02096
3543.09996,0.02101
3541.17121,0.02109
3539.24247,0.02105
3537.31373,0.02096
3535.38499,0.02118
3533.45624,0.02151
3531.52750,0.02145
3529.59876,0.02138
3527.67002,0.02155
3525.74127,0.02164
3523.81253,0.02165
3521.88379,0.02168
3519.95505,0.02150
3518.02630,0.02114
3516.09756,0.02082
3514.16882,0.02074
3512.24008,0.02102
3510.31133,0.02145
3508.38259,0.02144
3506.45385,0.02117
3504.52511,0.02124
3502.59636,0.02149
3500.66762,0.02152
3498.73888,0.02165
3496.81014,0.02196
3494.88139,0.02194
3492.95265,0.02143
3491.02391,0.02088
3489.09517,0.02078
3487.16642,0.02107
3485.23768,0.02141
3483.30894,0.02163
3481.38020,0.02168
3479.45145,0.02156
3477.52271,0.02136
3475.59397,0.02115
3473.66523,0.02100
3471.73648,0.02093
3469.80774,0.02084
3467.87900,0.02081
3465.95026,0.02092
3464.02151,0.02098
3462.09277,0.02086
3460.16403,0.02075
3458.23529,0.02072
3456.30654,0.02080
3454.37780,0.02104
3452.44906,0.02145
3450.52032,0.02162
3448.59157,0.02130
3446.66283,0.02102
3444.73409,0.02100
3442.80535,0.02093
3440.87660,0.02096
3438.94786,0.02113
3437.01912,0.02100
3435.09038,0.02067
3433.16163,0.02066
3431.23289,0.02098
3429.30415,0.02124
3427.37541,0.02125
3425.44666,0.02110
3423.51792,0.02091
3421.58918,0.02072
3419.66044,0.02049
3417.73169,0.02039
3415.80295,0.02057
3413.87421,0.02082
3411.94547,0.02086
3410.01672,0.02075
3408.08798,0.02076
3406.15924,0.02101
3404.23050,0.02114
3402.30175,0.02090
3400.37301,0.02073
3398.44427,0.02085
3396.51553,0.02100
3394.58678,0.02108
3392.65804,0.02113
3390.72930,0.02116
3388.80056,0.02105
3386.87181,0.02083
3384.94307,0.02085
3383.01433,0.02092
3381.08559,0.02067
3379.15684,0.02029
3377.22810,0.02015
3375.29936,0.02032
3373.37062,0.02071
3371.44187,0.02100
3369.51313,0.02085
3367.58439,0.02048
3365.65565,0.02032
3363.72690,0.02041
3361.79816,0.02066
3359.86942,0.02074
3357.94068,0.02056
3356.01193,0.02051
3354.08319,0.02067
3352.15445,0.02088
3350.22571,0.02098
3348.29696,0.02085
3346.36822,0.02051
3344.43948,0.02019
3342.51074,0.02013
3340.58199,0.02015
3338.65325,0.02015
3336.72451,0.02037
3334.79577,0.02065
3332.86702,0.02068
3330.93828,0.02067
3329.00954,0.02069
3327.08080,0.02052
3325.15205,0.02035
3323.22331,0.02037
3321.29457,0.02039
3319.36583,0.02031
3317.43708,0.02037
3315.50834,0.02069
3313.57960,0.02098
3311.65086,0.02113
3309.72211,0.02104
3307.79337,0.02058
3305.86463,0.02014
3303.93589,0.02009
3302.00714,0.02033
3300.07840,0.02056
3298.14966,0.02064
3296.22092,0.02071
3294.29217,0.02069
3292.36343,0.02038
3290.43469,0.02004
3288.50595,0.02001
3286.57721,0.02034
3284.64846,0.02082
3282.71972,0.02122
3280.79098,0.02124
3278.86224,0.02074
3276.93349,0.02016
3275.00475,0.02004
3273.07601,0.02035
3271.14727,0.02067
3269.21852,0.02068
3267.28978,0.02042
3265.36104,0.02016
3263.43230,0.02018
3261.50355,0.02046
3259.57481,0.02069
3257.64607,0.02081
3255.71733,0.02112
3253.78858,0.02158
3251.85984,0.02192
3249.93110,0.02189
3248.00236,0.02144
3246.07361,0.02093
3244.14487,0.02070
3242.21613,0.02076
3240.28739,0.02097
3238.35864,0.02107
3236.42990,0.02106
3234.50116,0.02114
3232.57242,0.02132
3230.64367,0.02144
3228.71493,0.02142
3226.78619,0.02144
3224.85745,0.02151
3222.92870,0.02121
3220.99996,0.02047
3219.07122,0.02008
3217.14248,0.02041
3215.21373,0.02081
3213.28499,0.02090
3211.35625,0.02087
3209.42751,0.02085
3207.49876,0.02084
3205.57002,0.02076
3203.64128,0.02075
3201.71254,0.02105
3199.78379,0.02130
3197.85505,0.02118
3195.92631,0.02095
3193.99757,0.02063
3192.06882,0.02031
3190.14008,0.02031
3188.21134,0.02050
3186.28260,0.02073
3184.35385,0.02104
3182.42511,0.02132
3180.49637,0.02137
3178.56763,0.02124
3176.63888,0.02117
3174.71014,0.02112
3172.78140,0.02113
3170.85266,0.02136
3168.92391,0.02141
3166.99517,0.02111
3165.06643,0.02100
3163.13769,0.02124
3161.20894,0.02145
3159.28020,0.02137
3157.35146,0.02118
3155.42272,0.02114
3153.49397,0.02122
3151.56523,0.02131
3149.63649,0.02138
3147.70775,0.02147
3145.77900,0.02156
3143.85026,0.02158
3141.92152,0.02154
3139.99278,0.02151
3138.06403,0.02137
3136.13529,0.02104
3134.20655,0.02082
3132.27781,0.02094
3130.34906,0.02109
3128.42032,0.02100
3126.49158,0.02070
3124.56284,0.02058
3122.63409,0.02082
3120.70535,0.02112
3118.77661,0.02123
3116.84787,0.02133
3114.91912,0.02150
3112.99038,0.02145
3111.06164,0.02109
3109.13290,0.02063
3107.20415,0.02039
3105.27541,0.02049
3103.34667,0.02069
3101.41793,0.02087
3099.48918,0.02100
3097.56044,0.02099
3095.63170,0.02090
3093.70296,0.02079
3091.77421,0.02082
3089.84547,0.02109
3087.91673,0.02131
3085.98799,0.02117
3084.05924,0.02091
3082.13050,0.02099
3080.20176,0.02134
3078.27302,0.02152
3076.34427,0.02137
3074.41553,0.02113
3072.48679,0.02115
3070.55805,0.02134
3068.62930,0.02135
3066.70056,0.02126
3064.77182,0.02136
3062.84308,0.02149
3060.91433,0.02139
3058.98559,0.02121
3057.05685,0.02113
3055.12811,0.02103
3053.19936,0.02087
3051.27062,0.02058
3049.34188,0.02033
3047.41314,0.02036
3045.48439,0.02039
3043.55565,0.02049
3041.62691,0.02078
3039.69817,0.02094
3037.76942,0.02094
3035.84068,0.02083
3033.91194,0.02051
3031.98320,0.02021
3030.05445,0.02016
3028.12571,0.02025
3026.19697,0.02041
3024.26823,0.02057
3022.33948,0.02063
3020.41074,0.02064
3018.48200,0.02065
3016.55326,0.02076
3014.62451,0.02086
3012.69577,0.02062
3010.76703,0.02028
3008.83829,0.02012
3006.90954,0.02006
3004.98080,0.02015
3003.05206,0.02033
3001.12332,0.02041
2999.19457,0.02042
2997.26583,0.02040
2995.33709,0.02037
2993.40835,0.02040
2991.47960,0.02054
2989.55086,0.02060
2987.62212,0.02038
2985.69338,0.02012
2983.76463,0.02009
2981.83589,0.02018
2979.90715,0.02017
2977.97841,0.02001
2976.04966,0.01967
2974.12092,0.01927
2972.19218,0.01900
2970.26344,0.01890
2968.33469,0.01904
2966.40595,0.01943
2964.47721,0.01985
2962.54847,0.02015
2960.61972,0.02017
2958.69098,0.01995
2956.76224,0.01999
2954.83350,0.02036
2952.90475,0.02038
2950.97601,0.01988
2949.04727,0.01955
2947.11853,0.01961
2945.18978,0.01969
2943.26104,0.01966
2941.33230,0.01943
2939.40356,0.01918
2937.47481,0.01929
2935.54607,0.01966
2933.61733,0.01991
2931.68859,0.01997
2929.75984,0.01988
2927.83110,0.01977
2925.90236,0.01982
2923.97362,0.02003
2922.04487,0.02017
2920.11613,0.02024
2918.18739,0.02036
2916.25865,0.02033
2914.32990,0.02014
2912.40116,0.02014
2910.47242,0.02034
2908.54368,0.02051
2906.61493,0.02066
2904.68619,0.02077
2902.75745,0.02066
2900.82871,0.02045
2898.89996,0.02047
2896.97122,0.02068
2895.04248,0.02077
2893.11374,0.02076
2891.18499,0.02073
2889.25625,0.02058
2887.32751,0.02031
2885.39877,0.02012
2883.47002,0.02015
2881.54128,0.02034
2879.61254,0.02041
2877.68380,0.02037
2875.75505,0.02058
2873.82631,0.02089
2871.89757,0.02102
2869.96883,0.02116
2868.04008,0.02127
2866.11134,0.02117
2864.18260,0.02093
2862.25386,0.02070
2860.32511,0.02059
2858.39637,0.02061
2856.46763,0.02069
2854.53889,0.02076
2852.61014,0.02079
2850.68140,0.02093
2848.75266,0.02124
2846.82392,0.02136
2844.89517,0.02108
2842.96643,0.02082
2841.03769,0.02094
2839.10895,0.02117
2837.18020,0.02122
2835.25146,0.02117
2833.32272,0.02117
2831.39398,0.02114
2829.46523,0.02105
2827.53649,0.02107
2825.60775,0.02119
2823.67901,0.02120
2821.75026,0.02126
2819.82152,0.02145
2817.89278,0.02157
2815.96404,0.02159
2814.03529,0.02162
2812.10655,0.02161
2810.17781,0.02161
2808.24907,0.02158
2806.32032,0.02137
2804.39158,0.02124
2802.46284,0.02146
2800.53410,0.02164
2798.60535,0.02147
2796.67661,0.02138
2794.74787,0.02155
2792.81913,0.02164
2790.89038,0.02155
2788.96164,0.02148
2787.03290,0.02146
2785.10416,0.02150
2783.17541,0.02157
2781.24667,0.02150
2779.31793,0.02134
2777.38919,0.02139
2775.46044,0.02163
2773.53170,0.02174
2771.60296,0.02160
2769.67422,0.02136
2767.74547,0.02138
2765.81673,0.02160
2763.88799,0.02168
2761.95925,0.02157
2760.03050,0.02140
2758.10176,0.02127
2756.17302,0.02124
2754.24428,0.02133
2752.31553,0.02147
2750.38679,0.02164
2748.45805,0.02187
2746.52931,0.02203
2744.60056,0.02192
2742.67182,0.02152
2740.74308,0.02108
2738.81434,0.02091
2736.88560,0.02096
2734.95685,0.02105
2733.02811,0.02121
2731.09937,0.02140
2729.17063,0.02152
2727.24188,0.02157
2725.31314,0.02151
2723.38440,0.02132
2721.45566,0.02122
2719.52691,0.02144
2717.59817,0.02171
2715.66943,0.02175
2713.74069,0.02167
2711.81194,0.02163
2709.88320,0.02166
2707.95446,0.02166
2706.02572,0.02163
2704.09697,0.02161
2702.16823,0.02158
2700.23949,0.02163
2698.31075,0.02176
2696.38200,0.02168
2694.45326,0.02146
2692.52452,0.02143
2690.59578,0.02148
2688.66703,0.02139
2686.73829,0.02126
2684.80955,0.02132
2682.88081,0.02162
2680.95206,0.02188
2679.02332,0.02185
2677.09458,0.02177
2675.16584,0.02179
2673.23709,0.02171
2671.30835,0.02154
2669.37961,0.02148
2667.45087,0.02153
2665.52212,0.02148
2663.59338,0.02130
2661.66464,0.02124
2659.73590,0.02132
2657.80715,0.02134
2655.87841,0.02124
2653.94967,0.02120
2652.02093,0.02135
2650.09218,0.02150
2648.16344,0.02141
2646.23470,0.02124
2644.30596,0.02120
2642.37721,0.02122
2640.44847,0.02123
2638.51973,0.02128
2636.59099,0.02141
2634.66224,0.02162
2632.73350,0.02184
2630.80476,0.02182
2628.87602,0.02155
2626.94727,0.02143
2625.01853,0.02153
2623.08979,0.02157
2621.16105,0.02134
2619.23230,0.02091
2617.30356,0.02072
2615.37482,0.02101
2613.44608,0.02140
2611.51733,0.02160
2609.58859,0.02174
2607.65985,0.02180
2605.73111,0.02168
2603.80236,0.02145
2601.87362,0.02131
2599.94488,0.02123
2598.01614,0.02109
2596.08739,0.02108
2594.15865,0.02132
2592.22991,0.02156
2590.30117,0.02162
2588.37242,0.02164
2586.44368,0.02172
2584.51494,0.02166
2582.58620,0.02147
2580.65745,0.02139
2578.72871,0.02148
2576.79997,0.02152
2574.87123,0.02134
2572.94248,0.02105
2571.01374,0.02101
2569.08500,0.02135
2567.15626,0.02171
2565.22751,0.02183
2563.29877,0.02176
2561.37003,0.02157
2559.44129,0.02144
2557.51254,0.02155
2555.58380,0.02175
2553.65506,0.02169
2551.72632,0.02135
2549.79757,0.02108
2547.86883,0.02097
2545.94009,0.02096
2544.01135,0.02106
2542.08260,0.02131
2540.15386,0.02152
2538.22512,0.02159
2536.29638,0.02163
2534.36763,0.02162
2532.43889,0.02148
2530.51015,0.02138
2528.58141,0.02132
2526.65266,0.02113
2524.72392,0.02104
2522.79518,0.02133
2520.86644,0.02164
2518.93769,0.02155
2517.00895,0.02129
2515.08021,0.02126
2513.15147,0.02139
2511.22272,0.02150
2509.29398,0.02156
2507.36524,0.02152
2505.43650,0.02134
2503.50775,0.02120
2501.57901,0.02121
2499.65027,0.02126
2497.72153,0.02135
2495.79278,0.02147
2493.86404,0.02157
2491.93530,0.02173
2490.00656,0.02180
2488.07781,0.02160
2486.14907,0.02129
2484.22033,0.02119
2482.29159,0.02146
2480.36284,0.02176
2478.43410,0.02182
2476.50536,0.02181
2474.57662,0.02179
2472.64787,0.02177
2470.71913,0.02172
2468.79039,0.02163
2466.86165,0.02154
2464.93290,0.02148
2463.00416,0.02148
2461.07542,0.02159
2459.14668,0.02168
2457.21793,0.02172
2455.28919,0.02178
2453.36045,0.02179
2451.43171,0.02181
2449.50296,0.02190
2447.57422,0.02185
2445.64548,0.02163
2443.71674,0.02153
2441.78799,0.02154
2439.85925,0.02151
2437.93051,0.02155
2436.00177,0.02165
2434.07302,0.02171
2432.14428,0.02172
2430.21554,0.02161
2428.28680,0.02142
2426.35805,0.02132
2424.42931,0.02130
2422.50057,0.02134
2420.57183,0.02144
2418.64308,0.02144
2416.71434,0.02131
2414.78560,0.02122
2412.85686,0.02119
2410.92811,0.02121
2408.99937,0.02119
2407.07063,0.02116
2405.14189,0.02115
2403.21314,0.02118
2401.28440,0.02129
2399.35566,0.02151
2397.42692,0.02172
2395.49817,0.02185
2393.56943,0.02187
2391.64069,0.02166
2389.71195,0.02137
2387.78320,0.02128
2385.85446,0.02139
2383.92572,0.02151
2381.99698,0.02155
2380.06823,0.02152
2378.13949,0.02146
2376.21075,0.02150
2374.28201,0.02171
2372.35326,0.02186
2370.42452,0.02176
2368.49578,0.02157
2366.56704,0.02150
2364.63829,0.02156
2362.70955,0.02175
2360.78081,0.02188
2358.85207,0.02173
2356.92332,0.02156
2354.99458,0.02165
2353.06584,0.02176
2351.13710,0.02160
2349.20835,0.02136
2347.27961,0.02126
2345.35087,0.02109
2343.42213,0.02081
2341.49338,0.02071
2339.56464,0.02088
2337.63590,0.02119
2335.70716,0.02143
2333.77841,0.02139
2331.84967,0.02124
2329.92093,0.02124
2327.99219,0.02138
2326.06344,0.02159
2324.13470,0.02181
2322.20596,0.02186
2320.27722,0.02167
2318.34847,0.02135
2316.41973,0.02114
2314.49099,0.02107
2312.56225,0.02116
2310.63350,0.02147
2308.70476,0.02175
2306.77602,0.02170
2304.84728,0.02145
2302.91853,0.02129
2300.98979,0.02132
2299.06105,0.02128
2297.13231,0.02109
2295.20356,0.02098
2293.27482,0.02107
2291.34608,0.02107
2289.41734,0.02090
2287.48859,0.02085
2285.55985,0.02097
2283.63111,0.02113
2281.70237,0.02132
2279.77362,0.02150
2277.84488,0.02156
2275.91614,0.02148
2273.98740,0.02130
2272.05865,0.02112
2270.12991,0.02116
2268.20117,0.02144
2266.27243,0.02155
2264.34368,0.02135
2262.41494,0.02112
2260.48620,0.02096
2258.55746,0.02092
2256.62871,0.02111
2254.69997,0.02141
2252.77123,0.02154
2250.84249,0.02140
2248.91374,0.02123
2246.98500,0.02126
2245.05626,0.02129
2243.12752,0.02124
2241.19877,0.02123
2239.27003,0.02128
2237.34129,0.02130
2235.41255,0.02129
2233.48380,0.02120
2231.55506,0.02100
2229.62632,0.02091
2227.69758,0.02104
2225.76883,0.02113
2223.84009,0.02108
2221.91135,0.02121
2219.98261,0.02151
2218.05386,0.02154
2216.12512,0.02131
2214.19638,0.02118
2212.26764,0.02126
2210.33889,0.02147
2208.41015,0.02160
2206.48141,0.02143
2204.55267,0.02107
2202.62392,0.02084
2200.69518,0.02097
2198.76644,0.02127
2196.83770,0.02127
2194.90895,0.02096
2192.98021,0.02083
2191.05147,0.02092
2189.12273,0.02092
2187.19399,0.02083
2185.26524,0.02086
2183.33650,0.02108
2181.40776,0.02135
2179.47902,0.02146
2177.55027,0.02142
2175.62153,0.02139
2173.69279,0.02136
2171.76405,0.02133
2169.83530,0.02135
2167.90656,0.02131
2165.97782,0.02120
2164.04908,0.02120
2162.12033,0.02131
2160.19159,0.02126
2158.26285,0.02111
2156.33411,0.02125
2154.40536,0.02151
2152.47662,0.02148
2150.54788,0.02126
2148.61914,0.02111
2146.69039,0.02111
2144.76165,0.02115
2142.83291,0.02113
2140.90417,0.02117
2138.97542,0.02137
2137.04668,0.02147
2135.11794,0.02128
2133.18920,0.02103
2131.26045,0.02091
2129.33171,0.02088
2127.40297,0.02094
2125.47423,0.02111
2123.54548,0.02123
2121.61674,0.02115
2119.68800,0.02103
2117.75926,0.02112
2115.83051,0.02133
2113.90177,0.02140
2111.97303,0.02128
2110.04429,0.02116
2108.11554,0.02106
2106.18680,0.02089
2104.25806,0.02068
2102.32932,0.02072
2100.40057,0.02104
2098.47183,0.02131
2096.54309,0.02139
2094.61435,0.02142
2092.68560,0.02137
2090.75686,0.02115
2088.82812,0.02102
2086.89938,0.02117
2084.97063,0.02140
2083.04189,0.02142
2081.11315,0.02114
2079.18441,0.02075
2077.25566,0.02055
2075.32692,0.02063
2073.39818,0.02073
2071.46944,0.02070
2069.54069,0.02075
2067.61195,0.02080
2065.68321,0.02068
2063.75447,0.02056
2061.82572,0.02060
2059.89698,0.02080
2057.96824,0.02092
2056.03950,0.02092
2054.11075,0.02097
2052.18201,0.02102
2050.25327,0.02091
2048.32453,0.02077
2046.39578,0.02079
2044.46704,0.02100
2042.53830,0.02118
2040.60956,0.02115
2038.68081,0.02101
2036.75207,0.02094
2034.82333,0.02093
2032.89459,0.02096
2030.96584,0.02107
2029.03710,0.02112
2027.10836,0.02112
2025.17962,0.02115
2023.25087,0.02112
2021.32213,0.02114
2019.39339,0.02124
2017.46465,0.02120
2015.53590,0.02106
2013.60716,0.02095
2011.67842,0.02099
2009.74968,0.02118
2007.82093,0.02124
2005.89219,0.02118
2003.96345,0.02117
2002.03471,0.02109
2000.10596,0.02094
1998.17722,0.02085
1996.24848,0.02082
1994.31974,0.02090
1992.39099,0.02102
1990.46225,0.02098
1988.53351,0.02081
1986.60477,0.02066
1984.67602,0.02067
1982.74728,0.02085
1980.81854,0.02098
1978.88980,0.02097
1976.96105,0.02093
1975.03231,0.02086
1973.10357,0.02070
1971.17483,0.02065
1969.24608,0.02074
1967.31734,0.02082
1965.38860,0.02078
1963.45986,0.02065
1961.53111,0.02058
1959.60237,0.02060
1957.67363,0.02070
1955.74489,0.02086
1953.81614,0.02105
1951.88740,0.02117
1949.95866,0.02110
1948.02992,0.02086
1946.10117,0.02057
1944.17243,0.02032
1942.24369,0.02024
1940.31495,0.02038
1938.38620,0.02047
1936.45746,0.02047
1934.52872,0.02065
1932.59998,0.02102
1930.67123,0.02124
1928.74249,0.02116
1926.81375,0.02100
1924.88501,0.02100
1922.95626,0.02103
1921.02752,0.02095
1919.09878,0.02082
1917.17004,0.02080
1915.24129,0.02094
1913.31255,0.02118
1911.38381,0.02130
1909.45507,0.02121
1907.52632,0.02108
1905.59758,0.02098
1903.66884,0.02091
1901.74010,0.02088
1899.81135,0.02089
1897.88261,0.02091
1895.95387,0.02092
1894.02513,0.02096
1892.09638,0.02105
1890.16764,0.02113
1888.23890,0.02105
1886.31016,0.02081
1884.38141,0.02062
1882.45267,0.02061
1880.52393,0.02062
1878.59519,0.02061
1876.66644,0.02062
1874.73770,0.02066
1872.80896,0.02069
1870.88022,0.02074
1868.95147,0.02083
1867.02273,0.02081
1865.09399,0.02056
1863.16525,0.02034
1861.23650,0.02031
1859.30776,0.02033
1857.37902,0.02034
1855.45028,0.02046
1853.52153,0.02055
1851.59279,0.02043
1849.66405,0.02016
1847.73531,0.02002
1845.80656,0.02016
1843.87782,0.02037
1841.94908,0.02047
1840.02034,0.02048
1838.09159,0.02052
1836.16285,0.02059
1834.23411,0.02050
1832.30537,0.02029
1830.37662,0.02021
1828.44788,0.02022
1826.51914,0.02028
1824.59040,0.02044
1822.66165,0.02058
1820.73291,0.02052
1818.80417,0.02035
1816.87543,0.02027
1814.94668,0.02026
1813.01794,0.02025
1811.08920,0.02021
1809.16046,0.02007
1807.23171,0.01992
1805.30297,0.01993
1803.37423,0.02003
1801.44549,0.02015
1799.51674,0.02026
1797.58800,0.02009
1795.65926,0.01977
1793.73052,0.01961
1791.80177,0.01963
1789.87303,0.01965
1787.94429,0.01956
1786.01555,0.01947
1784.08680,0.01948
1782.15806,0.01949
1780.22932,0.01946
1778.30058,0.01925
1776.37183,0.01895
1774.44309,0.01879
1772.51435,0.01871
1770.58561,0.01858
1768.65686,0.01842
1766.72812,0.01822
1764.79938,0.01810
1762.87064,0.01818
1760.94189,0.01824
1759.01315,0.01807
1757.08441,0.01773
1755.15567,0.01738
1753.22692,0.01720
1751.29818,0.01723
1749.36944,0.01738
1747.44070,0.01760
1745.51195,0.01785
1743.58321,0.01814
1741.65447,0.01846
1739.72573,0.01873
1737.79698,0.01904
1735.86824,0.01948
1733.93950,0.01984
1732.01076,0.02005
1730.08201,0.02032
1728.15327,0.02048
1726.22453,0.02054
1724.29579,0.02082
1722.36704,0.02123
1720.43830,0.02146
1718.50956,0.02128
1716.58082,0.02084
1714.65207,0.02065
1712.72333,0.02073
1710.79459,0.02074
1708.86585,0.02056
1706.93710,0.02033
1705.00836,0.02023
1703.07962,0.02027
1701.15088,0.02024
1699.22213,0.01998
1697.29339,0.01967
1695.36465,0.01948
1693.43591,0.01941
1691.50716,0.01928
1689.57842,0.01903
1687.64968,0.01883
1685.72094,0.01885
1683.79219,0.01905
1681.86345,0.01919
1679.93471,0.01911
1678.00597,0.01902
1676.07722,0.01905
1674.14848,0.01901
1672.21974,0.01897
1670.29100,0.01904
1668.36225,0.01906
1666.43351,0.01900
1664.50477,0.01884
1662.57603,0.01848
1660.64728,0.01827
1658.71854,0.01839
1656.78980,0.01857
1654.86106,0.01869
1652.93231,0.01859
1651.00357,0.01836
1649.07483,0.01843
1647.14609,0.01862
1645.21735,0.01854
1643.28860,0.01828
1641.35986,0.01821
1639.43112,0.01850
1637.50238,0.01895
1635.57363,0.01908
1633.64489,0.01877
1631.71615,0.01856
1629.78741,0.01861
1627.85866,0.01867
1625.92992,0.01874
1624.00118,0.01884
1622.07244,0.01882
1620.14369,0.01880
1618.21495,0.01884
1616.28621,0.01875
1614.35747,0.01856
1612.42872,0.01857
1610.49998,0.01881
1608.57124,0.01900
1606.64250,0.01908
1604.71375,0.01916
1602.78501,0.01917
1600.85627,0.01916
1598.92753,0.01915
1596.99878,0.01896
1595.07004,0.01862
1593.14130,0.01840
1591.21256,0.01851
1589.28381,0.01873
1587.35507,0.01877
1585.42633,0.01865
1583.49759,0.01854
1581.56884,0.01857
1579.64010,0.01876
1577.71136,0.01876
1575.78262,0.01849
1573.85387,0.01842
1571.92513,0.01857
1569.99639,0.01852
1568.06765,0.01836
1566.13890,0.01830
1564.21016,0.01834
1562.28142,0.01832
1560.35268,0.01815
1558.42393,0.01807
1556.49519,0.01824
1554.56645,0.01841
1552.63771,0.01847
1550.70896,0.01838
1548.78022,0.01822
1546.85148,0.01826
1544.92274,0.01851
1542.99399,0.01872
1541.06525,0.01879
1539.13651,0.01870
1537.20777,0.01859
1535.27902,0.01854
1533.35028,0.01859
1531.42154,0.01875
1529.49280,0.01888
1527.56405,0.01885
1525.63531,0.01876
1523.70657,0.01880
1521.77783,0.01895
1519.84908,0.01903
1517.92034,0.01892
1515.99160,0.01857
1514.06286,0.01821
1512.13411,0.01820
1510.20537,0.01854
1508.27663,0.01891
1506.34789,0.01895
1504.41914,0.01883
1502.49040,0.01896
1500.56166,0.01919
1498.63292,0.01916
1496.70417,0.01894
1494.77543,0.01889
1492.84669,0.01904
1490.91795,0.01918
1488.98920,0.01912
1487.06046,0.01890
1485.13172,0.01873
1483.20298,0.01870
1481.27423,0.01869
1479.34549,0.01861
1477.41675,0.01861
1475.48801,0.01874
1473.55926,0.01888
1471.63052,0.01879
1469.70178,0.01854
1467.77304,0.01842
1465.84429,0.01850
1463.91555,0.01867
1461.98681,0.01880
1460.05807,0.01890
1458.12932,0.01901
1456.20058,0.01909
1454.27184,0.01906
1452.34310,0.01895
1450.41435,0.01886
1448.48561,0.01886
1446.55687,0.01894
1444.62813,0.01900
1442.69938,0.01894
1440.77064,0.01894
1438.84190,0.01921
1436.91316,0.01951
1434.98441,0.01949
1433.05567,0.01921
1431.12693,0.01891
1429.19819,0.01865
1427.26944,0.01851
1425.34070,0.01850
1423.41196,0.01855
1421.48322,0.01862
1419.55447,0.01868
1417.62573,0.01862
1415.69699,0.01845
1413.76825,0.01823
1411.83950,0.01818
1409.91076,0.01837
1407.98202,0.01855
1406.05328,0.01845
1404.12453,0.01822
1402.19579,0.01819
1400.26705,0.01825
1398.33831,0.01824
1396.40956,0.01828
1394.48082,0.01831
1392.55208,0.01819
1390.62334,0.01812
1388.69459,0.01823
1386.76585,0.01832
1384.83711,0.01831
1382.90837,0.01832
1380.97962,0.01837
1379.05088,0.01838
1377.12214,0.01832
1375.19340,0.01822
1373.26465,0.01821
1371.33591,0.01836
1369.40717,0.01845
1367.47843,0.01835
1365.54968,0.01826
1363.62094,0.01834
1361.69220,0.01843
1359.76346,0.01840
1357.83471,0.01832
1355.90597,0.01834
1353.97723,0.01839
1352.04849,0.01825
1350.11974,0.01800
1348.19100,0.01793
1346.26226,0.01795
1344.33352,0.01786
1342.40477,0.01776
1340.47603,0.01784
1338.54729,0.01789
1336.61855,0.01775
1334.68980,0.01766
1332.76106,0.01771
1330.83232,0.01768
1328.90358,0.01750
1326.97483,0.01731
1325.04609,0.01730
1323.11735,0.01740
1321.18861,0.01735
1319.25986,0.01717
1317.33112,0.01699
1315.40238,0.01696
1313.47364,0.01706
1311.54489,0.01718
1309.61615,0.01729
1307.68741,0.01735
1305.75867,0.01735
1303.82992,0.01740
1301.90118,0.01747
1299.97244,0.01745
1298.04370,0.01746
1296.11495,0.01765
1294.18621,0.01794
1292.25747,0.01816
1290.32873,0.01827
1288.39998,0.01828
1286.47124,0.01827
1284.54250,0.01835
1282.61376,0.01863
1280.68501,0.01895
1278.75627,0.01911
1276.82753,0.01920
1274.89879,0.01931
1272.97004,0.01936
1271.04130,0.01931
1269.11256,0.01926
1267.18382,0.01937
1265.25507,0.01959
1263.32633,0.01983
1261.39759,0.02002
1259.46885,0.02013
1257.54010,0.02022
1255.61136,0.02019
1253.68262,0.01997
1251.75388,0.01987
1249.82513,0.02001
1247.89639,0.02019
1245.96765,0.02033
1244.03891,0.02036
1242.11016,0.02014
1240.18142,0.01982
1238.25268,0.01966
1236.32394,0.01969
1234.39519,0.01976
1232.46645,0.01968
1230.53771,0.01942
1228.60897,0.01915
1226.68022,0.01903
1224.75148,0.01901
1222.82274,0.01898
1220.89400,0.01899
1218.96525,0.01908
1217.03651,0.01901
1215.10777,0.01883
1213.17903,0.01882
1211.25028,0.01889
1209.32154,0.01882
1207.39280,0.01874
1205.46406,0.01884
1203.53531,0.01884
1201.60657,0.01850
1199.67783,0.01818
1197.74909,0.01817
1195.82034,0.01828
1193.89160,0.01832
1191.96286,0.01838
1190.03412,0.01848
1188.10537,0.01844
1186.17663,0.01822
1184.24789,0.01801
1182.31915,0.01799
1180.39040,0.01804
1178.46166,0.01793
1176.53292,0.01771
1174.60418,0.01748
1172.67543,0.01729
1170.74669,0.01730
1168.81795,0.01755
1166.88921,0.01784
1164.96046,0.01799
1163.03172,0.01799
1161.10298,0.01799
1159.17424,0.01798
1157.24549,0.01777
1155.31675,0.01747
1153.38801,0.01746
1151.45927,0.01758
1149.53052,0.01755
1147.60178,0.01754
1145.67304,0.01753
1143.74430,0.01737
1141.81555,0.01727
1139.88681,0.01743
1137.95807,0.01766
1136.02933,0.01779
1134.10058,0.01790
1132.17184,0.01816
1130.24310,0.01838
1128.31436,0.01833
1126.38561,0.01827
1124.45687,0.01855
1122.52813,0.01894
1120.59939,0.01911
1118.67064,0.01895
1116.74190,0.01843
1114.81316,0.01811
1112.88442,0.01842
1110.95567,0.01875
1109.02693,0.01868
1107.09819,0.01864
1105.16945,0.01865
1103.24070,0.01837
1101.31196,0.01795
1099.38322,0.01787
1097.45448,0.01811
1095.52574,0.01839
1093.59699,0.01854
1091.66825,0.01852
1089.73951,0.01845
1087.81077,0.01842
1085.88202,0.01841
1083.95328,0.01850
1082.02454,0.01863
1080.09580,0.01872
1078.16705,0.01897
1076.23831,0.01931
1074.30957,0.01957
1072.38083,0.01991
1070.45208,0.02039
1068.52334,0.02056
1066.59460,0.02015
1064.66586,0.01956
1062.73711,0.01935
1060.80837,0.01957
1058.87963,0.01992
1056.95089,0.02014
1055.02214,0.02027
1053.09340,0.02029
1051.16466,0.01998
1049.23592,0.01941
1047.30717,0.01907
1045.37843,0.01922
1043.44969,0.01966
1041.52095,0.01996
1039.59220,0.01994
1037.66346,0.01995
1035.73472,0.02003
1033.80598,0.01993
1031.87723,0.01973
1029.94849,0.01971
1028.01975,0.01986
1026.09101,0.01980
1024.16226,0.01942
1022.23352,0.01925
1020.30478,0.01939
1018.37604,0.01953
1016.44729,0.01973
1014.51855,0.02011
1012.58981,0.02048
1010.66107,0.02059
1008.73232,0.02036
1006.80358,0.02023
1004.87484,0.02049
1002.94610,0.02079
1001.01735,0.02083
999.08861,0.02082
997.15987,0.02101
995.23113,0.02127
993.30238,0.02119
991.37364,0.02071
989.44490,0.02033
987.51616,0.02039
985.58741,0.02058
983.65867,0.02063
981.72993,0.02065
979.80119,0.02068
977.87244,0.02064
975.94370,0.02052
974.01496,0.02028
972.08622,0.02010
970.15747,0.02022
968.22873,0.02039
966.29999,0.02034
964.37125,0.02026
962.44250,0.02037
960.51376,0.02046
958.58502,0.02039
956.65628,0.02040
954.72753,0.02047
952.79879,0.02040
950.87005,0.02029
948.94131,0.02018
947.01256,0.02000
945.08382,0.01989
943.15508,0.01995
941.22634,0.01986
939.29759,0.01966
937.36885,0.01979
935.44011,0.01999
933.51137,0.01978
931.58262,0.01953
929.65388,0.01979
927.72514,0.02018
925.79640,0.02012
923.86765,0.01981
921.93891,0.01965
920.01017,0.01969
918.08143,0.01958
916.15268,0.01932
914.22394,0.01926
912.29520,0.01928
910.36646,0.01916
908.43771,0.01908
906.50897,0.01907
904.58023,0.01892
902.65149,0.01864
900.72274,0.01844
898.79400,0.01840
896.86526,0.01847
894.93652,0.01872
893.00777,0.01913
891.07903,0.01936
889.15029,0.01925
887.22155,0.01910
885.29280,0.01911
883.36406,0.01918
881.43532,0.01938
879.50658,0.01944
877.57783,0.01907
875.64909,0.01874
873.72035,0.01878
871.79161,0.01879
869.86286,0.01863
867.93412,0.01864
866.00538,0.01885
864.07664,0.01895
862.14789,0.01906
860.21915,0.01928
858.29041,0.01931
856.36167,0.01908
854.43292,0.01892
852.50418,0.01889
850.57544,0.01880
848.64670,0.01864
846.71795,0.01872
844.78921,0.01890
842.86047,0.01879
840.93173,0.01854
839.00298,0.01839
837.07424,0.01820
835.14550,0.01807
833.21676,0.01830
831.28801,0.01866
829.35927,0.01890
827.43053,0.01912
825.50179,0.01930
823.57304,0.01932
821.64430,0.01918
819.71556,0.01890
817.78682,0.01878
815.85807,0.01893
813.92933,0.01908
812.00059,0.01912
810.07185,0.01921
808.14310,0.01941
806.21436,0.01971
804.28562,0.01983
802.35688,0.01940
800.42813,0.01871
798.49939,0.01850
796.57065,0.01882
794.64191,0.01915
792.71316,0.01925
790.78442,0.01924
788.85568,0.01931
786.92694,0.01951
784.99819,0.01965
783.06945,0.01942
781.14071,0.01887
779.21197,0.01856
777.28322,0.01864
775.35448,0.01883
773.42574,0.01902
771.49700,0.01913
769.56825,0.01889
767.63951,0.01839
765.71077,0.01800
763.78203,0.01787
761.85328,0.01789
759.92454,0.01807
757.99580,0.01836
756.06706,0.01849
754.13831,0.01846
752.20957,0.01851
750.28083,0.01868
748.35209,0.01874
746.42334,0.01876
744.49460,0.01881
742.56586,0.01868
740.63712,0.01850
738.70837,0.01850
736.77963,0.01839
734.85089,0.01812
732.92215,0.01828
730.99340,0.01881
729.06466,0.01896
727.13592,0.01875
725.20718,0.01866
723.27843,0.01859
721.34969,0.01840
719.42095,0.01832
717.49221,0.01831
715.56346,0.01819
713.63472,0.01788
711.70598,0.01750
709.77724,0.01761
707.84849,0.01795
705.91975,0.01780
703.99101,0.01734
702.06227,0.01703
700.13352,0.01717
698.20478,0.01765
696.27604,0.01791
694.34730,0.01802
692.41855,0.01826
690.48981,0.01834
688.56107,0.01807
686.63233,0.01795
684.70358,0.01826
682.77484,0.01851
680.84610,0.01828
678.91736,0.01765
676.98861,0.01706
675.05987,0.01712
673.13113,0.01762
671.20239,0.01774
669.27364,0.01766
667.34490,0.01804
665.41616,0.01872
663.48742,0.01909
661.55867,0.01882
659.62993,0.01835
657.70119,0.01810
655.77245,0.01769
653.84370,0.01690
651.91496,0.01598
649.98622,0.01514
648.05748,0.01493
646.12873,0.01553
644.19999,0.01613
642.27125,0.01633
640.34251,0.01646
638.41376,0.01672
636.48502,0.01695
634.55628,0.01651
632.62754,0.01563
630.69879,0.01527
628.77005,0.01544
626.84131,0.01578
624.91257,0.01569
622.98382,0.01464
621.05508,0.01365
619.12634,0.01379
617.19760,0.01499
615.26885,0.01609
613.34011,0.01598
611.41137,0.01539
609.48263,0.01563
607.55388,0.01609
605.62514,0.01594
603.69640,0.01534
601.76766,0.01460
599.83891,0.01406
