7497.02206,0.83957
7495.09332,0.83465
7493.16458,0.83331
7491.23584,0.83698
7489.30709,0.84366
7487.37835,0.84631
7485.44961,0.84099
7483.52087,0.83264
7481.59212,0.82549
7479.66338,0.82069
7477.73464,0.81973
7475.80590,0.82379
7473.87715,0.83225
7471.94841,0.83981
7470.01967,0.84065
7468.09093,0.83574
7466.16218,0.83064
7464.23344,0.82864
7462.30470,0.82711
7460.37596,0.82269
7458.44721,0.81996
7456.51847,0.82322
7454.58973,0.82525
7452.66099,0.81907
7450.73224,0.81180
7448.80350,0.81312
7446.87476,0.81998
7444.94602,0.82512
7443.01727,0.82823
7441.08853,0.82928
7439.15979,0.82716
7437.23105,0.82485
7435.30230,0.82356
7433.37356,0.82171
7431.44482,0.82138
7429.51608,0.82330
7427.58733,0.82408
7425.65859,0.82239
7423.72985,0.81840
7421.80111,0.81407
7419.87236,0.81158
7417.94362,0.80881
7416.01488,0.80662
7414.08614,0.80948
7412.15739,0.81498
7410.22865,0.81786
7408.29991,0.81764
7406.37117,0.81529
7404.44242,0.81153
7402.51368,0.80832
7400.58494,0.80740
7398.65620,0.80672
7396.72745,0.80371
7394.79871,0.80100
7392.86997,0.80043
7390.94123,0.80107
7389.01248,0.80241
7387.08374,0.80294
7385.15500,0.80240
7383.22626,0.80183
7381.29751,0.80144
7379.36877,0.80282
7377.44003,0.80583
7375.51129,0.80597
7373.58254,0.80139
7371.65380,0.79631
7369.72506,0.79461
7367.79632,0.79683
7365.86757,0.80086
7363.93883,0.80318
7362.01009,0.80268
7360.08135,0.80044
7358.15260,0.79646
7356.22386,0.79297
7354.29512,0.79525
7352.36638,0.80163
7350.43763,0.80325
7348.50889,0.79772
7346.58015,0.79186
7344.65141,0.79138
7342.72266,0.79523
7340.79392,0.79889
7338.86518,0.79973
7336.93644,0.79784
7335.00769,0.79278
7333.07895,0.78635
7331.15021,0.78419
7329.22147,0.78719
7327.29272,0.79002
7325.36398,0.78948
7323.43524,0.78630
7321.50650,0.78294
7319.57775,0.78215
7317.64901,0.78323
7315.72027,0.78444
7313.79153,0.78692
7311.86278,0.78825
7309.93404,0.78455
7308.00530,0.78023
7306.07656,0.78082
7304.14781,0.78416
7302.21907,0.78645
7300.29033,0.78702
7298.36159,0.78568
7296.43284,0.78372
7294.50410,0.78372
7292.57536,0.78565
7290.64662,0.78629
7288.71787,0.78212
7286.78913,0.77545
7284.86039,0.77231
7282.93165,0.77242
7281.00290,0.77215
7279.07416,0.77221
7277.14542,0.77551
7275.21668,0.78146
7273.28793,0.78367
7271.35919,0.77883
7269.43045,0.77284
7267.50171,0.77054
7265.57296,0.77231
7263.64422,0.77784
7261.71548,0.78533
7259.78674,0.79268
7257.85799,0.79609
7255.92925,0.79178
7254.00051,0.78325
7252.07177,0.77693
7250.14302,0.77404
7248.21428,0.77356
7246.28554,0.77540
7244.35680,0.77793
7242.42805,0.78036
7240.49931,0.78165
7238.57057,0.77986
7236.64183,0.77850
7234.71308,0.77946
7232.78434,0.77953
7230.85560,0.77976
7228.92686,0.78170
7226.99811,0.78230
7225.06937,0.78011
7223.14063,0.77803
7221.21189,0.77794
7219.28314,0.77860
7217.35440,0.77896
7215.42566,0.77873
7213.49692,0.77654
7211.56817,0.77265
7209.63943,0.77248
7207.71069,0.77701
7205.78195,0.77926
7203.85320,0.77736
7201.92446,0.77506
7199.99572,0.77383
7198.06698,0.77174
7196.13823,0.76722
7194.20949,0.76322
7192.28075,0.76011
7190.35201,0.75617
7188.42326,0.75560
7186.49452,0.75946
7184.56578,0.76170
7182.63704,0.75948
7180.70829,0.75659
7178.77955,0.75799
7176.85081,0.76252
7174.92207,0.76335
7172.99332,0.75933
7171.06458,0.75832
7169.13584,0.76121
7167.20710,0.76014
7165.27835,0.75610
7163.34961,0.75450
7161.42087,0.75433
7159.49213,0.75411
7157.56338,0.75383
7155.63464,0.75293
7153.70590,0.75072
7151.77716,0.74875
7149.84841,0.74995
7147.91967,0.75245
7145.99093,0.75183
7144.06219,0.74788
7142.13344,0.74452
7140.20470,0.74515
7138.27596,0.74853
7136.34722,0.75086
7134.41847,0.74966
7132.48973,0.74561
7130.56099,0.74234
7128.63225,0.74235
7126.70351,0.74314
7124.77476,0.74049
7122.84602,0.73720
7120.91728,0.73778
7118.98854,0.73750
7117.05979,0.73292
7115.13105,0.72995
7113.20231,0.73094
7111.27357,0.73217
7109.34482,0.73174
7107.41608,0.73043
7105.48734,0.72968
7103.55860,0.72901
7101.62985,0.72609
7099.70111,0.72217
7097.77237,0.72004
7095.84363,0.71980
7093.91488,0.72216
7091.98614,0.72438
7090.05740,0.72065
7088.12866,0.71403
7086.19991,0.71142
7084.27117,0.71206
7082.34243,0.71218
7080.41369,0.71146
7078.48494,0.71117
7076.55620,0.71104
7074.62746,0.71051
7072.69872,0.71092
7070.76997,0.71179
7068.84123,0.70926
7066.91249,0.70407
7064.98375,0.70055
7063.05500,0.69842
7061.12626,0.69598
7059.19752,0.69334
7057.26878,0.69137
7055.34003,0.69205
7053.41129,0.69375
7051.48255,0.69210
7049.55381,0.68861
7047.62506,0.68701
7045.69632,0.68626
7043.76758,0.68428
7041.83884,0.68194
7039.91009,0.68195
7037.98135,0.68434
7036.05261,0.68586
7034.12387,0.68427
7032.19512,0.68008
7030.26638,0.67679
7028.33764,0.67717
7026.40890,0.67825
7024.48015,0.67575
7022.55141,0.67121
7020.62267,0.66932
7018.69393,0.67072
7016.76518,0.67184
7014.83644,0.67002
7012.90770,0.66611
7010.97896,0.66307
7009.05021,0.66154
7007.12147,0.65960
7005.19273,0.65804
7003.26399,0.65893
7001.33524,0.66128
6999.40650,0.66266
6997.47776,0.66147
6995.54902,0.65912
6993.62027,0.65861
6991.69153,0.65986
6989.76279,0.66091
6987.83405,0.66047
6985.90530,0.65858
6983.97656,0.65511
6982.04782,0.64962
6980.11908,0.64598
6978.19033,0.64794
6976.26159,0.65092
6974.33285,0.64922
6972.40411,0.64395
6970.47536,0.64072
6968.54662,0.64394
6966.61788,0.65019
6964.68914,0.65298
6962.76039,0.65192
6960.83165,0.64992
6958.90291,0.64817
6956.97417,0.64578
6955.04542,0.64333
6953.11668,0.64286
6951.18794,0.64327
6949.25920,0.64265
6947.33045,0.64228
6945.40171,0.64348
6943.47297,0.64434
6941.54423,0.64403
6939.61548,0.64477
6937.68674,0.64673
6935.75800,0.64752
6933.82926,0.64493
6931.90051,0.63975
6929.97177,0.63653
6928.04303,0.63752
6926.11429,0.63956
6924.18554,0.63910
6922.25680,0.63710
6920.32806,0.63812
6918.39932,0.64254
6916.47057,0.64472
6914.54183,0.64302
6912.61309,0.64143
6910.68435,0.64015
6908.75560,0.63719
6906.82686,0.63480
6904.89812,0.63535
6902.96938,0.63714
6901.04063,0.63809
6899.11189,0.63839
6897.18315,0.63833
6895.25441,0.63575
6893.32566,0.63102
6891.39692,0.63028
6889.46818,0.63405
6887.53944,0.63611
6885.61069,0.63572
6883.68195,0.63522
6881.75321,0.63361
6879.82447,0.63115
6877.89572,0.63061
6875.96698,0.63282
6874.03824,0.63530
6872.10950,0.63600
6870.18075,0.63549
6868.25201,0.63365
6866.32327,0.63104
6864.39453,0.63102
6862.46578,0.63274
6860.53704,0.63213
6858.60830,0.62951
6856.67956,0.62744
6854.75081,0.62570
6852.82207,0.62390
6850.89333,0.62375
6848.96459,0.62468
6847.03584,0.62490
6845.10710,0.62529
6843.17836,0.62681
6841.24962,0.62830
6839.32087,0.62932
6837.39213,0.63154
6835.46339,0.63420
6833.53465,0.63536
6831.60590,0.63400
6829.67716,0.63012
6827.74842,0.62886
6825.81968,0.63264
6823.89093,0.63454
6821.96219,0.63168
6820.03345,0.62990
6818.10471,0.62965
6816.17596,0.62662
6814.24722,0.62348
6812.31848,0.62319
6810.38974,0.62384
6808.46099,0.62470
6806.53225,0.62484
6804.60351,0.62401
6802.67477,0.62511
6800.74602,0.62729
6798.81728,0.62619
6796.88854,0.62334
6794.95980,0.62320
6793.03105,0.62526
6791.10231,0.62696
6789.17357,0.62794
6787.24483,0.62730
6785.31608,0.62376
6783.38734,0.62029
6781.45860,0.61994
6779.52986,0.62136
6777.60111,0.62243
6775.67237,0.62113
6773.74363,0.61706
6771.81489,0.61416
6769.88614,0.61597
6767.95740,0.62077
6766.02866,0.62447
6764.09992,0.62407
6762.17117,0.62084
6760.24243,0.61970
6758.31369,0.62071
6756.38495,0.62085
6754.45620,0.62009
6752.52746,0.61890
6750.59872,0.61831
6748.66998,0.61859
6746.74123,0.61827
6744.81249,0.61760
6742.88375,0.61750
6740.95501,0.61719
6739.02626,0.61656
6737.09752,0.61705
6735.16878,0.61824
6733.24004,0.61807
6731.31129,0.61607
6729.38255,0.61450
6727.45381,0.61618
6725.52507,0.61916
6723.59632,0.61934
6721.66758,0.61720
6719.73884,0.61591
6717.81010,0.61769
6715.88135,0.62040
6713.95261,0.62006
6712.02387,0.61929
6710.09513,0.62040
6708.16638,0.61924
6706.23764,0.61649
6704.30890,0.61647
6702.38016,0.61668
6700.45141,0.61490
6698.52267,0.61516
6696.59393,0.61776
6694.66519,0.61789
6692.73644,0.61535
6690.80770,0.61408
6688.87896,0.61509
6686.95022,0.61646
6685.02147,0.61896
6683.09273,0.62304
6681.16399,0.62442
6679.23525,0.62269
6677.30650,0.62208
6675.37776,0.62205
6673.44902,0.62044
6671.52028,0.61871
6669.59153,0.61834
6667.66279,0.61920
6665.73405,0.62109
6663.80531,0.62308
6661.87656,0.62390
6659.94782,0.62339
6658.01908,0.62272
6656.09034,0.62371
6654.16159,0.62593
6652.23285,0.62533
6650.30411,0.62139
6648.37537,0.61969
6646.44662,0.62242
6644.51788,0.62610
6642.58914,0.62777
6640.66040,0.62622
6638.73165,0.62306
6636.80291,0.62241
6634.87417,0.62500
6632.94543,0.62725
6631.01668,0.62672
6629.08794,0.62491
6627.15920,0.62480
6625.23046,0.62623
6623.30171,0.62653
6621.37297,0.62526
6619.44423,0.62456
6617.51549,0.62584
6615.58674,0.62744
6613.65800,0.62755
6611.72926,0.62846
6609.80052,0.63081
6607.87177,0.63235
6605.94303,0.63322
6604.01429,0.63310
6602.08555,0.63214
6600.15680,0.63251
6598.22806,0.63370
6596.29932,0.63485
6594.37058,0.63667
6592.44183,0.63787
6590.51309,0.63748
6588.58435,0.63682
6586.65561,0.63612
6584.72686,0.63551
6582.79812,0.63548
6580.86938,0.63520
6578.94064,0.63521
6577.01190,0.63648
6575.08315,0.63779
6573.15441,0.63807
6571.22567,0.63744
6569.29693,0.63660
6567.36818,0.63574
6565.43944,0.63452
6563.51070,0.63413
6561.58196,0.63606
6559.65321,0.63822
6557.72447,0.63791
6555.79573,0.63737
6553.86699,0.63914
6551.93824,0.64135
6550.00950,0.64318
6548.08076,0.64525
6546.15202,0.64527
6544.22327,0.64215
6542.29453,0.63945
6540.36579,0.64050
6538.43705,0.64409
6536.50830,0.64605
6534.57956,0.64433
6532.65082,0.64169
6530.72208,0.64193
6528.79333,0.64497
6526.86459,0.64796
6524.93585,0.64856
6523.00711,0.64691
6521.07836,0.64476
6519.14962,0.64324
6517.22088,0.64269
6515.29214,0.64237
6513.36339,0.64216
6511.43465,0.64414
6509.50591,0.64793
6507.57717,0.64992
6505.64842,0.64979
6503.71968,0.64896
6501.79094,0.64695
6499.86220,0.64551
6497.93345,0.64610
6496.00471,0.64625
6494.07597,0.64515
6492.14723,0.64440
6490.21848,0.64500
6488.28974,0.64674
6486.36100,0.64773
6484.43226,0.64697
6482.50351,0.64647
6480.57477,0.64806
6478.64603,0.64981
6476.71729,0.64943
6474.78854,0.64842
6472.85980,0.64891
6470.93106,0.65095
6469.00232,0.65302
6467.07357,0.65394
6465.14483,0.65433
6463.21609,0.65471
6461.28735,0.65405
6459.35860,0.65213
6457.42986,0.65083
6455.50112,0.65112
6453.57238,0.65123
6451.64363,0.65034
6449.71489,0.64968
6447.78615,0.65002
6445.85741,0.65093
6443.92866,0.65125
6441.99992,0.65002
6440.07118,0.64788
6438.14244,0.64703
6436.21369,0.64828
6434.28495,0.65041
6432.35621,0.65235
6430.42747,0.65365
6428.49872,0.65412
6426.56998,0.65380
6424.64124,0.65347
6422.71250,0.65378
6420.78375,0.65360
6418.85501,0.65264
6416.92627,0.65172
6414.99753,0.65093
6413.06878,0.65137
6411.14004,0.65373
6409.21130,0.65543
6407.28256,0.65405
6405.35381,0.65174
6403.42507,0.65167
6401.49633,0.65280
6399.56759,0.65307
6397.63884,0.65266
6395.71010,0.65254
6393.78136,0.65340
6391.85262,0.65467
6389.92387,0.65543
6387.99513,0.65623
6386.06639,0.65711
6384.13765,0.65686
6382.20890,0.65585
6380.28016,0.65553
6378.35142,0.65532
6376.42268,0.65445
6374.49393,0.65435
6372.56519,0.65494
6370.63645,0.65500
6368.70771,0.65560
6366.77896,0.65635
6364.85022,0.65587
6362.92148,0.65563
6360.99274,0.65621
6359.06399,0.65646
6357.13525,0.65666
6355.20651,0.65738
6353.27777,0.65832
6351.34902,0.65890
6349.42028,0.65944
6347.49154,0.66040
6345.56280,0.66096
6343.63405,0.66057
6341.70531,0.66054
6339.77657,0.66180
6337.84783,0.66255
6335.91908,0.66202
6333.99034,0.66187
6332.06160,0.66232
6330.13286,0.66295
6328.20411,0.66356
6326.27537,0.66346
6324.34663,0.66305
6322.41789,0.66333
6320.48914,0.66402
6318.56040,0.66435
6316.63166,0.66426
6314.70292,0.66372
6312.77417,0.66349
6310.84543,0.66480
6308.91669,0.66656
6306.98795,0.66699
6305.05920,0.66641
6303.13046,0.66596
6301.20172,0.66589
6299.27298,0.66528
6297.34423,0.66426
6295.41549,0.66397
6293.48675,0.66418
6291.55801,0.66443
6289.62926,0.66483
6287.70052,0.66479
6285.77178,0.66488
6283.84304,0.66656
6281.91429,0.66943
6279.98555,0.67195
6278.05681,0.67266
6276.12807,0.67222
6274.19932,0.67226
6272.27058,0.67189
6270.34184,0.67074
6268.41310,0.66988
6266.48435,0.66945
6264.55561,0.67000
6262.62687,0.67248
6260.69813,0.67612
6258.76938,0.67845
6256.84064,0.67848
6254.91190,0.67740
6252.98316,0.67631
6251.05441,0.67596
6249.12567,0.67726
6247.19693,0.67986
6245.26819,0.68118
6243.33944,0.67962
6241.41070,0.67702
6239.48196,0.67625
6237.55322,0.67805
6235.62447,0.68034
6233.69573,0.68149
6231.76699,0.68164
6229.83825,0.68080
6227.90950,0.68015
6225.98076,0.68087
6224.05202,0.68223
6222.12328,0.68389
6220.19453,0.68469
6218.26579,0.68378
6216.33705,0.68342
6214.40831,0.68406
6212.47956,0.68443
6210.55082,0.68479
6208.62208,0.68496
6206.69334,0.68534
6204.76459,0.68673
6202.83585,0.68856
6200.90711,0.69019
6198.97837,0.69000
6197.04962,0.68782
6195.12088,0.68659
6193.19214,0.68707
6191.26340,0.68810
6189.33465,0.68961
6187.40591,0.69091
6185.47717,0.69200
6183.54843,0.69411
6181.61968,0.69653
6179.69094,0.69784
6177.76220,0.69825
6175.83346,0.69841
6173.90471,0.69831
6171.97597,0.69809
6170.04723,0.69843
6168.11849,0.69856
6166.18974,0.69719
6164.26100,0.69535
6162.33226,0.69454
6160.40352,0.69505
6158.47477,0.69644
6156.54603,0.69795
6154.61729,0.69834
6152.68855,0.69645
6150.75980,0.69469
6148.83106,0.69626
6146.90232,0.69931
6144.97358,0.70061
6143.04483,0.69999
6141.11609,0.69858
6139.18735,0.69696
6137.25861,0.69665
6135.32986,0.69826
6133.40112,0.69922
6131.47238,0.69925
6129.54364,0.70106
6127.61489,0.70371
6125.68615,0.70438
6123.75741,0.70347
6121.82867,0.70254
6119.89992,0.70220
6117.97118,0.70283
6116.04244,0.70360
6114.11370,0.70324
6112.18495,0.70203
6110.25621,0.70193
6108.32747,0.70386
6106.39873,0.70535
6104.46998,0.70459
6102.54124,0.70388
6100.61250,0.70486
6098.68376,0.70543
6096.75501,0.70402
6094.82627,0.70238
6092.89753,0.70263
6090.96879,0.70431
6089.04004,0.70527
6087.11130,0.70470
6085.18256,0.70362
6083.25382,0.70257
6081.32507,0.70175
6079.39633,0.70187
6077.46759,0.70230
6075.53885,0.70174
6073.61010,0.70107
6071.68136,0.70146
6069.75262,0.70174
6067.82388,0.70086
6065.89513,0.70005
6063.96639,0.69965
6062.03765,0.69914
6060.10891,0.69907
6058.18016,0.69897
6056.25142,0.69833
6054.32268,0.69818
6052.39394,0.69913
6050.46519,0.70021
6048.53645,0.69994
6046.60771,0.69845
6044.67897,0.69742
6042.75022,0.69758
6040.82148,0.69740
6038.89274,0.69559
6036.96400,0.69353
6035.03525,0.69290
6033.10651,0.69370
6031.17777,0.69445
6029.24903,0.69440
6027.32029,0.69478
6025.39154,0.69540
6023.46280,0.69466
6021.53406,0.69264
6019.60532,0.69052
6017.67657,0.68921
6015.74783,0.68921
6013.81909,0.68967
6011.89035,0.68921
6009.96160,0.68833
6008.03286,0.68827
6006.10412,0.68881
6004.17538,0.68846
6002.24663,0.68695
6000.31789,0.68591
5998.38915,0.68552
5996.46041,0.68460
5994.53166,0.68354
5992.60292,0.68373
5990.67418,0.68529
5988.74544,0.68636
5986.81669,0.68591
5984.88795,0.68541
5982.95921,0.68545
5981.03047,0.68518
5979.10172,0.68471
5977.17298,0.68406
5975.24424,0.68332
5973.31550,0.68327
5971.38675,0.68421
5969.45801,0.68550
5967.52927,0.68556
5965.60053,0.68363
5963.67178,0.68101
5961.74304,0.67976
5959.81430,0.68039
5957.88556,0.68108
5955.95681,0.68079
5954.02807,0.68073
5952.09933,0.68194
5950.17059,0.68325
5948.24184,0.68297
5946.31310,0.68184
5944.38436,0.68114
5942.45562,0.68119
5940.52687,0.68224
5938.59813,0.68360
5936.66939,0.68404
5934.74065,0.68419
5932.81190,0.68526
5930.88316,0.68565
5928.95442,0.68403
5927.02568,0.68255
5925.09693,0.68202
5923.16819,0.68099
5921.23945,0.68006
5919.31071,0.68020
5917.38196,0.68080
5915.45322,0.68121
5913.52448,0.68072
5911.59574,0.68001
5909.66699,0.68104
5907.73825,0.68245
5905.80951,0.68157
5903.88077,0.67948
5901.95202,0.67786
5900.02328,0.67674
5898.09454,0.67660
5896.16580,0.67751
5894.23705,0.67825
5892.30831,0.67796
5890.37957,0.67656
5888.45083,0.67450
5886.52208,0.67335
5884.59334,0.67435
5882.66460,0.67627
5880.73586,0.67702
5878.80711,0.67669
5876.87837,0.67618
5874.94963,0.67488
5873.02089,0.67331
5871.09214,0.67320
5869.16340,0.67422
5867.23466,0.67503
5865.30592,0.67466
5863.37717,0.67320
5861.44843,0.67233
5859.51969,0.67328
5857.59095,0.67482
5855.66220,0.67507
5853.73346,0.67443
5851.80472,0.67406
5849.87598,0.67430
5847.94723,0.67495
5846.01849,0.67492
5844.08975,0.67402
5842.16101,0.67296
5840.23226,0.67191
5838.30352,0.67151
5836.37478,0.67194
5834.44604,0.67208
5832.51729,0.67139
5830.58855,0.67048
5828.65981,0.67045
5826.73107,0.67145
5824.80232,0.67236
5822.87358,0.67263
5820.94484,0.67225
5819.01610,0.67092
5817.08735,0.66895
5815.15861,0.66772
5813.22987,0.66844
5811.30113,0.67019
5809.37238,0.67081
5807.44364,0.66978
5805.51490,0.66834
5803.58616,0.66776
5801.65741,0.66823
5799.72867,0.66902
5797.79993,0.66928
5795.87119,0.66925
5793.94244,0.66929
5792.01370,0.66820
5790.08496,0.66618
5788.15622,0.66536
5786.22747,0.66622
5784.29873,0.66741
5782.36999,0.66791
5780.44125,0.66806
5778.51250,0.66879
5776.58376,0.67010
5774.65502,0.67162
5772.72628,0.67275
5770.79753,0.67257
5768.86879,0.67131
5766.94005,0.67021
5765.01131,0.67006
5763.08256,0.67103
5761.15382,0.67274
5759.22508,0.67421
5757.29634,0.67493
5755.36759,0.67496
5753.43885,0.67426
5751.51011,0.67335
5749.58137,0.67289
5747.65262,0.67204
5745.72388,0.67091
5743.79514,0.67125
5741.86640,0.67306
5739.93765,0.67468
5738.00891,0.67461
5736.08017,0.67349
5734.15143,0.67353
5732.22268,0.67421
5730.29394,0.67368
5728.36520,0.67283
5726.43646,0.67274
5724.50771,0.67294
5722.57897,0.67368
5720.65023,0.67504
5718.72149,0.67566
5716.79274,0.67531
5714.86400,0.67484
5712.93526,0.67426
5711.00652,0.67322
5709.07777,0.67242
5707.14903,0.67280
5705.22029,0.67409
5703.29155,0.67508
5701.36280,0.67509
5699.43406,0.67484
5697.50532,0.67486
5695.57658,0.67486
5693.64783,0.67512
5691.71909,0.67553
5689.79035,0.67539
5687.86161,0.67467
5685.93286,0.67364
5684.00412,0.67329
5682.07538,0.67415
5680.14664,0.67482
5678.21789,0.67407
5676.28915,0.67283
5674.36041,0.67245
5672.43167,0.67291
5670.50292,0.67379
5668.57418,0.67448
5666.64544,0.67370
5664.71670,0.67242
5662.78795,0.67282
5660.85921,0.67407
5658.93047,0.67409
5657.00173,0.67336
5655.07298,0.67378
5653.14424,0.67537
5651.21550,0.67619
5649.28676,0.67548
5647.35801,0.67474
5645.42927,0.67521
5643.50053,0.67611
5641.57179,0.67618
5639.64304,0.67560
5637.71430,0.67539
5635.78556,0.67557
5633.85682,0.67494
5631.92807,0.67357
5629.99933,0.67299
5628.07059,0.67318
5626.14185,0.67333
5624.21310,0.67383
5622.28436,0.67489
5620.35562,0.67599
5618.42688,0.67631
5616.49813,0.67583
5614.56939,0.67560
5612.64065,0.67582
5610.71191,0.67590
5608.78316,0.67585
5606.85442,0.67562
5604.92568,0.67472
5602.99694,0.67392
5601.06819,0.67431
5599.13945,0.67524
5597.21071,0.67551
5595.28197,0.67485
5593.35322,0.67361
5591.42448,0.67270
5589.49574,0.67325
5587.56700,0.67484
5585.63825,0.67592
5583.70951,0.67579
5581.78077,0.67496
5579.85203,0.67482
5577.92328,0.67577
5575.99454,0.67662
5574.06580,0.67695
5572.13706,0.67702
5570.20831,0.67697
5568.27957,0.67715
5566.35083,0.67755
5564.42209,0.67791
5562.49334,0.67796
5560.56460,0.67796
5558.63586,0.67828
5556.70712,0.67822
5554.77837,0.67755
5552.84963,0.67690
5550.92089,0.67636
5548.99215,0.67629
5547.06340,0.67664
5545.13466,0.67673
5543.20592,0.67694
5541.27718,0.67757
5539.34843,0.67805
5537.41969,0.67827
5535.49095,0.67886
5533.56221,0.67982
5531.63346,0.68010
5529.70472,0.68012
5527.77598,0.68051
5525.84724,0.68057
5523.91849,0.68055
5521.98975,0.68066
5520.06101,0.68005
5518.13227,0.67932
5516.20352,0.67993
5514.27478,0.68112
5512.34604,0.68119
5510.41730,0.68069
5508.48855,0.68066
5506.55981,0.68085
5504.63107,0.68103
5502.70233,0.68160
5500.77358,0.68252
5498.84484,0.68276
5496.91610,0.68204
5494.98736,0.68189
5493.05861,0.68300
5491.12987,0.68403
5489.20113,0.68416
5487.27239,0.68357
5485.34365,0.68233
5483.41490,0.68120
5481.48616,0.68118
5479.55742,0.68167
5477.62868,0.68157
5475.69993,0.68164
5473.77119,0.68259
5471.84245,0.68353
5469.91371,0.68384
5467.98496,0.68374
5466.05622,0.68361
5464.12748,0.68365
5462.19874,0.68328
5460.26999,0.68209
5458.34125,0.68135
5456.41251,0.68236
5454.48377,0.68423
5452.55502,0.68550
5450.62628,0.68583
5448.69754,0.68547
5446.76880,0.68511
5444.84005,0.68502
5442.91131,0.68487
5440.98257,0.68480
5439.05383,0.68531
5437.12508,0.68658
5435.19634,0.68800
5433.26760,0.68878
5431.33886,0.68912
5429.41011,0.68939
5427.48137,0.68943
5425.55263,0.68899
5423.62389,0.68825
5421.69514,0.68798
5419.76640,0.68859
5417.83766,0.68940
5415.90892,0.68989
5413.98017,0.69037
5412.05143,0.69082
5410.12269,0.69075
5408.19395,0.69076
5406.26520,0.69108
5404.33646,0.69126
5402.40772,0.69152
5400.47898,0.69176
5398.55023,0.69170
5396.62149,0.69166
5394.69275,0.69187
5392.76401,0.69217
5390.83526,0.69191
5388.90652,0.69115
5386.97778,0.69103
5385.04904,0.69156
5383.12029,0.69187
5381.19155,0.69187
5379.26281,0.69219
5377.33407,0.69339
5375.40532,0.69456
5373.47658,0.69412
5371.54784,0.69229
5369.61910,0.69095
5367.69035,0.69069
5365.76161,0.68999
5363.83287,0.68896
5361.90413,0.68944
5359.97538,0.69069
5358.04664,0.69071
5356.11790,0.68970
5354.18916,0.68882
5352.26041,0.68865
5350.33167,0.68933
5348.40293,0.69035
5346.47419,0.69080
5344.54544,0.69035
5342.61670,0.68942
5340.68796,0.68847
5338.75922,0.68767
5336.83047,0.68715
5334.90173,0.68713
5332.97299,0.68719
5331.04425,0.68654
5329.11550,0.68541
5327.18676,0.68403
5325.25802,0.68227
5323.32928,0.68103
5321.40053,0.68059
5319.47179,0.67998
5317.54305,0.67894
5315.61431,0.67730
5313.68556,0.67499
5311.75682,0.67312
5309.82808,0.67202
5307.89934,0.67075
5305.97059,0.66920
5304.04185,0.66762
5302.11311,0.66608
5300.18437,0.66454
5298.25562,0.66263
5296.32688,0.66043
5294.39814,0.65875
5292.46940,0.65751
5290.54065,0.65553
5288.61191,0.65237
5286.68317,0.64893
5284.75443,0.64568
5282.82568,0.64231
5280.89694,0.63914
5278.96820,0.63682
5277.03946,0.63447
5275.11071,0.63101
5273.18197,0.62743
5271.25323,0.62455
5269.32449,0.62154
5267.39574,0.61819
5265.46700,0.61506
5263.53826,0.61218
5261.60952,0.60894
5259.68077,0.60502
5257.75203,0.60124
5255.82329,0.59822
5253.89455,0.59557
5251.96580,0.59268
5250.03706,0.58944
5248.10832,0.58663
5246.17958,0.58476
5244.25083,0.58297
5242.32209,0.58072
5240.39335,0.57847
5238.46461,0.57621
5236.53586,0.57354
5234.60712,0.57086
5232.67838,0.56935
5230.74964,0.56898
5228.82089,0.56823
5226.89215,0.56630
5224.96341,0.56368
5223.03467,0.56149
5221.10592,0.56015
5219.17718,0.55901
5217.24844,0.55811
5215.31970,0.55761
5213.39095,0.55702
5211.46221,0.55652
5209.53347,0.55607
5207.60473,0.55493
5205.67598,0.55358
5203.74724,0.55292
5201.81850,0.55276
5199.88976,0.55276
5197.96101,0.55287
5196.03227,0.55277
5194.10353,0.55218
5192.17479,0.55160
5190.24604,0.55151
5188.31730,0.55157
5186.38856,0.55150
5184.45982,0.55154
5182.53107,0.55157
5180.60233,0.55141
5178.67359,0.55120
5176.74485,0.55100
5174.81610,0.55116
5172.88736,0.55203
5170.95862,0.55274
5169.02988,0.55251
5167.10113,0.55263
5165.17239,0.55397
5163.24365,0.55502
5161.31491,0.55503
5159.38616,0.55527
5157.45742,0.55593
5155.52868,0.55600
5153.59994,0.55567
5151.67119,0.55572
5149.74245,0.55606
5147.81371,0.55620
5145.88497,0.55652
5143.95622,0.55742
5142.02748,0.55825
5140.09874,0.55843
5138.17000,0.55816
5136.24125,0.55800
5134.31251,0.55829
5132.38377,0.55873
5130.45503,0.55925
5128.52628,0.55981
5126.59754,0.55993
5124.66880,0.55977
5122.74006,0.55998
5120.81131,0.56026
5118.88257,0.56017
5116.95383,0.55982
5115.02509,0.55903
5113.09634,0.55808
5111.16760,0.55766
5109.23886,0.55746
5107.31012,0.55707
5105.38137,0.55645
5103.45263,0.55562
5101.52389,0.55489
5099.59515,0.55432
5097.66640,0.55363
5095.73766,0.55273
5093.80892,0.55168
5091.88018,0.55052
5089.95143,0.54963
5088.02269,0.54937
5086.09395,0.54938
5084.16521,0.54911
5082.23646,0.54848
5080.30772,0.54771
5078.37898,0.54745
5076.45024,0.54806
5074.52149,0.54894
5072.59275,0.54916
5070.66401,0.54885
5068.73527,0.54879
5066.80652,0.54948
5064.87778,0.55112
5062.94904,0.55259
5061.02030,0.55268
5059.09155,0.55241
5057.16281,0.55307
5055.23407,0.55428
5053.30533,0.55527
5051.37658,0.55608
5049.44784,0.55685
5047.51910,0.55767
5045.59036,0.55872
5043.66161,0.55968
5041.73287,0.56017
5039.80413,0.56077
5037.87539,0.56206
5035.94664,0.56329
5034.01790,0.56363
5032.08916,0.56381
5030.16042,0.56480
5028.23167,0.56608
5026.30293,0.56692
5024.37419,0.56752
5022.44545,0.56821
5020.51670,0.56903
5018.58796,0.56972
5016.65922,0.57031
5014.73048,0.57127
5012.80173,0.57236
5010.87299,0.57288
5008.94425,0.57275
5007.01551,0.57265
5005.08676,0.57327
5003.15802,0.57423
5001.22928,0.57471
4999.30054,0.57473
4997.37179,0.57488
4995.44305,0.57555
4993.51431,0.57624
4991.58557,0.57634
4989.65682,0.57627
4987.72808,0.57643
4985.79934,0.57648
4983.87060,0.57633
4981.94185,0.57624
4980.01311,0.57590
4978.08437,0.57552
4976.15563,0.57567
4974.22688,0.57586
4972.29814,0.57555
4970.36940,0.57471
4968.44066,0.57323
4966.51191,0.57144
4964.58317,0.57003
4962.65443,0.56932
4960.72569,0.56854
4958.79694,0.56697
4956.86820,0.56545
4954.93946,0.56453
4953.01072,0.56352
4951.08197,0.56233
4949.15323,0.56137
4947.22449,0.56026
4945.29575,0.55879
4943.36700,0.55740
4941.43826,0.55616
4939.50952,0.55480
4937.58078,0.55353
4935.65204,0.55279
4933.72329,0.55211
4931.79455,0.55099
4929.86581,0.54991
4927.93707,0.54900
4926.00832,0.54788
4924.07958,0.54673
4922.15084,0.54568
4920.22210,0.54470
4918.29335,0.54388
4916.36461,0.54318
4914.43587,0.54245
4912.50713,0.54172
4910.57838,0.54091
4908.64964,0.53980
4906.72090,0.53844
4904.79216,0.53742
4902.86341,0.53714
4900.93467,0.53688
4899.00593,0.53577
4897.07719,0.53446
4895.14844,0.53382
4893.21970,0.53319
4891.29096,0.53173
4889.36222,0.52985
4887.43347,0.52826
4885.50473,0.52703
4883.57599,0.52616
4881.64725,0.52578
4879.71850,0.52593
4877.78976,0.52568
4875.86102,0.52420
4873.93228,0.52214
4872.00353,0.52049
4870.07479,0.51961
4868.14605,0.51923
4866.21731,0.51870
4864.28856,0.51769
4862.35982,0.51624
4860.43108,0.51490
4858.50234,0.51403
4856.57359,0.51296
4854.64485,0.51105
4852.71611,0.50924
4850.78737,0.50879
4848.85862,0.50859
4846.92988,0.50748
4845.00114,0.50637
4843.07240,0.50561
4841.14365,0.50466
4839.21491,0.50376
4837.28617,0.50292
4835.35743,0.50184
4833.42868,0.50071
4831.49994,0.49967
4829.57120,0.49878
4827.64246,0.49819
4825.71371,0.49765
4823.78497,0.49692
4821.85623,0.49606
4819.92749,0.49513
4817.99874,0.49436
4816.07000,0.49397
4814.14126,0.49356
4812.21252,0.49270
4810.28377,0.49171
4808.35503,0.49115
4806.42629,0.49105
4804.49755,0.49081
4802.56880,0.49034
4800.64006,0.49014
4798.71132,0.49004
4796.78258,0.48974
4794.85383,0.48949
4792.92509,0.48934
4790.99635,0.48897
4789.06761,0.48853
4787.13886,0.48839
4785.21012,0.48835
4783.28138,0.48816
4781.35264,0.48793
4779.42389,0.48778
4777.49515,0.48753
4775.56641,0.48694
4773.63767,0.48636
4771.70892,0.48630
4769.78018,0.48666
4767.85144,0.48689
4765.92270,0.48664
4763.99395,0.48620
4762.06521,0.48604
4760.13647,0.48589
4758.20773,0.48549
4756.27898,0.48511
4754.35024,0.48459
4752.42150,0.48394
4750.49276,0.48371
4748.56401,0.48371
4746.63527,0.48346
4744.70653,0.48335
4742.77779,0.48379
4740.84904,0.48418
4738.92030,0.48402
4736.99156,0.48388
4735.06282,0.48427
4733.13407,0.48493
4731.20533,0.48531
4729.27659,0.48516
4727.34785,0.48492
4725.41910,0.48489
4723.49036,0.48501
4721.56162,0.48522
4719.63288,0.48539
4717.70413,0.48553
4715.77539,0.48575
4713.84665,0.48558
4711.91791,0.48481
4709.98916,0.48428
4708.06042,0.48437
4706.13168,0.48446
4704.20294,0.48434
4702.27419,0.48433
4700.34545,0.48447
4698.41671,0.48465
4696.48797,0.48477
4694.55922,0.48451
4692.63048,0.48408
4690.70174,0.48407
4688.77300,0.48419
4686.84425,0.48400
4684.91551,0.48394
4682.98677,0.48436
4681.05803,0.48510
4679.12928,0.48565
4677.20054,0.48560
4675.27180,0.48547
4673.34306,0.48574
4671.41431,0.48599
4669.48557,0.48603
4667.55683,0.48609
4665.62809,0.48614
4663.69934,0.48626
4661.77060,0.48660
4659.84186,0.48686
4657.91312,0.48712
4655.98437,0.48757
4654.05563,0.48777
4652.12689,0.48776
4650.19815,0.48804
4648.26940,0.48855
4646.34066,0.48904
4644.41192,0.48944
4642.48318,0.48966
4640.55443,0.48983
4638.62569,0.49023
4636.69695,0.49095
4634.76821,0.49147
4632.83946,0.49154
4630.91072,0.49171
4628.98198,0.49211
4627.05324,0.49262
4625.12449,0.49343
4623.19575,0.49443
4621.26701,0.49539
4619.33827,0.49615
4617.40952,0.49668
4615.48078,0.49727
4613.55204,0.49810
4611.62330,0.49899
4609.69455,0.49954
4607.76581,0.49964
4605.83707,0.49989
4603.90833,0.50058
4601.97958,0.50135
4600.05084,0.50222
4598.12210,0.50309
4596.19336,0.50352
4594.26461,0.50400
4592.33587,0.50504
4590.40713,0.50600
4588.47839,0.50646
4586.54964,0.50663
4584.62090,0.50670
4582.69216,0.50680
4580.76342,0.50707
4578.83467,0.50745
4576.90593,0.50757
4574.97719,0.50739
4573.04845,0.50737
4571.11970,0.50758
4569.19096,0.50779
4567.26222,0.50811
4565.33348,0.50856
4563.40473,0.50895
4561.47599,0.50931
4559.54725,0.50962
4557.61851,0.50968
4555.68976,0.50959
4553.76102,0.50964
4551.83228,0.50985
4549.90354,0.50996
4547.97479,0.50996
4546.04605,0.51025
4544.11731,0.51093
4542.18857,0.51164
4540.25982,0.51220
4538.33108,0.51249
4536.40234,0.51233
4534.47360,0.51205
4532.54485,0.51226
4530.61611,0.51286
4528.68737,0.51320
4526.75863,0.51299
4524.82988,0.51244
4522.90114,0.51203
4520.97240,0.51227
4519.04366,0.51297
4517.11491,0.51342
4515.18617,0.51352
4513.25743,0.51371
4511.32869,0.51406
4509.39994,0.51438
4507.47120,0.51425
4505.54246,0.51376
4503.61372,0.51370
4501.68497,0.51392
4499.75623,0.51371
4497.82749,0.51320
4495.89875,0.51278
4493.97000,0.51231
4492.04126,0.51161
4490.11252,0.51068
4488.18378,0.50942
4486.25503,0.50799
4484.32629,0.50663
4482.39755,0.50523
4480.46881,0.50390
4478.54006,0.50283
4476.61132,0.50149
4474.68258,0.49969
4472.75384,0.49795
4470.82509,0.49619
4468.89635,0.49403
4466.96761,0.49183
4465.03887,0.49002
4463.11012,0.48850
4461.18138,0.48695
4459.25264,0.48524
4457.32390,0.48329
4455.39515,0.48107
4453.46641,0.47873
4451.53767,0.47667
4449.60893,0.47498
4447.68018,0.47332
4445.75144,0.47139
4443.82270,0.46894
4441.89396,0.46611
4439.96521,0.46360
4438.03647,0.46173
4436.10773,0.46000
4434.17899,0.45795
4432.25024,0.45541
4430.32150,0.45255
4428.39276,0.44998
4426.46402,0.44785
4424.53527,0.44588
4422.60653,0.44392
4420.67779,0.44186
4418.74905,0.43976
4416.82030,0.43798
4414.89156,0.43671
4412.96282,0.43577
4411.03408,0.43469
4409.10533,0.43336
4407.17659,0.43231
4405.24785,0.43192
4403.31911,0.43181
4401.39036,0.43150
4399.46162,0.43117
4397.53288,0.43124
4395.60414,0.43152
4393.67539,0.43145
4391.74665,0.43121
4389.81791,0.43149
4387.88917,0.43248
4385.96043,0.43372
4384.03168,0.43462
4382.10294,0.43513
4380.17420,0.43571
4378.24546,0.43659
4376.31671,0.43767
4374.38797,0.43873
4372.45923,0.43962
4370.53049,0.44036
4368.60174,0.44125
4366.67300,0.44251
4364.74426,0.44399
4362.81552,0.44539
4360.88677,0.44644
4358.95803,0.44713
4357.02929,0.44757
4355.10055,0.44764
4353.17180,0.44745
4351.24306,0.44740
4349.31432,0.44763
4347.38558,0.44791
4345.45683,0.44798
4343.52809,0.44792
4341.59935,0.44789
4339.67061,0.44783
4337.74186,0.44769
4335.81312,0.44737
4333.88438,0.44680
4331.95564,0.44614
4330.02689,0.44552
4328.09815,0.44493
4326.16941,0.44427
4324.24067,0.44349
4322.31192,0.44271
4320.38318,0.44230
4318.45444,0.44237
4316.52570,0.44240
4314.59695,0.44210
4312.66821,0.44175
4310.73947,0.44118
4308.81073,0.44023
4306.88198,0.43925
4304.95324,0.43851
4303.02450,0.43802
4301.09576,0.43757
4299.16701,0.43678
4297.23827,0.43558
4295.30953,0.43448
4293.38079,0.43385
4291.45204,0.43341
4289.52330,0.43284
4287.59456,0.43226
4285.66582,0.43188
4283.73707,0.43172
4281.80833,0.43168
4279.87959,0.43163
4277.95085,0.43170
4276.02210,0.43200
4274.09336,0.43228
4272.16462,0.43239
4270.23588,0.43271
4268.30713,0.43346
4266.37839,0.43435
4264.44965,0.43499
4262.52091,0.43529
4260.59216,0.43538
4258.66342,0.43551
4256.73468,0.43587
4254.80594,0.43634
4252.87719,0.43659
4250.94845,0.43648
4249.01971,0.43663
4247.09097,0.43754
4245.16222,0.43842
4243.23348,0.43859
4241.30474,0.43848
4239.37600,0.43865
4237.44725,0.43906
4235.51851,0.43939
4233.58977,0.43938
4231.66103,0.43925
4229.73228,0.43944
4227.80354,0.43990
4225.87480,0.44023
4223.94606,0.44029
4222.01731,0.44018
4220.08857,0.43999
4218.15983,0.43979
4216.23109,0.43973
4214.30234,0.43997
4212.37360,0.44021
4210.44486,0.44013
4208.51612,0.43986
4206.58737,0.43962
4204.65863,0.43947
4202.72989,0.43953
4200.80115,0.43988
4198.87240,0.44017
4196.94366,0.44019
4195.01492,0.44026
4193.08618,0.44049
4191.15743,0.44057
4189.22869,0.44039
4187.29995,0.44034
4185.37121,0.44081
4183.44246,0.44148
4181.51372,0.44190
4179.58498,0.44221
4177.65624,0.44268
4175.72749,0.44333
4173.79875,0.44406
4171.87001,0.44480
4169.94127,0.44535
4168.01252,0.44554
4166.08378,0.44574
4164.15504,0.44624
4162.22630,0.44660
4160.29755,0.44665
4158.36881,0.44662
4156.44007,0.44663
4154.51133,0.44667
4152.58258,0.44656
4150.65384,0.44621
4148.72510,0.44573
4146.79636,0.44525
4144.86761,0.44471
4142.93887,0.44407
4141.01013,0.44339
4139.08139,0.44245
4137.15264,0.44123
4135.22390,0.44012
4133.29516,0.43926
4131.36642,0.43827
4129.43767,0.43691
4127.50893,0.43556
4125.58019,0.43439
4123.65145,0.43322
4121.72270,0.43204
4119.79396,0.43077
4117.86522,0.42935
4115.93648,0.42814
4114.00773,0.42717
4112.07899,0.42599
4110.15025,0.42451
4108.22151,0.42304
4106.29276,0.42161
4104.36402,0.42018
4102.43528,0.41855
4100.50654,0.41675
4098.57779,0.41532
4096.64905,0.41428
4094.72031,0.41293
4092.79157,0.41104
4090.86282,0.40905
4088.93408,0.40738
4087.00534,0.40593
4085.07660,0.40448
4083.14785,0.40289
4081.21911,0.40107
4079.29037,0.39905
4077.36163,0.39703
4075.43288,0.39487
4073.50414,0.39278
4071.57540,0.39120
4069.64666,0.38969
4067.71791,0.38774
4065.78917,0.38576
4063.86043,0.38408
4061.93169,0.38254
4060.00294,0.38078
4058.07420,0.37882
4056.14546,0.37711
4054.21672,0.37576
4052.28797,0.37423
4050.35923,0.37230
4048.43049,0.37037
4046.50175,0.36858
4044.57300,0.36676
4042.64426,0.36483
4040.71552,0.36305
4038.78678,0.36184
4036.85803,0.36098
4034.92929,0.35990
4033.00055,0.35860
4031.07181,0.35749
4029.14306,0.35648
4027.21432,0.35521
4025.28558,0.35401
4023.35684,0.35338
4021.42809,0.35312
4019.49935,0.35273
4017.57061,0.35211
4015.64187,0.35161
4013.71312,0.35153
4011.78438,0.35178
4009.85564,0.35201
4007.92690,0.35219
4005.99815,0.35224
4004.06941,0.35223
4002.14067,0.35266
4000.21193,0.35338
3998.28318,0.35382
3996.35444,0.35410
3994.42570,0.35467
3992.49696,0.35550
3990.56821,0.35620
3988.63947,0.35665
3986.71073,0.35718
3984.78199,0.35779
3982.85324,0.35814
3980.92450,0.35846
3978.99576,0.35908
3977.06702,0.35973
3975.13827,0.36021
3973.20953,0.36073
3971.28079,0.36147
3969.35205,0.36236
3967.42330,0.36328
3965.49456,0.36422
3963.56582,0.36529
3961.63708,0.36648
3959.70833,0.36734
3957.77959,0.36782
3955.85085,0.36871
3953.92211,0.36996
3951.99336,0.37099
3950.06462,0.37198
3948.13588,0.37303
3946.20714,0.37398
3944.27839,0.37482
3942.34965,0.37561
3940.42091,0.37631
3938.49217,0.37706
3936.56342,0.37813
3934.63468,0.37928
3932.70594,0.38007
3930.77720,0.38076
3928.84845,0.38177
3926.91971,0.38289
3924.99097,0.38374
3923.06223,0.38434
3921.13348,0.38492
3919.20474,0.38561
3917.27600,0.38651
3915.34726,0.38750
3913.41851,0.38847
3911.48977,0.38955
3909.56103,0.39041
3907.63229,0.39079
3905.70354,0.39118
3903.77480,0.39187
3901.84606,0.39251
3899.91732,0.39296
3897.98857,0.39351
3896.05983,0.39436
3894.13109,0.39529
3892.20235,0.39601
3890.27360,0.39650
3888.34486,0.39710
3886.41612,0.39784
3884.48738,0.39849
3882.55863,0.39902
3880.62989,0.39962
3878.70115,0.40041
3876.77241,0.40132
3874.84366,0.40224
3872.91492,0.40303
3870.98618,0.40388
3869.05744,0.40486
3867.12869,0.40568
3865.19995,0.40654
3863.27121,0.40769
3861.34247,0.40899
3859.41372,0.41036
3857.48498,0.41153
3855.55624,0.41224
3853.62750,0.41288
3851.69875,0.41414
3849.77001,0.41563
3847.84127,0.41686
3845.91253,0.41772
3843.98378,0.41838
3842.05504,0.41916
3840.12630,0.42001
3838.19756,0.42073
3836.26882,0.42119
3834.34007,0.42151
3832.41133,0.42208
3830.48259,0.42289
3828.55385,0.42361
3826.62510,0.42408
3824.69636,0.42440
3822.76762,0.42472
3820.83888,0.42500
3818.91013,0.42506
3816.98139,0.42502
3815.05265,0.42526
3813.12391,0.42568
3811.19516,0.42579
3809.26642,0.42546
3807.33768,0.42524
3805.40894,0.42557
3803.48019,0.42605
3801.55145,0.42637
3799.62271,0.42647
3797.69397,0.42641
3795.76522,0.42641
3793.83648,0.42651
3791.90774,0.42631
3789.97900,0.42586
3788.05025,0.42565
3786.12151,0.42573
3784.19277,0.42593
3782.26403,0.42598
3780.33528,0.42573
3778.40654,0.42531
3776.47780,0.42482
3774.54906,0.42427
3772.62031,0.42373
3770.69157,0.42332
3768.76283,0.42305
3766.83409,0.42260
3764.90534,0.42201
3762.97660,0.42171
3761.04786,0.42157
3759.11912,0.42108
3757.19037,0.42034
3755.26163,0.41954
3753.33289,0.41861
3751.40415,0.41761
3749.47540,0.41685
3747.54666,0.41639
3745.61792,0.41567
3743.68918,0.41450
3741.76043,0.41346
3739.83169,0.41269
3737.90295,0.41182
3735.97421,0.41046
3734.04546,0.40878
3732.11672,0.40730
3730.18798,0.40606
3728.25924,0.40473
3726.33049,0.40309
3724.40175,0.40127
3722.47301,0.39942
3720.54427,0.39747
3718.61552,0.39541
3716.68678,0.39341
3714.75804,0.39159
3712.82930,0.38953
3710.90055,0.38680
3708.97181,0.38376
3707.04307,0.38093
3705.11433,0.37841
3703.18558,0.37584
3701.25684,0.37265
3699.32810,0.36894
3697.39936,0.36505
3695.47061,0.36106
3693.54187,0.35707
3691.61313,0.35276
3689.68439,0.34766
3687.75564,0.34194
3685.82690,0.33643
3683.89816,0.33103
3681.96942,0.32516
3680.04067,0.31896
3678.11193,0.31276
3676.18319,0.30602
3674.25445,0.29890
3672.32570,0.29228
3670.39696,0.28544
3668.46822,0.27829
3666.53948,0.27159
3664.61073,0.26505
3662.68199,0.25863
3660.75325,0.25247
3658.82451,0.24615
3656.89576,0.23938
3654.96702,0.23289
3653.03828,0.22737
3651.10954,0.22184
3649.18079,0.21562
3647.25205,0.20976
3645.32331,0.20471
3643.39457,0.19988
3641.46582,0.19516
3639.53708,0.19075
3637.60834,0.18661
3635.67960,0.18266
3633.75085,0.17888
3631.82211,0.17527
3629.89337,0.17137
3627.96463,0.16706
3626.03588,0.16320
3624.10714,0.15974
3622.17840,0.15621
3620.24966,0.15258
3618.32091,0.14898
3616.39217,0.14562
3614.46343,0.14247
3612.53469,0.13946
3610.60594,0.13633
3608.67720,0.13280
3606.74846,0.12921
3604.81972,0.12613
3602.89097,0.12359
3600.96223,0.12122
3599.03349,0.11860
3597.10475,0.11566
3595.17600,0.11261
3593.24726,0.10985
3591.31852,0.10746
3589.38978,0.10506
3587.46103,0.10261
3585.53229,0.10039
3583.60355,0.09835
3581.67481,0.09637
3579.74606,0.09453
3577.81732,0.09278
3575.88858,0.09101
3573.95984,0.08930
3572.03109,0.08775
3570.10235,0.08620
3568.17361,0.08464
3566.24487,0.08308
3564.31612,0.08141
3562.38738,0.07974
3560.45864,0.07839
3558.52990,0.07739
3556.60115,0.07626
3554.67241,0.07476
3552.74367,0.07313
3550.81493,0.07172
3548.88618,0.07063
3546.95744,0.06974
3545.02870,0.06882
3543.09996,0.06774
3541.17121,0.06666
3539.24247,0.06549
3537.31373,0.06426
3535.38499,0.06332
3533.45624,0.06289
3531.52750,0.06255
3529.59876,0.06166
3527.67002,0.06035
3525.74127,0.05922
3523.81253,0.05840
3521.88379,0.05763
3519.95505,0.05674
3518.02630,0.05596
3516.09756,0.05548
3514.16882,0.05506
3512.24008,0.05437
3510.31133,0.05346
3508.38259,0.05275
3506.45385,0.05233
3504.52511,0.05175
3502.59636,0.05087
3500.66762,0.04990
3498.73888,0.04912
3496.81014,0.04876
3494.88139,0.04860
3492.95265,0.04817
3491.02391,0.04742
3489.09517,0.04675
3487.16642,0.04651
3485.23768,0.04655
3483.30894,0.04637
3481.38020,0.04584
3479.45145,0.04533
3477.52271,0.04485
3475.59397,0.04426
3473.66523,0.04387
3471.73648,0.04376
3469.80774,0.04359
3467.87900,0.04335
3465.95026,0.04317
3464.02151,0.04291
3462.09277,0.04255
3460.16403,0.04238
3458.23529,0.04249
3456.30654,0.04249
3454.37780,0.04227
3452.44906,0.04208
3450.52032,0.04203
3448.59157,0.04214
3446.66283,0.04220
3444.73409,0.04190
3442.80535,0.04140
3440.87660,0.04118
3438.94786,0.04135
3437.01912,0.04146
3435.09038,0.04112
3433.16163,0.04056
3431.23289,0.04041
3429.30415,0.04070
3427.37541,0.04095
3425.44666,0.04098
3423.51792,0.04086
3421.58918,0.04061
3419.66044,0.04052
3417.73169,0.04081
3415.80295,0.04109
3413.87421,0.04109
3411.94547,0.04095
3410.01672,0.04069
3408.08798,0.04044
3406.15924,0.04030
3404.23050,0.04024
3402.30175,0.04024
3400.37301,0.04019
3398.44427,0.04017
3396.51553,0.04043
3394.58678,0.04082
3392.65804,0.04094
3390.72930,0.04090
3388.80056,0.04095
3386.87181,0.04086
3384.94307,0.04068
3383.01433,0.04072
3381.08559,0.04073
3379.15684,0.04063
3377.22810,0.04070
3375.29936,0.04068
3373.37062,0.04054
3371.44187,0.04061
3369.51313,0.04069
3367.58439,0.04059
3365.65565,0.04063
3363.72690,0.04086
3361.79816,0.04101
3359.86942,0.04105
3357.94068,0.04107
3356.01193,0.04102
3354.08319,0.04084
3352.15445,0.04074
3350.22571,0.04112
3348.29696,0.04173
3346.36822,0.04203
3344.43948,0.04199
3342.51074,0.04182
3340.58199,0.04191
3338.65325,0.04228
3336.72451,0.04268
3334.79577,0.04304
3332.86702,0.04335
3330.93828,0.04389
3329.00954,0.04457
3327.08080,0.04497
3325.15205,0.04513
3323.22331,0.04519
3321.29457,0.04524
3319.36583,0.04550
3317.43708,0.04599
3315.50834,0.04636
3313.57960,0.04641
3311.65086,0.04663
3309.72211,0.04704
3307.79337,0.04705
3305.86463,0.04691
3303.93589,0.04709
3302.00714,0.04744
3300.07840,0.04772
3298.14966,0.04795
3296.22092,0.04827
3294.29217,0.04868
3292.36343,0.04898
3290.43469,0.04902
3288.50595,0.04890
3286.57721,0.04886
3284.64846,0.04899
3282.71972,0.04922
3280.79098,0.04961
3278.86224,0.05023
3276.93349,0.05100
3275.00475,0.05148
3273.07601,0.05140
3271.14727,0.05128
3269.21852,0.05155
3267.28978,0.05204
3265.36104,0.05249
3263.43230,0.05284
3261.50355,0.05335
3259.57481,0.05408
3257.64607,0.05455
3255.71733,0.05464
3253.78858,0.05481
3251.85984,0.05519
3249.93110,0.05567
3248.00236,0.05624
3246.07361,0.05681
3244.14487,0.05739
3242.21613,0.05790
3240.28739,0.05822
3238.35864,0.05844
3236.42990,0.05864
3234.50116,0.05893
3232.57242,0.05934
3230.64367,0.05977
3228.71493,0.06012
3226.78619,0.06049
3224.85745,0.06100
3222.92870,0.06155
3220.99996,0.06185
3219.07122,0.06198
3217.14248,0.06229
3215.21373,0.06276
3213.28499,0.06308
3211.35625,0.06352
3209.42751,0.06431
3207.49876,0.06504
3205.57002,0.06552
3203.64128,0.06616
3201.71254,0.06697
3199.78379,0.06767
3197.85505,0.06832
3195.92631,0.06896
3193.99757,0.06963
3192.06882,0.07038
3190.14008,0.07089
3188.21134,0.07098
3186.28260,0.07106
3184.35385,0.07149
3182.42511,0.07227
3180.49637,0.07327
3178.56763,0.07423
3176.63888,0.07490
3174.71014,0.07535
3172.78140,0.07584
3170.85266,0.07648
3168.92391,0.07724
3166.99517,0.07803
3165.06643,0.07889
3163.13769,0.07988
3161.20894,0.08073
3159.28020,0.08139
3157.35146,0.08207
3155.42272,0.08273
3153.49397,0.08338
3151.56523,0.08408
3149.63649,0.08476
3147.70775,0.08533
3145.77900,0.08591
3143.85026,0.08660
3141.92152,0.08739
3139.99278,0.08812
3138.06403,0.08875
3136.13529,0.08953
3134.20655,0.09028
3132.27781,0.09071
3130.34906,0.09108
3128.42032,0.09162
3126.49158,0.09232
3124.56284,0.09308
3122.63409,0.09361
3120.70535,0.09400
3118.77661,0.09449
3116.84787,0.09503
3114.91912,0.09564
3112.99038,0.09621
3111.06164,0.09666
3109.13290,0.09717
3107.20415,0.09791
3105.27541,0.09866
3103.34667,0.09898
3101.41793,0.09898
3099.48918,0.09928
3097.56044,0.10007
3095.63170,0.10090
3093.70296,0.10138
3091.77421,0.10181
3089.84547,0.10230
3087.91673,0.10252
3085.98799,0.10256
3084.05924,0.10282
3082.13050,0.10323
3080.20176,0.10367
3078.27302,0.10416
3076.34427,0.10450
3074.41553,0.10471
3072.48679,0.10500
3070.55805,0.10530
3068.62930,0.10555
3066.70056,0.10587
3064.77182,0.10633
3062.84308,0.10696
3060.91433,0.10761
3058.98559,0.10807
3057.05685,0.10840
3055.12811,0.10863
3053.19936,0.10878
3051.27062,0.10891
3049.34188,0.10927
3047.41314,0.11007
3045.48439,0.11106
3043.55565,0.11168
3041.62691,0.11166
3039.69817,0.11136
3037.76942,0.11137
3035.84068,0.11180
3033.91194,0.11227
3031.98320,0.11244
3030.05445,0.11238
3028.12571,0.11234
3026.19697,0.11225
3024.26823,0.11206
3022.33948,0.11184
3020.41074,0.11164
3018.48200,0.11157
3016.55326,0.11142
3014.62451,0.11079
3012.69577,0.10982
3010.76703,0.10887
3008.83829,0.10794
3006.90954,0.10713
3004.98080,0.10662
3003.05206,0.10620
3001.12332,0.10576
2999.19457,0.10524
2997.26583,0.10471
2995.33709,0.10449
2993.40835,0.10433
2991.47960,0.10356
2989.55086,0.10241
2987.62212,0.10135
2985.69338,0.10024
2983.76463,0.09879
2981.83589,0.09681
2979.90715,0.09443
2977.97841,0.09200
2976.04966,0.08974
2974.12092,0.08763
2972.19218,0.08562
2970.26344,0.08376
2968.33469,0.08212
2966.40595,0.08065
2964.47721,0.07937
2962.54847,0.07841
2960.61972,0.07766
2958.69098,0.07681
2956.76224,0.07588
2954.83350,0.07492
2952.90475,0.07401
2950.97601,0.07308
2949.04727,0.07199
2947.11853,0.07078
2945.18978,0.06964
2943.26104,0.06887
2941.33230,0.06847
2939.40356,0.06810
2937.47481,0.06788
2935.54607,0.06798
2933.61733,0.06825
2931.68859,0.06861
2929.75984,0.06883
2927.83110,0.06869
2925.90236,0.06844
2923.97362,0.06828
2922.04487,0.06811
2920.11613,0.06794
2918.18739,0.06786
2916.25865,0.06790
2914.32990,0.06816
2912.40116,0.06872
2910.47242,0.06947
2908.54368,0.07009
2906.61493,0.07039
2904.68619,0.07052
2902.75745,0.07077
2900.82871,0.07114
2898.89996,0.07152
2896.97122,0.07188
2895.04248,0.07227
2893.11374,0.07283
2891.18499,0.07355
2889.25625,0.07419
2887.32751,0.07463
2885.39877,0.07499
2883.47002,0.07537
2881.54128,0.07572
2879.61254,0.07598
2877.68380,0.07624
2875.75505,0.07660
2873.82631,0.07697
2871.89757,0.07711
2869.96883,0.07720
2868.04008,0.07765
2866.11134,0.07841
2864.18260,0.07923
2862.25386,0.08016
2860.32511,0.08117
2858.39637,0.08188
2856.46763,0.08223
2854.53889,0.08250
2852.61014,0.08284
2850.68140,0.08345
2848.75266,0.08463
2846.82392,0.08642
2844.89517,0.08853
2842.96643,0.09065
2841.03769,0.09265
2839.10895,0.09452
2837.18020,0.09642
2835.25146,0.09852
2833.32272,0.10088
2831.39398,0.10353
2829.46523,0.10644
2827.53649,0.10936
2825.60775,0.11198
2823.67901,0.11430
2821.75026,0.11654
2819.82152,0.11869
2817.89278,0.12069
2815.96404,0.12257
2814.03529,0.12439
2812.10655,0.12631
2810.17781,0.12826
2808.24907,0.12999
2806.32032,0.13150
2804.39158,0.13294
2802.46284,0.13433
2800.53410,0.13553
2798.60535,0.13659
2796.67661,0.13765
2794.74787,0.13868
2792.81913,0.13970
2790.89038,0.14081
2788.96164,0.14200
2787.03290,0.14308
2785.10416,0.14374
2783.17541,0.14413
2781.24667,0.14467
2779.31793,0.14541
2777.38919,0.14607
2775.46044,0.14660
2773.53170,0.14717
2771.60296,0.14786
2769.67422,0.14854
2767.74547,0.14910
2765.81673,0.14957
2763.88799,0.15000
2761.95925,0.15032
2760.03050,0.15050
2758.10176,0.15073
2756.17302,0.15115
2754.24428,0.15157
2752.31553,0.15177
2750.38679,0.15180
2748.45805,0.15187
2746.52931,0.15204
2744.60056,0.15237
2742.67182,0.15276
2740.74308,0.15298
2738.81434,0.15301
2736.88560,0.15303
2734.95685,0.15312
2733.02811,0.15335
2731.09937,0.15375
2729.17063,0.15430
2727.24188,0.15496
2725.31314,0.15556
2723.38440,0.15600
2721.45566,0.15650
2719.52691,0.15710
2717.59817,0.15770
2715.66943,0.15836
2713.74069,0.15902
2711.81194,0.15971
2709.88320,0.16061
2707.95446,0.16169
2706.02572,0.16277
2704.09697,0.16379
2702.16823,0.16473
2700.23949,0.16557
2698.31075,0.16634
2696.38200,0.16700
2694.45326,0.16764
2692.52452,0.16842
2690.59578,0.16927
2688.66703,0.17014
2686.73829,0.17109
2684.80955,0.17203
2682.88081,0.17287
2680.95206,0.17368
2679.02332,0.17447
2677.09458,0.17506
2675.16584,0.17550
2673.23709,0.17606
2671.30835,0.17692
2669.37961,0.17787
2667.45087,0.17846
2665.52212,0.17869
2663.59338,0.17890
2661.66464,0.17925
2659.73590,0.17969
2657.80715,0.18024
2655.87841,0.18083
2653.94967,0.18135
2652.02093,0.18174
2650.09218,0.18215
2648.16344,0.18272
2646.23470,0.18343
2644.30596,0.18421
2642.37721,0.18497
2640.44847,0.18570
2638.51973,0.18642
2636.59099,0.18716
2634.66224,0.18798
2632.73350,0.18894
2630.80476,0.18985
2628.87602,0.19046
2626.94727,0.19093
2625.01853,0.19158
2623.08979,0.19240
2621.16105,0.19321
2619.23230,0.19398
2617.30356,0.19467
2615.37482,0.19521
2613.44608,0.19580
2611.51733,0.19638
2609.58859,0.19676
2607.65985,0.19717
2605.73111,0.19781
2603.80236,0.19852
2601.87362,0.19911
2599.94488,0.19967
2598.01614,0.20026
2596.08739,0.20080
2594.15865,0.20131
2592.22991,0.20180
2590.30117,0.20230
2588.37242,0.20299
2586.44368,0.20385
2584.51494,0.20462
2582.58620,0.20515
2580.65745,0.20547
2578.72871,0.20577
2576.79997,0.20626
2574.87123,0.20677
2572.94248,0.20709
2571.01374,0.20726
2569.08500,0.20735
2567.15626,0.20750
2565.22751,0.20791
2563.29877,0.20838
2561.37003,0.20864
2559.44129,0.20894
2557.51254,0.20945
2555.58380,0.20983
2553.65506,0.20998
2551.72632,0.21020
2549.79757,0.21055
2547.86883,0.21092
2545.94009,0.21127
2544.01135,0.21165
2542.08260,0.21217
2540.15386,0.21277
2538.22512,0.21335
2536.29638,0.21379
2534.36763,0.21414
2532.43889,0.21460
2530.51015,0.21519
2528.58141,0.21583
2526.65266,0.21657
2524.72392,0.21731
2522.79518,0.21796
2520.86644,0.21862
2518.93769,0.21927
2517.00895,0.21982
2515.08021,0.22041
2513.15147,0.22116
2511.22272,0.22193
2509.29398,0.22265
2507.36524,0.22350
2505.43650,0.22464
2503.50775,0.22600
2501.57901,0.22734
2499.65027,0.22839
2497.72153,0.22916
2495.79278,0.23005
2493.86404,0.23123
2491.93530,0.23241
2490.00656,0.23338
2488.07781,0.23423
2486.14907,0.23501
2484.22033,0.23570
2482.29159,0.23636
2480.36284,0.23709
2478.43410,0.23780
2476.50536,0.23844
2474.57662,0.23916
2472.64787,0.24003
2470.71913,0.24084
2468.79039,0.24151
2466.86165,0.24217
2464.93290,0.24276
2463.00416,0.24323
2461.07542,0.24374
2459.14668,0.24436
2457.21793,0.24498
2455.28919,0.24556
2453.36045,0.24626
2451.43171,0.24722
2449.50296,0.24820
2447.57422,0.24892
2445.64548,0.24964
2443.71674,0.25056
2441.78799,0.25154
2439.85925,0.25242
2437.93051,0.25329
2436.00177,0.25418
2434.07302,0.25512
2432.14428,0.25622
2430.21554,0.25751
2428.28680,0.25879
2426.35805,0.25989
2424.42931,0.26091
2422.50057,0.26212
2420.57183,0.26343
2418.64308,0.26448
2416.71434,0.26536
2414.78560,0.26652
2412.85686,0.26800
2410.92811,0.26940
2408.99937,0.27063
2407.07063,0.27182
2405.14189,0.27301
2403.21314,0.27416
2401.28440,0.27522
2399.35566,0.27629
2397.42692,0.27746
2395.49817,0.27854
2393.56943,0.27938
2391.64069,0.28023
2389.71195,0.28129
2387.78320,0.28228
2385.85446,0.28309
2383.92572,0.28391
2381.99698,0.28495
2380.06823,0.28611
2378.13949,0.28701
2376.21075,0.28763
2374.28201,0.28842
2372.35326,0.28941
2370.42452,0.29043
2368.49578,0.29138
2366.56704,0.29219
2364.63829,0.29297
2362.70955,0.29370
2360.78081,0.29430
2358.85207,0.29487
2356.92332,0.29557
2354.99458,0.29635
2353.06584,0.29725
2351.13710,0.29811
2349.20835,0.29873
2347.27961,0.29929
2345.35087,0.30003
2343.42213,0.30091
2341.49338,0.30168
2339.56464,0.30212
2337.63590,0.30234
2335.70716,0.30270
2333.77841,0.30323
2331.84967,0.30372
2329.92093,0.30409
2327.99219,0.30441
2326.06344,0.30467
2324.13470,0.30492
2322.20596,0.30523
2320.27722,0.30549
2318.34847,0.30562
2316.41973,0.30578
2314.49099,0.30605
2312.56225,0.30628
2310.63350,0.30641
2308.70476,0.30649
2306.77602,0.30649
2304.84728,0.30635
2302.91853,0.30614
2300.98979,0.30598
2299.06105,0.30585
2297.13231,0.30574
2295.20356,0.30586
2293.27482,0.30616
2291.34608,0.30635
2289.41734,0.30651
2287.48859,0.30654
2285.55985,0.30633
2283.63111,0.30613
2281.70237,0.30603
2279.77362,0.30590
2277.84488,0.30577
2275.91614,0.30553
2273.98740,0.30506
2272.05865,0.30450
2270.12991,0.30395
2268.20117,0.30337
2266.27243,0.30277
2264.34368,0.30211
2262.41494,0.30130
2260.48620,0.30044
2258.55746,0.29970
2256.62871,0.29905
2254.69997,0.29849
2252.77123,0.29788
2250.84249,0.29715
2248.91374,0.29659
2246.98500,0.29631
2245.05626,0.29610
2243.12752,0.29585
2241.19877,0.29564
2239.27003,0.29545
2237.34129,0.29530
2235.41255,0.29533
2233.48380,0.29554
2231.55506,0.29573
2229.62632,0.29582
2227.69758,0.29599
2225.76883,0.29636
2223.84009,0.29677
2221.91135,0.29702
2219.98261,0.29721
2218.05386,0.29757
2216.12512,0.29791
2214.19638,0.29790
2212.26764,0.29763
2210.33889,0.29743
2208.41015,0.29724
2206.48141,0.29693
2204.55267,0.29655
2202.62392,0.29607
2200.69518,0.29546
2198.76644,0.29484
2196.83770,0.29408
2194.90895,0.29309
2192.98021,0.29212
2191.05147,0.29123
2189.12273,0.29026
2187.19399,0.28920
2185.26524,0.28802
2183.33650,0.28661
2181.40776,0.28507
2179.47902,0.28366
2177.55027,0.28254
2175.62153,0.28145
2173.69279,0.28011
2171.76405,0.27867
2169.83530,0.27733
2167.90656,0.27604
2165.97782,0.27489
2164.04908,0.27395
2162.12033,0.27312
2160.19159,0.27247
2158.26285,0.27193
2156.33411,0.27133
2154.40536,0.27071
2152.47662,0.27018
2150.54788,0.26969
2148.61914,0.26929
2146.69039,0.26897
2144.76165,0.26859
2142.83291,0.26823
2140.90417,0.26801
2138.97542,0.26788
2137.04668,0.26782
2135.11794,0.26784
2133.18920,0.26799
2131.26045,0.26827
2129.33171,0.26859
2127.40297,0.26889
2125.47423,0.26913
2123.54548,0.26928
2121.61674,0.26947
2119.68800,0.26992
2117.75926,0.27056
2115.83051,0.27114
2113.90177,0.27158
2111.97303,0.27198
2110.04429,0.27237
2108.11554,0.27282
2106.18680,0.27343
2104.25806,0.27406
2102.32932,0.27450
2100.40057,0.27487
2098.47183,0.27529
2096.54309,0.27579
2094.61435,0.27634
2092.68560,0.27683
2090.75686,0.27714
2088.82812,0.27730
2086.89938,0.27738
2084.97063,0.27746
2083.04189,0.27747
2081.11315,0.27737
2079.18441,0.27714
2077.25566,0.27669
2075.32692,0.27625
2073.39818,0.27598
2071.46944,0.27563
2069.54069,0.27509
2067.61195,0.27455
2065.68321,0.27414
2063.75447,0.27385
2061.82572,0.27374
2059.89698,0.27376
2057.96824,0.27366
2056.03950,0.27345
2054.11075,0.27342
2052.18201,0.27361
2050.25327,0.27387
2048.32453,0.27425
2046.39578,0.27473
2044.46704,0.27521
2042.53830,0.27580
2040.60956,0.27659
2038.68081,0.27743
2036.75207,0.27818
2034.82333,0.27897
2032.89459,0.27999
2030.96584,0.28116
2029.03710,0.28237
2027.10836,0.28350
2025.17962,0.28447
2023.25087,0.28545
2021.32213,0.28668
2019.39339,0.28804
2017.46465,0.28927
2015.53590,0.29035
2013.60716,0.29144
2011.67842,0.29257
2009.74968,0.29361
2007.82093,0.29445
2005.89219,0.29514
2003.96345,0.29584
2002.03471,0.29663
2000.10596,0.29731
1998.17722,0.29785
1996.24848,0.29837
1994.31974,0.29896
1992.39099,0.29965
1990.46225,0.30032
1988.53351,0.30081
1986.60477,0.30117
1984.67602,0.30147
1982.74728,0.30178
1980.81854,0.30216
1978.88980,0.30248
1976.96105,0.30262
1975.03231,0.30259
1973.10357,0.30252
1971.17483,0.30248
1969.24608,0.30241
1967.31734,0.30236
1965.38860,0.30238
1963.45986,0.30239
1961.53111,0.30240
1959.60237,0.30249
1957.67363,0.30261
1955.74489,0.30280
1953.81614,0.30316
1951.88740,0.30369
1949.95866,0.30442
1948.02992,0.30544
1946.10117,0.30659
1944.17243,0.30762
1942.24369,0.30853
1940.31495,0.30952
1938.38620,0.31065
1936.45746,0.31190
1934.52872,0.31325
1932.59998,0.31463
1930.67123,0.31589
1928.74249,0.31691
1926.81375,0.31773
1924.88501,0.31855
1922.95626,0.31943
1921.02752,0.32028
1919.09878,0.32092
1917.17004,0.32140
1915.24129,0.32175
1913.31255,0.32203
1911.38381,0.32239
1909.45507,0.32272
1907.52632,0.32289
1905.59758,0.32291
1903.66884,0.32283
1901.74010,0.32270
1899.81135,0.32257
1897.88261,0.32239
1895.95387,0.32212
1894.02513,0.32188
1892.09638,0.32163
1890.16764,0.32118
1888.23890,0.32076
1886.31016,0.32056
1884.38141,0.32040
1882.45267,0.32013
1880.52393,0.31982
1878.59519,0.31946
1876.66644,0.31903
1874.73770,0.31853
1872.80896,0.31792
1870.88022,0.31724
1868.95147,0.31656
1867.02273,0.31592
1865.09399,0.31526
1863.16525,0.31451
1861.23650,0.31370
1859.30776,0.31282
1857.37902,0.31188
1855.45028,0.31105
1853.52153,0.31033
1851.59279,0.30943
1849.66405,0.30832
1847.73531,0.30724
1845.80656,0.30610
1843.87782,0.30485
1841.94908,0.30366
1840.02034,0.30252
1838.09159,0.30129
1836.16285,0.29998
1834.23411,0.29863
1832.30537,0.29715
1830.37662,0.29544
1828.44788,0.29371
1826.51914,0.29212
1824.59040,0.29035
1822.66165,0.28838
1820.73291,0.28648
1818.80417,0.28458
1816.87543,0.28246
1814.94668,0.28015
1813.01794,0.27773
1811.08920,0.27511
1809.16046,0.27233
1807.23171,0.26945
1805.30297,0.26641
1803.37423,0.26331
1801.44549,0.26023
1799.51674,0.25693
1797.58800,0.25335
1795.65926,0.24976
1793.73052,0.24604
1791.80177,0.24191
1789.87303,0.23773
1787.94429,0.23359
1786.01555,0.22897
1784.08680,0.22367
1782.15806,0.21783
1780.22932,0.21150
1778.30058,0.20465
1776.37183,0.19724
1774.44309,0.18878
1772.51435,0.17871
1770.58561,0.16774
1768.65686,0.15679
1766.72812,0.14598
1764.79938,0.13581
1762.87064,0.12602
1760.94189,0.11667
1759.01315,0.10890
1757.08441,0.10260
1755.15567,0.09740
1753.22692,0.09314
1751.29818,0.08935
1749.36944,0.08601
1747.44070,0.08328
1745.51195,0.08112
1743.58321,0.07951
1741.65447,0.07837
1739.72573,0.07764
1737.79698,0.07746
1735.86824,0.07794
1733.93950,0.07905
1732.01076,0.08043
1730.08201,0.08195
1728.15327,0.08362
1726.22453,0.08526
1724.29579,0.08689
1722.36704,0.08845
1720.43830,0.08967
1718.50956,0.09044
1716.58082,0.09082
1714.65207,0.09085
1712.72333,0.09046
1710.79459,0.08957
1708.86585,0.08824
1706.93710,0.08652
1705.00836,0.08440
1703.07962,0.08203
1701.15088,0.07910
1699.22213,0.07566
1697.29339,0.07239
1695.36465,0.06893
1693.43591,0.06550
1691.50716,0.06250
1689.57842,0.05973
1687.64968,0.05733
1685.72094,0.05498
1683.79219,0.05233
1681.86345,0.05027
1679.93471,0.04897
1678.00597,0.04787
1676.07722,0.04684
1674.14848,0.04596
1672.21974,0.04536
1670.29100,0.04518
1668.36225,0.04543
1666.43351,0.04598
1664.50477,0.04658
1662.57603,0.04709
1660.64728,0.04764
1658.71854,0.04841
1656.78980,0.04926
1654.86106,0.05013
1652.93231,0.05119
1651.00357,0.05218
1649.07483,0.05290
1647.14609,0.05364
1645.21735,0.05454
1643.28860,0.05533
1641.35986,0.05578
1639.43112,0.05604
1637.50238,0.05616
1635.57363,0.05601
1633.64489,0.05578
1631.71615,0.05567
1629.78741,0.05557
1627.85866,0.05534
1625.92992,0.05511
1624.00118,0.05501
1622.07244,0.05509
1620.14369,0.05539
1618.21495,0.05583
1616.28621,0.05621
1614.35747,0.05636
1612.42872,0.05639
1610.49998,0.05638
1608.57124,0.05631
1606.64250,0.05612
1604.71375,0.05593
1602.78501,0.05595
1600.85627,0.05612
1598.92753,0.05625
1596.99878,0.05639
1595.07004,0.05673
1593.14130,0.05751
1591.21256,0.05897
1589.28381,0.06109
1587.35507,0.06358
1585.42633,0.06633
1583.49759,0.06934
1581.56884,0.07251
1579.64010,0.07555
1577.71136,0.07848
1575.78262,0.08138
1573.85387,0.08363
1571.92513,0.08508
1569.99639,0.08608
1568.06765,0.08672
1566.13890,0.08700
1564.21016,0.08698
1562.28142,0.08676
1560.35268,0.08632
1558.42393,0.08555
1556.49519,0.08467
1554.56645,0.08389
1552.63771,0.08330
1550.70896,0.08284
1548.78022,0.08220
1546.85148,0.08152
1544.92274,0.08096
1542.99399,0.08035
1541.06525,0.07960
1539.13651,0.07886
1537.20777,0.07826
1535.27902,0.07751
1533.35028,0.07635
1531.42154,0.07497
1529.49280,0.07353
1527.56405,0.07175
1525.63531,0.06951
1523.70657,0.06686
1521.77783,0.06361
1519.84908,0.06024
1517.92034,0.05753
1515.99160,0.05546
1514.06286,0.05397
1512.13411,0.05307
1510.20537,0.05259
1508.27663,0.05251
1506.34789,0.05306
1504.41914,0.05417
1502.49040,0.05542
1500.56166,0.05686
1498.63292,0.05870
1496.70417,0.06086
1494.77543,0.06292
1492.84669,0.06466
1490.91795,0.06605
1488.98920,0.06696
1487.06046,0.06726
1485.13172,0.06695
1483.20298,0.06606
1481.27423,0.06466
1479.34549,0.06281
1477.41675,0.06043
1475.48801,0.05768
1473.55926,0.05491
1471.63052,0.05247
1469.70178,0.05054
1467.77304,0.04911
1465.84429,0.04818
1463.91555,0.04796
1461.98681,0.04841
1460.05807,0.04910
1458.12932,0.04962
1456.20058,0.04986
1454.27184,0.05009
1452.34310,0.05062
1450.41435,0.05142
1448.48561,0.05224
1446.55687,0.05285
1444.62813,0.05325
1442.69938,0.05357
1440.77064,0.05368
1438.84190,0.05335
1436.91316,0.05260
1434.98441,0.05174
1433.05567,0.05102
1431.12693,0.05044
1429.19819,0.05001
1427.26944,0.04995
1425.34070,0.05040
1423.41196,0.05121
1421.48322,0.05210
1419.55447,0.05313
1417.62573,0.05445
1415.69699,0.05585
1413.76825,0.05721
1411.83950,0.05854
1409.91076,0.05961
1407.98202,0.06023
1406.05328,0.06051
1404.12453,0.06064
1402.19579,0.06062
1400.26705,0.06038
1398.33831,0.06002
1396.40956,0.05959
1394.48082,0.05889
1392.55208,0.05782
1390.62334,0.05661
1388.69459,0.05527
1386.76585,0.05375
1384.83711,0.05231
1382.90837,0.05108
1380.97962,0.05003
1379.05088,0.04919
1377.12214,0.04862
1375.19340,0.04839
1373.26465,0.04851
1371.33591,0.04888
1369.40717,0.04942
1367.47843,0.04997
1365.54968,0.05044
1363.62094,0.05099
1361.69220,0.05169
1359.76346,0.05239
1357.83471,0.05295
1355.90597,0.05331
1353.97723,0.05355
1352.04849,0.05373
1350.11974,0.05387
1348.19100,0.05380
1346.26226,0.05344
1344.33352,0.05278
1342.40477,0.05189
1340.47603,0.05105
1338.54729,0.05062
1336.61855,0.05061
1334.68980,0.05064
1332.76106,0.05050
1330.83232,0.05042
1328.90358,0.05049
1326.97483,0.05065
1325.04609,0.05090
1323.11735,0.05117
1321.18861,0.05144
1319.25986,0.05189
1317.33112,0.05265
1315.40238,0.05343
1313.47364,0.05413
1311.54489,0.05489
1309.61615,0.05568
1307.68741,0.05642
1305.75867,0.05712
1303.82992,0.05760
1301.90118,0.05782
1299.97244,0.05801
1298.04370,0.05807
1296.11495,0.05764
1294.18621,0.05680
1292.25747,0.05587
1290.32873,0.05497
1288.39998,0.05400
1286.47124,0.05292
1284.54250,0.05187
1282.61376,0.05101
1280.68501,0.05043
1278.75627,0.05010
1276.82753,0.04969
1274.89879,0.04901
1272.97004,0.04830
1271.04130,0.04788
1269.11256,0.04776
1267.18382,0.04783
1265.25507,0.04801
1263.32633,0.04811
1261.39759,0.04794
1259.46885,0.04774
1257.54010,0.04778
1255.61136,0.04792
1253.68262,0.04791
1251.75388,0.04768
1249.82513,0.04748
1247.89639,0.04745
1245.96765,0.04730
1244.03891,0.04687
1242.11016,0.04646
1240.18142,0.04622
1238.25268,0.04618
1236.32394,0.04643
1234.39519,0.04681
1232.46645,0.04708
1230.53771,0.04727
1228.60897,0.04749
1226.68022,0.04792
1224.75148,0.04875
1222.82274,0.04968
1220.89400,0.05037
1218.96525,0.05099
1217.03651,0.05160
1215.10777,0.05207
1213.17903,0.05244
1211.25028,0.05256
1209.32154,0.05235
1207.39280,0.05226
1205.46406,0.05263
1203.53531,0.05316
1201.60657,0.05342
1199.67783,0.05345
1197.74909,0.05347
1195.82034,0.05348
1193.89160,0.05322
1191.96286,0.05244
1190.03412,0.05136
1188.10537,0.05032
1186.17663,0.04918
1184.24789,0.04793
1182.31915,0.04690
1180.39040,0.04588
1178.46166,0.04431
1176.53292,0.04233
1174.60418,0.04055
1172.67543,0.03939
1170.74669,0.03898
1168.81795,0.03939
1166.88921,0.04045
1164.96046,0.04159
1163.03172,0.04245
1161.10298,0.04332
1159.17424,0.04424
1157.24549,0.04475
1155.31675,0.04490
1153.38801,0.04514
1151.45927,0.04532
1149.53052,0.04514
1147.60178,0.04476
1145.67304,0.04423
1143.74430,0.04330
1141.81555,0.04208
1139.88681,0.04095
1137.95807,0.04012
1136.02933,0.03946
1134.10058,0.03859
1132.17184,0.03768
1130.24310,0.03748
1128.31436,0.03805
1126.38561,0.03879
1124.45687,0.03943
1122.52813,0.04010
1120.59939,0.04088
1118.67064,0.04175
1116.74190,0.04235
1114.81316,0.04253
1112.88442,0.04281
1110.95567,0.04344
1109.02693,0.04416
1107.09819,0.04468
1105.16945,0.04499
1103.24070,0.04540
1101.31196,0.04588
1099.38322,0.04589
1097.45448,0.04535
1095.52574,0.04471
1093.59699,0.04403
1091.66825,0.04337
1089.73951,0.04303
1087.81077,0.04298
1085.88202,0.04284
1083.95328,0.04262
1082.02454,0.04250
1080.09580,0.04261
1078.16705,0.04333
1076.23831,0.04461
1074.30957,0.04544
1072.38083,0.04572
1070.45208,0.04653
1068.52334,0.04801
1066.59460,0.04949
1064.66586,0.05126
1062.73711,0.05370
1060.80837,0.05611
1058.87963,0.05792
1056.95089,0.05934
1055.02214,0.06050
1053.09340,0.06118
1051.16466,0.06140
1049.23592,0.06145
1047.30717,0.06127
1045.37843,0.06076
1043.44969,0.06040
1041.52095,0.06072
1039.59220,0.06176
1037.66346,0.06335
1035.73472,0.06515
1033.80598,0.06660
1031.87723,0.06743
1029.94849,0.06796
1028.01975,0.06858
1026.09101,0.06930
1024.16226,0.07005
1022.23352,0.07084
1020.30478,0.07148
1018.37604,0.07205
1016.44729,0.07284
1014.51855,0.07365
1012.58981,0.07422
1010.66107,0.07460
1008.73232,0.07499
1006.80358,0.07569
1004.87484,0.07668
1002.94610,0.07759
1001.01735,0.07834
999.08861,0.07916
997.15987,0.07995
995.23113,0.08045
993.30238,0.08091
991.37364,0.08188
989.44490,0.08350
987.51616,0.08577
985.58741,0.08875
983.65867,0.09219
981.72993,0.09558
979.80119,0.09861
977.87244,0.10109
975.94370,0.10291
974.01496,0.10426
972.08622,0.10537
970.15747,0.10632
968.22873,0.10752
966.29999,0.10931
964.37125,0.11150
962.44250,0.11396
960.51376,0.11674
958.58502,0.11965
956.65628,0.12247
954.72753,0.12508
952.79879,0.12733
950.87005,0.12935
948.94131,0.13126
947.01256,0.13274
945.08382,0.13358
943.15508,0.13389
941.22634,0.13391
939.29759,0.13393
937.36885,0.13403
935.44011,0.13395
933.51137,0.13368
931.58262,0.13357
929.65388,0.13358
927.72514,0.13360
925.79640,0.13379
923.86765,0.13394
921.93891,0.13346
920.01017,0.13243
918.08143,0.13143
916.15268,0.13055
914.22394,0.12948
912.29520,0.12811
910.36646,0.12664
908.43771,0.12499
906.50897,0.12291
904.58023,0.12036
902.65149,0.11774
900.72274,0.11591
898.79400,0.11518
896.86526,0.11535
894.93652,0.11652
893.00777,0.11869
891.07903,0.12131
889.15029,0.12383
887.22155,0.12596
885.29280,0.12755
883.36406,0.12870
881.43532,0.12954
879.50658,0.13008
877.57783,0.13050
875.64909,0.13107
873.72035,0.13190
871.79161,0.13286
869.86286,0.13351
867.93412,0.13361
866.00538,0.13351
864.07664,0.13334
862.14789,0.13284
860.21915,0.13223
858.29041,0.13179
856.36167,0.13126
854.43292,0.13038
852.50418,0.12967
850.57544,0.12967
848.64670,0.13003
846.71795,0.13005
844.78921,0.12953
842.86047,0.12865
840.93173,0.12766
839.00298,0.12666
837.07424,0.12584
835.14550,0.12528
833.21676,0.12476
831.28801,0.12442
829.35927,0.12456
827.43053,0.12490
825.50179,0.12492
823.57304,0.12447
821.64430,0.12393
819.71556,0.12382
817.78682,0.12423
815.85807,0.12462
813.92933,0.12460
812.00059,0.12462
810.07185,0.12490
808.14310,0.12476
806.21436,0.12397
804.28562,0.12342
802.35688,0.12352
800.42813,0.12387
798.49939,0.12397
796.57065,0.12352
794.64191,0.12279
792.71316,0.12226
790.78442,0.12176
788.85568,0.12072
786.92694,0.11932
784.99819,0.11816
783.06945,0.11744
781.14071,0.11717
779.21197,0.11669
777.28322,0.11528
775.35448,0.11363
773.42574,0.11252
771.49700,0.11192
769.56825,0.11156
767.63951,0.11086
765.71077,0.10962
763.78203,0.10832
761.85328,0.10706
759.92454,0.10570
757.99580,0.10435
756.06706,0.10326
754.13831,0.10238
752.20957,0.10124
750.28083,0.09981
748.35209,0.09866
746.42334,0.09775
744.49460,0.09677
742.56586,0.09580
740.63712,0.09498
738.70837,0.09422
736.77963,0.09345
734.85089,0.09277
732.92215,0.09183
730.99340,0.09053
729.06466,0.08924
727.13592,0.08792
725.20718,0.08642
723.27843,0.08506
721.34969,0.08440
719.42095,0.08460
717.49221,0.08507
715.56346,0.08499
713.63472,0.08439
711.70598,0.08368
709.77724,0.08298
707.84849,0.08261
705.91975,0.08277
703.99101,0.08271
702.06227,0.08216
700.13352,0.08189
698.20478,0.08182
696.27604,0.08132
694.34730,0.08076
692.41855,0.08053
690.48981,0.08020
688.56107,0.07948
686.63233,0.07844
684.70358,0.07713
682.77484,0.07573
680.84610,0.07455
678.91736,0.07384
676.98861,0.07351
675.05987,0.07320
673.13113,0.07249
671.20239,0.07158
669.27364,0.07120
667.34490,0.07167
665.41616,0.07251
663.48742,0.07308
661.55867,0.07328
659.62993,0.07347
657.70119,0.07376
655.77245,0.07431
653.84370,0.07474
651.91496,0.07419
649.98622,0.07318
648.05748,0.07264
646.12873,0.07220
644.19999,0.07161
642.27125,0.07104
640.34251,0.07000
638.41376,0.06882
636.48502,0.06856
634.55628,0.06889
632.62754,0.06894
630.69879,0.06840
628.77005,0.06739
626.84131,0.06683
624.91257,0.06698
622.98382,0.06681
621.05508,0.06666
619.12634,0.06720
617.19760,0.06773
615.26885,0.06786
613.34011,0.06752
611.41137,0.06714
609.48263,0.06741
607.55388,0.06779
605.62514,0.06804
603.69640,0.06891
601.76766,0.07055
599.83891,0.07124
