7497.02206,0.85470
7495.09332,0.85422
7493.16458,0.85393
7491.23584,0.85405
7489.30709,0.85405
7487.37835,0.85258
7485.44961,0.85015
7483.52087,0.85047
7481.59212,0.85288
7479.66338,0.85107
7477.73464,0.84798
7475.80590,0.84956
7473.87715,0.85125
7471.94841,0.84976
7470.01967,0.84696
7468.09093,0.84098
7466.16218,0.83324
7464.23344,0.83118
7462.30470,0.83437
7460.37596,0.83666
7458.44721,0.83785
7456.51847,0.83914
7454.58973,0.83991
7452.66099,0.84111
7450.73224,0.84350
7448.80350,0.84451
7446.87476,0.84184
7444.94602,0.83776
7443.01727,0.83524
7441.08853,0.83430
7439.15979,0.83185
7437.23105,0.82656
7435.30230,0.82380
7433.37356,0.82761
7431.44482,0.83379
7429.51608,0.83637
7427.58733,0.83475
7425.65859,0.83244
7423.72985,0.83070
7421.80111,0.82963
7419.87236,0.83204
7417.94362,0.83512
7416.01488,0.83125
7414.08614,0.82287
7412.15739,0.81825
7410.22865,0.81890
7408.29991,0.82236
7406.37117,0.82577
7404.44242,0.82508
7402.51368,0.81908
7400.58494,0.81334
7398.65620,0.81386
7396.72745,0.81739
7394.79871,0.81697
7392.86997,0.81400
7390.94123,0.81244
7389.01248,0.81230
7387.08374,0.81538
7385.15500,0.82065
7383.22626,0.82208
7381.29751,0.82094
7379.36877,0.82242
7377.44003,0.82463
7375.51129,0.82426
7373.58254,0.82135
7371.65380,0.81704
7369.72506,0.81165
7367.79632,0.80470
7365.86757,0.79989
7363.93883,0.80160
7362.01009,0.80615
7360.08135,0.80864
7358.15260,0.80829
7356.22386,0.80433
7354.29512,0.80043
7352.36638,0.80209
7350.43763,0.80577
7348.50889,0.80509
7346.58015,0.80106
7344.65141,0.79831
7342.72266,0.79898
7340.79392,0.80128
7338.86518,0.80219
7336.93644,0.80044
7335.00769,0.79650
7333.07895,0.79356
7331.15021,0.79386
7329.22147,0.79464
7327.29272,0.79315
7325.36398,0.79128
7323.43524,0.79266
7321.50650,0.79691
7319.57775,0.79897
7317.64901,0.79698
7315.72027,0.79420
7313.79153,0.79178
7311.86278,0.78996
7309.93404,0.78987
7308.00530,0.78973
7306.07656,0.78829
7304.14781,0.78636
7302.21907,0.78422
7300.29033,0.78355
7298.36159,0.78585
7296.43284,0.79060
7294.50410,0.79584
7292.57536,0.79796
7290.64662,0.79761
7288.71787,0.79717
7286.78913,0.79275
7284.86039,0.78579
7282.93165,0.78464
7281.00290,0.78833
7279.07416,0.79032
7277.14542,0.78749
7275.21668,0.78189
7273.28793,0.77962
7271.35919,0.78182
7269.43045,0.78583
7267.50171,0.78964
7265.57296,0.79128
7263.64422,0.79188
7261.71548,0.79311
7259.78674,0.79356
7257.85799,0.79154
7255.92925,0.78733
7254.00051,0.78244
7252.07177,0.77929
7250.14302,0.77906
7248.21428,0.77910
7246.28554,0.77902
7244.35680,0.78087
7242.42805,0.78259
7240.49931,0.78326
7238.57057,0.78539
7236.64183,0.78836
7234.71308,0.78994
7232.78434,0.79004
7230.85560,0.78955
7228.92686,0.78861
7226.99811,0.78584
7225.06937,0.78324
7223.14063,0.78556
7221.21189,0.78939
7219.28314,0.78827
7217.35440,0.78473
7215.42566,0.78399
7213.49692,0.78493
7211.56817,0.78512
7209.63943,0.78625
7207.71069,0.78685
7205.78195,0.78311
7203.85320,0.77986
7201.92446,0.78286
7199.99572,0.78702
7198.06698,0.78495
7196.13823,0.77841
7194.20949,0.77460
7192.28075,0.77517
7190.35201,0.77523
7188.42326,0.77380
7186.49452,0.77494
7184.56578,0.77826
7182.63704,0.77960
7180.70829,0.77784
7178.77955,0.77624
7176.85081,0.77718
7174.92207,0.77805
7172.99332,0.77772
7171.06458,0.77775
7169.13584,0.77592
7167.20710,0.77104
7165.27835,0.76642
7163.34961,0.76462
7161.42087,0.76544
7159.49213,0.76652
7157.56338,0.76695
7155.63464,0.76774
7153.70590,0.76748
7151.77716,0.76536
7149.84841,0.76452
7147.91967,0.76588
7145.99093,0.76544
7144.06219,0.76213
7142.13344,0.76131
7140.20470,0.76359
7138.27596,0.76204
7136.34722,0.75743
7134.41847,0.75596
7132.48973,0.75584
7130.56099,0.75445
7128.63225,0.75335
7126.70351,0.75251
7124.77476,0.75213
7122.84602,0.75224
7120.91728,0.75012
7118.98854,0.74557
7117.05979,0.74213
7115.13105,0.74105
7113.20231,0.74056
7111.27357,0.74016
7109.34482,0.74095
7107.41608,0.74174
7105.48734,0.74103
7103.55860,0.74199
7101.62985,0.74503
7099.70111,0.74464
7097.77237,0.74083
7095.84363,0.73807
7093.91488,0.73684
7091.98614,0.73602
7090.05740,0.73475
7088.12866,0.73244
7086.19991,0.73067
7084.27117,0.72933
7082.34243,0.72567
7080.41369,0.72230
7078.48494,0.72367
7076.55620,0.72595
7074.62746,0.72398
7072.69872,0.71868
7070.76997,0.71357
7068.84123,0.71260
7066.91249,0.71595
7064.98375,0.71868
7063.05500,0.71745
7061.12626,0.71406
7059.19752,0.71113
7057.26878,0.70919
7055.34003,0.70956
7053.41129,0.71175
7051.48255,0.71134
7049.55381,0.70798
7047.62506,0.70529
7045.69632,0.70278
7043.76758,0.69938
7041.83884,0.69767
7039.91009,0.69720
7037.98135,0.69522
7036.05261,0.69299
7034.12387,0.69164
7032.19512,0.69026
7030.26638,0.68907
7028.33764,0.68754
7026.40890,0.68484
7024.48015,0.68215
7022.55141,0.68087
7020.62267,0.68052
7018.69393,0.67809
7016.76518,0.67310
7014.83644,0.67046
7012.90770,0.67178
7010.97896,0.67290
7009.05021,0.67151
7007.12147,0.66971
7005.19273,0.66936
7003.26399,0.66880
7001.33524,0.66761
6999.40650,0.66742
6997.47776,0.66650
6995.54902,0.66309
6993.62027,0.66028
6991.69153,0.66120
6989.76279,0.66305
6987.83405,0.66196
6985.90530,0.65953
6983.97656,0.65811
6982.04782,0.65722
6980.11908,0.65748
6978.19033,0.65994
6976.26159,0.66168
6974.33285,0.66005
6972.40411,0.65862
6970.47536,0.65945
6968.54662,0.65816
6966.61788,0.65486
6964.68914,0.65469
6962.76039,0.65690
6960.83165,0.65775
6958.90291,0.65729
6956.97417,0.65783
6955.04542,0.65977
6953.11668,0.66067
6951.18794,0.65965
6949.25920,0.65695
6947.33045,0.65259
6945.40171,0.64869
6943.47297,0.64669
6941.54423,0.64653
6939.61548,0.64797
6937.68674,0.64898
6935.75800,0.64708
6933.82926,0.64508
6931.90051,0.64750
6929.97177,0.65150
6928.04303,0.65280
6926.11429,0.65263
6924.18554,0.65287
6922.25680,0.65311
6920.32806,0.65154
6918.39932,0.64899
6916.47057,0.64791
6914.54183,0.64660
6912.61309,0.64367
6910.68435,0.64243
6908.75560,0.64473
6906.82686,0.64806
6904.89812,0.64964
6902.96938,0.64821
6901.04063,0.64443
6899.11189,0.64132
6897.18315,0.64239
6895.25441,0.64663
6893.32566,0.64824
6891.39692,0.64645
6889.46818,0.64583
6887.53944,0.64549
6885.61069,0.64346
6883.68195,0.64199
6881.75321,0.64121
6879.82447,0.63983
6877.89572,0.63853
6875.96698,0.63851
6874.03824,0.63925
6872.10950,0.63966
6870.18075,0.64097
6868.25201,0.64287
6866.32327,0.64345
6864.39453,0.64290
6862.46578,0.64090
6860.53704,0.63845
6858.60830,0.63838
6856.67956,0.63981
6854.75081,0.64076
6852.82207,0.64230
6850.89333,0.64428
6848.96459,0.64342
6847.03584,0.63986
6845.10710,0.63808
6843.17836,0.63906
6841.24962,0.63972
6839.32087,0.63882
6837.39213,0.63775
6835.46339,0.63829
6833.53465,0.64085
6831.60590,0.64375
6829.67716,0.64462
6827.74842,0.64274
6825.81968,0.63997
6823.89093,0.63813
6821.96219,0.63693
6820.03345,0.63615
6818.10471,0.63652
6816.17596,0.63739
6814.24722,0.63704
6812.31848,0.63577
6810.38974,0.63556
6808.46099,0.63603
6806.53225,0.63620
6804.60351,0.63704
6802.67477,0.63722
6800.74602,0.63538
6798.81728,0.63448
6796.88854,0.63522
6794.95980,0.63424
6793.03105,0.63214
6791.10231,0.63217
6789.17357,0.63278
6787.24483,0.63106
6785.31608,0.62888
6783.38734,0.62818
6781.45860,0.62828
6779.52986,0.62965
6777.60111,0.63245
6775.67237,0.63489
6773.74363,0.63588
6771.81489,0.63494
6769.88614,0.63213
6767.95740,0.62875
6766.02866,0.62646
6764.09992,0.62663
6762.17117,0.62862
6760.24243,0.63002
6758.31369,0.62970
6756.38495,0.62745
6754.45620,0.62419
6752.52746,0.62210
6750.59872,0.62244
6748.66998,0.62543
6746.74123,0.62887
6744.81249,0.62982
6742.88375,0.62995
6740.95501,0.63113
6739.02626,0.63086
6737.09752,0.62824
6735.16878,0.62561
6733.24004,0.62422
6731.31129,0.62394
6729.38255,0.62469
6727.45381,0.62677
6725.52507,0.62944
6723.59632,0.63012
6721.66758,0.62800
6719.73884,0.62586
6717.81010,0.62550
6715.88135,0.62553
6713.95261,0.62515
6712.02387,0.62516
6710.09513,0.62500
6708.16638,0.62371
6706.23764,0.62273
6704.30890,0.62389
6702.38016,0.62551
6700.45141,0.62525
6698.52267,0.62442
6696.59393,0.62411
6694.66519,0.62364
6692.73644,0.62417
6690.80770,0.62585
6688.87896,0.62663
6686.95022,0.62750
6685.02147,0.63045
6683.09273,0.63252
6681.16399,0.63042
6679.23525,0.62610
6677.30650,0.62250
6675.37776,0.62136
6673.44902,0.62277
6671.52028,0.62408
6669.59153,0.62434
6667.66279,0.62559
6665.73405,0.62771
6663.80531,0.62869
6661.87656,0.62935
6659.94782,0.63105
6658.01908,0.63176
6656.09034,0.63011
6654.16159,0.62847
6652.23285,0.62771
6650.30411,0.62592
6648.37537,0.62417
6646.44662,0.62511
6644.51788,0.62821
6642.58914,0.63083
6640.66040,0.63236
6638.73165,0.63354
6636.80291,0.63248
6634.87417,0.62956
6632.94543,0.62958
6631.01668,0.63327
6629.08794,0.63622
6627.15920,0.63510
6625.23046,0.63134
6623.30171,0.62962
6621.37297,0.63207
6619.44423,0.63570
6617.51549,0.63695
6615.58674,0.63611
6613.65800,0.63524
6611.72926,0.63511
6609.80052,0.63610
6607.87177,0.63865
6605.94303,0.64096
6604.01429,0.64012
6602.08555,0.63725
6600.15680,0.63644
6598.22806,0.63865
6596.29932,0.64160
6594.37058,0.64268
6592.44183,0.64072
6590.51309,0.63859
6588.58435,0.63942
6586.65561,0.64144
6584.72686,0.64176
6582.79812,0.64116
6580.86938,0.64244
6578.94064,0.64494
6577.01190,0.64625
6575.08315,0.64747
6573.15441,0.64863
6571.22567,0.64765
6569.29693,0.64611
6567.36818,0.64684
6565.43944,0.64907
6563.51070,0.64948
6561.58196,0.64800
6559.65321,0.64827
6557.72447,0.65053
6555.79573,0.65197
6553.86699,0.65173
6551.93824,0.64993
6550.00950,0.64762
6548.08076,0.64773
6546.15202,0.65065
6544.22327,0.65199
6542.29453,0.65010
6540.36579,0.64871
6538.43705,0.64896
6536.50830,0.64918
6534.57956,0.64916
6532.65082,0.64933
6530.72208,0.65046
6528.79333,0.65279
6526.86459,0.65475
6524.93585,0.65430
6523.00711,0.65168
6521.07836,0.64966
6519.14962,0.64933
6517.22088,0.64982
6515.29214,0.65164
6513.36339,0.65382
6511.43465,0.65337
6509.50591,0.65185
6507.57717,0.65322
6505.64842,0.65637
6503.71968,0.65747
6501.79094,0.65638
6499.86220,0.65577
6497.93345,0.65562
6496.00471,0.65474
6494.07597,0.65450
6492.14723,0.65509
6490.21848,0.65501
6488.28974,0.65482
6486.36100,0.65618
6484.43226,0.65841
6482.50351,0.65879
6480.57477,0.65725
6478.64603,0.65568
6476.71729,0.65506
6474.78854,0.65568
6472.85980,0.65661
6470.93106,0.65778
6469.00232,0.66002
6467.07357,0.66144
6465.14483,0.65987
6463.21609,0.65695
6461.28735,0.65615
6459.35860,0.65830
6457.42986,0.66068
6455.50112,0.66038
6453.57238,0.65809
6451.64363,0.65713
6449.71489,0.65781
6447.78615,0.65824
6445.85741,0.65912
6443.92866,0.66051
6441.99992,0.66037
6440.07118,0.65963
6438.14244,0.66003
6436.21369,0.66054
6434.28495,0.66071
6432.35621,0.66102
6430.42747,0.66031
6428.49872,0.65837
6426.56998,0.65713
6424.64124,0.65675
6422.71250,0.65675
6420.78375,0.65774
6418.85501,0.65880
6416.92627,0.65892
6414.99753,0.65915
6413.06878,0.66068
6411.14004,0.66255
6409.21130,0.66290
6407.28256,0.66156
6405.35381,0.65954
6403.42507,0.65856
6401.49633,0.65920
6399.56759,0.65974
6397.63884,0.65932
6395.71010,0.65886
6393.78136,0.65931
6391.85262,0.66066
6389.92387,0.66218
6387.99513,0.66318
6386.06639,0.66312
6384.13765,0.66211
6382.20890,0.66168
6380.28016,0.66229
6378.35142,0.66244
6376.42268,0.66294
6374.49393,0.66517
6372.56519,0.66697
6370.63645,0.66667
6368.70771,0.66579
6366.77896,0.66580
6364.85022,0.66623
6362.92148,0.66649
6360.99274,0.66686
6359.06399,0.66705
6357.13525,0.66700
6355.20651,0.66756
6353.27777,0.66863
6351.34902,0.66932
6349.42028,0.66859
6347.49154,0.66642
6345.56280,0.66537
6343.63405,0.66635
6341.70531,0.66698
6339.77657,0.66727
6337.84783,0.66872
6335.91908,0.66984
6333.99034,0.66869
6332.06160,0.66690
6330.13286,0.66742
6328.20411,0.66912
6326.27537,0.66891
6324.34663,0.66700
6322.41789,0.66625
6320.48914,0.66834
6318.56040,0.67080
6316.63166,0.67030
6314.70292,0.66855
6312.77417,0.66831
6310.84543,0.66891
6308.91669,0.66942
6306.98795,0.66995
6305.05920,0.67139
6303.13046,0.67381
6301.20172,0.67505
6299.27298,0.67414
6297.34423,0.67276
6295.41549,0.67270
6293.48675,0.67398
6291.55801,0.67501
6289.62926,0.67478
6287.70052,0.67413
6285.77178,0.67443
6283.84304,0.67598
6281.91429,0.67769
6279.98555,0.67820
6278.05681,0.67765
6276.12807,0.67727
6274.19932,0.67808
6272.27058,0.68027
6270.34184,0.68210
6268.41310,0.68191
6266.48435,0.68044
6264.55561,0.67938
6262.62687,0.67930
6260.69813,0.68028
6258.76938,0.68201
6256.84064,0.68282
6254.91190,0.68287
6252.98316,0.68389
6251.05441,0.68553
6249.12567,0.68674
6247.19693,0.68774
6245.26819,0.68881
6243.33944,0.68884
6241.41070,0.68801
6239.48196,0.68808
6237.55322,0.68822
6235.62447,0.68730
6233.69573,0.68613
6231.76699,0.68538
6229.83825,0.68554
6227.90950,0.68697
6225.98076,0.68911
6224.05202,0.69096
6222.12328,0.69219
6220.19453,0.69258
6218.26579,0.69150
6216.33705,0.69027
6214.40831,0.69061
6212.47956,0.69035
6210.55082,0.68814
6208.62208,0.68701
6206.69334,0.68839
6204.76459,0.69044
6202.83585,0.69205
6200.90711,0.69355
6198.97837,0.69526
6197.04962,0.69747
6195.12088,0.69971
6193.19214,0.70058
6191.26340,0.70008
6189.33465,0.69978
6187.40591,0.70030
6185.47717,0.70119
6183.54843,0.70171
6181.61968,0.70175
6179.69094,0.70205
6177.76220,0.70220
6175.83346,0.70131
6173.90471,0.70075
6171.97597,0.70131
6170.04723,0.70187
6168.11849,0.70227
6166.18974,0.70288
6164.26100,0.70377
6162.33226,0.70494
6160.40352,0.70626
6158.47477,0.70690
6156.54603,0.70543
6154.61729,0.70285
6152.68855,0.70229
6150.75980,0.70417
6148.83106,0.70612
6146.90232,0.70697
6144.97358,0.70745
6143.04483,0.70795
6141.11609,0.70796
6139.18735,0.70726
6137.25861,0.70658
6135.32986,0.70715
6133.40112,0.70902
6131.47238,0.70994
6129.54364,0.70890
6127.61489,0.70793
6125.68615,0.70797
6123.75741,0.70805
6121.82867,0.70791
6119.89992,0.70797
6117.97118,0.70814
6116.04244,0.70850
6114.11370,0.70964
6112.18495,0.71106
6110.25621,0.71206
6108.32747,0.71305
6106.39873,0.71391
6104.46998,0.71386
6102.54124,0.71314
6100.61250,0.71261
6098.68376,0.71250
6096.75501,0.71286
6094.82627,0.71301
6092.89753,0.71216
6090.96879,0.71099
6089.04004,0.71029
6087.11130,0.71005
6085.18256,0.70999
6083.25382,0.71008
6081.32507,0.71034
6079.39633,0.70988
6077.46759,0.70877
6075.53885,0.70860
6073.61010,0.70933
6071.68136,0.70965
6069.75262,0.70911
6067.82388,0.70792
6065.89513,0.70689
6063.96639,0.70661
6062.03765,0.70621
6060.10891,0.70588
6058.18016,0.70684
6056.25142,0.70790
6054.32268,0.70774
6052.39394,0.70700
6050.46519,0.70653
6048.53645,0.70626
6046.60771,0.70576
6044.67897,0.70531
6042.75022,0.70496
6040.82148,0.70476
6038.89274,0.70533
6036.96400,0.70564
6035.03525,0.70418
6033.10651,0.70190
6031.17777,0.70096
6029.24903,0.70131
6027.32029,0.70153
6025.39154,0.70112
6023.46280,0.70011
6021.53406,0.69912
6019.60532,0.69843
6017.67657,0.69796
6015.74783,0.69844
6013.81909,0.69877
6011.89035,0.69708
6009.96160,0.69469
6008.03286,0.69374
6006.10412,0.69418
6004.17538,0.69478
6002.24663,0.69498
6000.31789,0.69559
5998.38915,0.69664
5996.46041,0.69696
5994.53166,0.69634
5992.60292,0.69505
5990.67418,0.69322
5988.74544,0.69128
5986.81669,0.68993
5984.88795,0.68992
5982.95921,0.69064
5981.03047,0.69096
5979.10172,0.69118
5977.17298,0.69108
5975.24424,0.68977
5973.31550,0.68803
5971.38675,0.68752
5969.45801,0.68814
5967.52927,0.68852
5965.60053,0.68845
5963.67178,0.68890
5961.74304,0.69007
5959.81430,0.69078
5957.88556,0.69028
5955.95681,0.68906
5954.02807,0.68788
5952.09933,0.68744
5950.17059,0.68795
5948.24184,0.68861
5946.31310,0.68840
5944.38436,0.68748
5942.45562,0.68715
5940.52687,0.68793
5938.59813,0.68888
5936.66939,0.68962
5934.74065,0.69043
5932.81190,0.69095
5930.88316,0.69092
5928.95442,0.69072
5927.02568,0.69050
5925.09693,0.68996
5923.16819,0.68925
5921.23945,0.68884
5919.31071,0.68904
5917.38196,0.68977
5915.45322,0.69033
5913.52448,0.69013
5911.59574,0.68914
5909.66699,0.68749
5907.73825,0.68573
5905.80951,0.68467
5903.88077,0.68429
5901.95202,0.68447
5900.02328,0.68541
5898.09454,0.68543
5896.16580,0.68372
5894.23705,0.68243
5892.30831,0.68201
5890.37957,0.68131
5888.45083,0.68077
5886.52208,0.68032
5884.59334,0.67959
5882.66460,0.67977
5880.73586,0.68058
5878.80711,0.68116
5876.87837,0.68207
5874.94963,0.68265
5873.02089,0.68224
5871.09214,0.68143
5869.16340,0.68052
5867.23466,0.67989
5865.30592,0.67963
5863.37717,0.67963
5861.44843,0.67947
5859.51969,0.67843
5857.59095,0.67713
5855.66220,0.67734
5853.73346,0.67915
5851.80472,0.68075
5849.87598,0.68103
5847.94723,0.68034
5846.01849,0.67960
5844.08975,0.67923
5842.16101,0.67874
5840.23226,0.67830
5838.30352,0.67900
5836.37478,0.68053
5834.44604,0.68075
5832.51729,0.67897
5830.58855,0.67743
5828.65981,0.67745
5826.73107,0.67788
5824.80232,0.67746
5822.87358,0.67611
5820.94484,0.67452
5819.01610,0.67283
5817.08735,0.67140
5815.15861,0.67143
5813.22987,0.67213
5811.30113,0.67229
5809.37238,0.67309
5807.44364,0.67452
5805.51490,0.67501
5803.58616,0.67503
5801.65741,0.67527
5799.72867,0.67520
5797.79993,0.67447
5795.87119,0.67367
5793.94244,0.67371
5792.01370,0.67442
5790.08496,0.67468
5788.15622,0.67405
5786.22747,0.67344
5784.29873,0.67374
5782.36999,0.67435
5780.44125,0.67470
5778.51250,0.67517
5776.58376,0.67590
5774.65502,0.67628
5772.72628,0.67541
5770.79753,0.67484
5768.86879,0.67612
5766.94005,0.67708
5765.01131,0.67682
5763.08256,0.67710
5761.15382,0.67817
5759.22508,0.67907
5757.29634,0.67953
5755.36759,0.68005
5753.43885,0.68053
5751.51011,0.68034
5749.58137,0.67989
5747.65262,0.67996
5745.72388,0.68027
5743.79514,0.68022
5741.86640,0.67975
5739.93765,0.67924
5738.00891,0.67898
5736.08017,0.67864
5734.15143,0.67825
5732.22268,0.67850
5730.29394,0.67934
5728.36520,0.68004
5726.43646,0.68037
5724.50771,0.68067
5722.57897,0.68059
5720.65023,0.68005
5718.72149,0.67986
5716.79274,0.67981
5714.86400,0.67961
5712.93526,0.67997
5711.00652,0.68070
5709.07777,0.68094
5707.14903,0.68101
5705.22029,0.68157
5703.29155,0.68205
5701.36280,0.68187
5699.43406,0.68129
5697.50532,0.68070
5695.57658,0.68061
5693.64783,0.68106
5691.71909,0.68113
5689.79035,0.68056
5687.86161,0.68044
5685.93286,0.68092
5684.00412,0.68096
5682.07538,0.68085
5680.14664,0.68144
5678.21789,0.68249
5676.28915,0.68285
5674.36041,0.68135
5672.43167,0.67940
5670.50292,0.67973
5668.57418,0.68102
5666.64544,0.68059
5664.71670,0.67957
5662.78795,0.67962
5660.85921,0.68008
5658.93047,0.68009
5657.00173,0.68012
5655.07298,0.68071
5653.14424,0.68152
5651.21550,0.68202
5649.28676,0.68183
5647.35801,0.68114
5645.42927,0.68082
5643.50053,0.68101
5641.57179,0.68159
5639.64304,0.68306
5637.71430,0.68427
5635.78556,0.68381
5633.85682,0.68296
5631.92807,0.68277
5629.99933,0.68260
5628.07059,0.68275
5626.14185,0.68345
5624.21310,0.68330
5622.28436,0.68173
5620.35562,0.68034
5618.42688,0.68049
5616.49813,0.68132
5614.56939,0.68126
5612.64065,0.68042
5610.71191,0.67975
5608.78316,0.67962
5606.85442,0.67983
5604.92568,0.67999
5602.99694,0.68065
5601.06819,0.68194
5599.13945,0.68259
5597.21071,0.68230
5595.28197,0.68163
5593.35322,0.68097
5591.42448,0.68062
5589.49574,0.68074
5587.56700,0.68175
5585.63825,0.68341
5583.70951,0.68437
5581.78077,0.68391
5579.85203,0.68291
5577.92328,0.68277
5575.99454,0.68358
5574.06580,0.68413
5572.13706,0.68398
5570.20831,0.68382
5568.27957,0.68344
5566.35083,0.68273
5564.42209,0.68269
5562.49334,0.68301
5560.56460,0.68308
5558.63586,0.68338
5556.70712,0.68363
5554.77837,0.68385
5552.84963,0.68457
5550.92089,0.68470
5548.99215,0.68375
5547.06340,0.68314
5545.13466,0.68323
5543.20592,0.68336
5541.27718,0.68393
5539.34843,0.68472
5537.41969,0.68455
5535.49095,0.68424
5533.56221,0.68503
5531.63346,0.68611
5529.70472,0.68700
5527.77598,0.68740
5525.84724,0.68668
5523.91849,0.68608
5521.98975,0.68658
5520.06101,0.68717
5518.13227,0.68775
5516.20352,0.68860
5514.27478,0.68874
5512.34604,0.68783
5510.41730,0.68666
5508.48855,0.68600
5506.55981,0.68604
5504.63107,0.68615
5502.70233,0.68582
5500.77358,0.68588
5498.84484,0.68697
5496.91610,0.68806
5494.98736,0.68811
5493.05861,0.68748
5491.12987,0.68732
5489.20113,0.68785
5487.27239,0.68808
5485.34365,0.68759
5483.41490,0.68700
5481.48616,0.68728
5479.55742,0.68825
5477.62868,0.68902
5475.69993,0.68996
5473.77119,0.69046
5471.84245,0.68947
5469.91371,0.68867
5467.98496,0.68958
5466.05622,0.69099
5464.12748,0.69163
5462.19874,0.69150
5460.26999,0.69081
5458.34125,0.69014
5456.41251,0.69019
5454.48377,0.69080
5452.55502,0.69145
5450.62628,0.69198
5448.69754,0.69231
5446.76880,0.69251
5444.84005,0.69284
5442.91131,0.69308
5440.98257,0.69300
5439.05383,0.69322
5437.12508,0.69387
5435.19634,0.69411
5433.26760,0.69387
5431.33886,0.69383
5429.41011,0.69403
5427.48137,0.69437
5425.55263,0.69498
5423.62389,0.69592
5421.69514,0.69721
5419.76640,0.69818
5417.83766,0.69819
5415.90892,0.69789
5413.98017,0.69799
5412.05143,0.69797
5410.12269,0.69735
5408.19395,0.69719
5406.26520,0.69816
5404.33646,0.69958
5402.40772,0.70056
5400.47898,0.70025
5398.55023,0.69896
5396.62149,0.69852
5394.69275,0.69953
5392.76401,0.70048
5390.83526,0.70049
5388.90652,0.69989
5386.97778,0.69914
5385.04904,0.69911
5383.12029,0.69996
5381.19155,0.70041
5379.26281,0.69982
5377.33407,0.69909
5375.40532,0.69905
5373.47658,0.69908
5371.54784,0.69872
5369.61910,0.69868
5367.69035,0.69903
5365.76161,0.69896
5363.83287,0.69891
5361.90413,0.69973
5359.97538,0.70057
5358.04664,0.70039
5356.11790,0.69968
5354.18916,0.69880
5352.26041,0.69787
5350.33167,0.69740
5348.40293,0.69694
5346.47419,0.69612
5344.54544,0.69566
5342.61670,0.69548
5340.68796,0.69550
5338.75922,0.69630
5336.83047,0.69692
5334.90173,0.69644
5332.97299,0.69571
5331.04425,0.69543
5329.11550,0.69527
5327.18676,0.69500
5325.25802,0.69455
5323.32928,0.69365
5321.40053,0.69227
5319.47179,0.69078
5317.54305,0.68925
5315.61431,0.68811
5313.68556,0.68802
5311.75682,0.68764
5309.82808,0.68553
5307.89934,0.68288
5305.97059,0.68126
5304.04185,0.68047
5302.11311,0.67948
5300.18437,0.67805
5298.25562,0.67642
5296.32688,0.67415
5294.39814,0.67156
5292.46940,0.66972
5290.54065,0.66825
5288.61191,0.66633
5286.68317,0.66393
5284.75443,0.66134
5282.82568,0.65904
5280.89694,0.65682
5278.96820,0.65389
5277.03946,0.65068
5275.11071,0.64821
5273.18197,0.64599
5271.25323,0.64312
5269.32449,0.63963
5267.39574,0.63624
5265.46700,0.63349
5263.53826,0.63080
5261.60952,0.62770
5259.68077,0.62484
5257.75203,0.62236
5255.82329,0.61973
5253.89455,0.61683
5251.96580,0.61411
5250.03706,0.61175
5248.10832,0.60925
5246.17958,0.60665
5244.25083,0.60448
5242.32209,0.60258
5240.39335,0.60083
5238.46461,0.59932
5236.53586,0.59764
5234.60712,0.59567
5232.67838,0.59380
5230.74964,0.59209
5228.82089,0.59031
5226.89215,0.58858
5224.96341,0.58723
5223.03467,0.58589
5221.10592,0.58429
5219.17718,0.58334
5217.24844,0.58331
5215.31970,0.58316
5213.39095,0.58232
5211.46221,0.58132
5209.53347,0.58065
5207.60473,0.58018
5205.67598,0.57962
5203.74724,0.57881
5201.81850,0.57802
5199.88976,0.57771
5197.96101,0.57749
5196.03227,0.57685
5194.10353,0.57608
5192.17479,0.57590
5190.24604,0.57644
5188.31730,0.57667
5186.38856,0.57607
5184.45982,0.57539
5182.53107,0.57515
5180.60233,0.57508
5178.67359,0.57487
5176.74485,0.57477
5174.81610,0.57493
5172.88736,0.57527
5170.95862,0.57585
5169.02988,0.57637
5167.10113,0.57636
5165.17239,0.57612
5163.24365,0.57637
5161.31491,0.57719
5159.38616,0.57770
5157.45742,0.57738
5155.52868,0.57689
5153.59994,0.57730
5151.67119,0.57825
5149.74245,0.57863
5147.81371,0.57869
5145.88497,0.57892
5143.95622,0.57905
5142.02748,0.57912
5140.09874,0.57936
5138.17000,0.57981
5136.24125,0.58047
5134.31251,0.58090
5132.38377,0.58091
5130.45503,0.58114
5128.52628,0.58155
5126.59754,0.58120
5124.66880,0.58023
5122.74006,0.57974
5120.81131,0.57983
5118.88257,0.57965
5116.95383,0.57890
5115.02509,0.57801
5113.09634,0.57724
5111.16760,0.57675
5109.23886,0.57628
5107.31012,0.57522
5105.38137,0.57386
5103.45263,0.57249
5101.52389,0.57089
5099.59515,0.56957
5097.66640,0.56895
5095.73766,0.56845
5093.80892,0.56763
5091.88018,0.56689
5089.95143,0.56623
5088.02269,0.56510
5086.09395,0.56400
5084.16521,0.56390
5082.23646,0.56422
5080.30772,0.56368
5078.37898,0.56269
5076.45024,0.56233
5074.52149,0.56237
5072.59275,0.56257
5070.66401,0.56299
5068.73527,0.56308
5066.80652,0.56315
5064.87778,0.56405
5062.94904,0.56504
5061.02030,0.56535
5059.09155,0.56562
5057.16281,0.56649
5055.23407,0.56783
5053.30533,0.56917
5051.37658,0.57002
5049.44784,0.57035
5047.51910,0.57088
5045.59036,0.57191
5043.66161,0.57302
5041.73287,0.57404
5039.80413,0.57466
5037.87539,0.57490
5035.94664,0.57573
5034.01790,0.57715
5032.08916,0.57812
5030.16042,0.57834
5028.23167,0.57870
5026.30293,0.57956
5024.37419,0.58009
5022.44545,0.58030
5020.51670,0.58102
5018.58796,0.58217
5016.65922,0.58322
5014.73048,0.58381
5012.80173,0.58389
5010.87299,0.58376
5008.94425,0.58390
5007.01551,0.58458
5005.08676,0.58557
5003.15802,0.58596
5001.22928,0.58547
4999.30054,0.58513
4997.37179,0.58557
4995.44305,0.58633
4993.51431,0.58692
4991.58557,0.58731
4989.65682,0.58772
4987.72808,0.58814
4985.79934,0.58810
4983.87060,0.58725
4981.94185,0.58609
4980.01311,0.58524
4978.08437,0.58472
4976.15563,0.58432
4974.22688,0.58378
4972.29814,0.58296
4970.36940,0.58213
4968.44066,0.58155
4966.51191,0.58119
4964.58317,0.58050
4962.65443,0.57920
4960.72569,0.57791
4958.79694,0.57687
4956.86820,0.57551
4954.93946,0.57369
4953.01072,0.57183
4951.08197,0.57040
4949.15323,0.56959
4947.22449,0.56879
4945.29575,0.56734
4943.36700,0.56559
4941.43826,0.56376
4939.50952,0.56195
4937.58078,0.56052
4935.65204,0.55952
4933.72329,0.55873
4931.79455,0.55768
4929.86581,0.55618
4927.93707,0.55465
4926.00832,0.55318
4924.07958,0.55179
4922.15084,0.55075
4920.22210,0.55023
4918.29335,0.55001
4916.36461,0.54939
4914.43587,0.54813
4912.50713,0.54666
4910.57838,0.54514
4908.64964,0.54393
4906.72090,0.54350
4904.79216,0.54346
4902.86341,0.54309
4900.93467,0.54187
4899.00593,0.53990
4897.07719,0.53819
4895.14844,0.53722
4893.21970,0.53658
4891.29096,0.53589
4889.36222,0.53517
4887.43347,0.53451
4885.50473,0.53370
4883.57599,0.53261
4881.64725,0.53131
4879.71850,0.52995
4877.78976,0.52855
4875.86102,0.52700
4873.93228,0.52556
4872.00353,0.52490
4870.07479,0.52490
4868.14605,0.52435
4866.21731,0.52319
4864.28856,0.52219
4862.35982,0.52116
4860.43108,0.52014
4858.50234,0.51955
4856.57359,0.51885
4854.64485,0.51745
4852.71611,0.51587
4850.78737,0.51491
4848.85862,0.51437
4846.92988,0.51342
4845.00114,0.51179
4843.07240,0.51016
4841.14365,0.50905
4839.21491,0.50810
4837.28617,0.50706
4835.35743,0.50599
4833.42868,0.50490
4831.49994,0.50383
4829.57120,0.50301
4827.64246,0.50243
4825.71371,0.50148
4823.78497,0.49989
4821.85623,0.49827
4819.92749,0.49726
4817.99874,0.49692
4816.07000,0.49686
4814.14126,0.49660
4812.21252,0.49612
4810.28377,0.49580
4808.35503,0.49543
4806.42629,0.49474
4804.49755,0.49422
4802.56880,0.49402
4800.64006,0.49374
4798.71132,0.49337
4796.78258,0.49288
4794.85383,0.49243
4792.92509,0.49230
4790.99635,0.49220
4789.06761,0.49199
4787.13886,0.49215
4785.21012,0.49238
4783.28138,0.49184
4781.35264,0.49106
4779.42389,0.49083
4777.49515,0.49094
4775.56641,0.49116
4773.63767,0.49133
4771.70892,0.49105
4769.78018,0.49051
4767.85144,0.48989
4765.92270,0.48924
4763.99395,0.48898
4762.06521,0.48908
4760.13647,0.48917
4758.20773,0.48901
4756.27898,0.48844
4754.35024,0.48797
4752.42150,0.48808
4750.49276,0.48822
4748.56401,0.48806
4746.63527,0.48816
4744.70653,0.48859
4742.77779,0.48871
4740.84904,0.48833
4738.92030,0.48799
4736.99156,0.48799
4735.06282,0.48798
4733.13407,0.48792
4731.20533,0.48821
4729.27659,0.48872
4727.34785,0.48905
4725.41910,0.48903
4723.49036,0.48842
4721.56162,0.48766
4719.63288,0.48752
4717.70413,0.48783
4715.77539,0.48794
4713.84665,0.48774
4711.91791,0.48772
4709.98916,0.48822
4708.06042,0.48879
4706.13168,0.48903
4704.20294,0.48909
4702.27419,0.48882
4700.34545,0.48820
4698.41671,0.48803
4696.48797,0.48834
4694.55922,0.48832
4692.63048,0.48791
4690.70174,0.48760
4688.77300,0.48778
4686.84425,0.48854
4684.91551,0.48949
4682.98677,0.48986
4681.05803,0.48931
4679.12928,0.48853
4677.20054,0.48838
4675.27180,0.48859
4673.34306,0.48885
4671.41431,0.48934
4669.48557,0.48983
4667.55683,0.49000
4665.62809,0.49000
4663.69934,0.49015
4661.77060,0.49061
4659.84186,0.49100
4657.91312,0.49088
4655.98437,0.49054
4654.05563,0.49056
4652.12689,0.49105
4650.19815,0.49171
4648.26940,0.49226
4646.34066,0.49259
4644.41192,0.49279
4642.48318,0.49305
4640.55443,0.49341
4638.62569,0.49382
4636.69695,0.49441
4634.76821,0.49516
4632.83946,0.49570
4630.91072,0.49586
4628.98198,0.49587
4627.05324,0.49616
4625.12449,0.49708
4623.19575,0.49839
4621.26701,0.49962
4619.33827,0.50064
4617.40952,0.50141
4615.48078,0.50203
4613.55204,0.50257
4611.62330,0.50302
4609.69455,0.50338
4607.76581,0.50362
4605.83707,0.50402
4603.90833,0.50478
4601.97958,0.50546
4600.05084,0.50593
4598.12210,0.50655
4596.19336,0.50714
4594.26461,0.50763
4592.33587,0.50825
4590.40713,0.50876
4588.47839,0.50909
4586.54964,0.50956
4584.62090,0.51014
4582.69216,0.51058
4580.76342,0.51087
4578.83467,0.51115
4576.90593,0.51169
4574.97719,0.51251
4573.04845,0.51317
4571.11970,0.51341
4569.19096,0.51333
4567.26222,0.51339
4565.33348,0.51386
4563.40473,0.51416
4561.47599,0.51389
4559.54725,0.51364
4557.61851,0.51366
4555.68976,0.51348
4553.76102,0.51327
4551.83228,0.51333
4549.90354,0.51339
4547.97479,0.51359
4546.04605,0.51435
4544.11731,0.51528
4542.18857,0.51553
4540.25982,0.51517
4538.33108,0.51497
4536.40234,0.51525
4534.47360,0.51572
4532.54485,0.51617
4530.61611,0.51662
4528.68737,0.51697
4526.75863,0.51699
4524.82988,0.51704
4522.90114,0.51736
4520.97240,0.51757
4519.04366,0.51768
4517.11491,0.51796
4515.18617,0.51795
4513.25743,0.51736
4511.32869,0.51676
4509.39994,0.51686
4507.47120,0.51748
4505.54246,0.51769
4503.61372,0.51727
4501.68497,0.51693
4499.75623,0.51680
4497.82749,0.51632
4495.89875,0.51548
4493.97000,0.51474
4492.04126,0.51437
4490.11252,0.51411
4488.18378,0.51346
4486.25503,0.51241
4484.32629,0.51133
4482.39755,0.51023
4480.46881,0.50872
4478.54006,0.50689
4476.61132,0.50534
4474.68258,0.50419
4472.75384,0.50280
4470.82509,0.50078
4468.89635,0.49851
4466.96761,0.49642
4465.03887,0.49455
4463.11012,0.49261
4461.18138,0.49045
4459.25264,0.48841
4457.32390,0.48649
4455.39515,0.48417
4453.46641,0.48170
4451.53767,0.47969
4449.60893,0.47787
4447.68018,0.47580
4445.75144,0.47385
4443.82270,0.47207
4441.89396,0.46995
4439.96521,0.46760
4438.03647,0.46523
4436.10773,0.46273
4434.17899,0.46029
4432.25024,0.45812
4430.32150,0.45607
4428.39276,0.45392
4426.46402,0.45151
4424.53527,0.44901
4422.60653,0.44700
4420.67779,0.44544
4418.74905,0.44380
4416.82030,0.44208
4414.89156,0.44030
4412.96282,0.43842
4411.03408,0.43686
4409.10533,0.43593
4407.17659,0.43542
4405.24785,0.43499
4403.31911,0.43440
4401.39036,0.43371
4399.46162,0.43322
4397.53288,0.43307
4395.60414,0.43325
4393.67539,0.43374
4391.74665,0.43428
4389.81791,0.43464
4387.88917,0.43505
4385.96043,0.43578
4384.03168,0.43650
4382.10294,0.43681
4380.17420,0.43712
4378.24546,0.43826
4376.31671,0.44016
4374.38797,0.44172
4372.45923,0.44264
4370.53049,0.44343
4368.60174,0.44439
4366.67300,0.44568
4364.74426,0.44694
4362.81552,0.44775
4360.88677,0.44843
4358.95803,0.44918
4357.02929,0.44975
4355.10055,0.45013
4353.17180,0.45046
4351.24306,0.45073
4349.31432,0.45091
4347.38558,0.45110
4345.45683,0.45134
4343.52809,0.45153
4341.59935,0.45144
4339.67061,0.45092
4337.74186,0.45036
4335.81312,0.45015
4333.88438,0.44987
4331.95564,0.44915
4330.02689,0.44838
4328.09815,0.44781
4326.16941,0.44723
4324.24067,0.44638
4322.31192,0.44534
4320.38318,0.44453
4318.45444,0.44429
4316.52570,0.44449
4314.59695,0.44459
4312.66821,0.44429
4310.73947,0.44378
4308.81073,0.44333
4306.88198,0.44282
4304.95324,0.44209
4303.02450,0.44127
4301.09576,0.44048
4299.16701,0.43962
4297.23827,0.43882
4295.30953,0.43823
4293.38079,0.43758
4291.45204,0.43673
4289.52330,0.43607
4287.59456,0.43582
4285.66582,0.43552
4283.73707,0.43491
4281.80833,0.43444
4279.87959,0.43443
4277.95085,0.43466
4276.02210,0.43485
4274.09336,0.43501
4272.16462,0.43534
4270.23588,0.43570
4268.30713,0.43585
4266.37839,0.43615
4264.44965,0.43696
4262.52091,0.43786
4260.59216,0.43847
4258.66342,0.43903
4256.73468,0.43948
4254.80594,0.43962
4252.87719,0.43974
4250.94845,0.44009
4249.01971,0.44060
4247.09097,0.44114
4245.16222,0.44157
4243.23348,0.44185
4241.30474,0.44211
4239.37600,0.44231
4237.44725,0.44235
4235.51851,0.44259
4233.58977,0.44325
4231.66103,0.44374
4229.73228,0.44377
4227.80354,0.44369
4225.87480,0.44360
4223.94606,0.44347
4222.01731,0.44362
4220.08857,0.44411
4218.15983,0.44429
4216.23109,0.44382
4214.30234,0.44328
4212.37360,0.44326
4210.44486,0.44374
4208.51612,0.44418
4206.58737,0.44406
4204.65863,0.44365
4202.72989,0.44353
4200.80115,0.44371
4198.87240,0.44398
4196.94366,0.44427
4195.01492,0.44452
4193.08618,0.44476
4191.15743,0.44501
4189.22869,0.44496
4187.29995,0.44462
4185.37121,0.44451
4183.44246,0.44504
4181.51372,0.44595
4179.58498,0.44672
4177.65624,0.44726
4175.72749,0.44778
4173.79875,0.44836
4171.87001,0.44886
4169.94127,0.44937
4168.01252,0.45007
4166.08378,0.45070
4164.15504,0.45119
4162.22630,0.45180
4160.29755,0.45230
4158.36881,0.45235
4156.44007,0.45207
4154.51133,0.45171
4152.58258,0.45135
4150.65384,0.45088
4148.72510,0.45039
4146.79636,0.45002
4144.86761,0.44939
4142.93887,0.44830
4141.01013,0.44722
4139.08139,0.44648
4137.15264,0.44587
4135.22390,0.44508
4133.29516,0.44393
4131.36642,0.44266
4129.43767,0.44153
4127.50893,0.44035
4125.58019,0.43911
4123.65145,0.43812
4121.72270,0.43719
4119.79396,0.43601
4117.86522,0.43471
4115.93648,0.43332
4114.00773,0.43188
4112.07899,0.43055
4110.15025,0.42912
4108.22151,0.42749
4106.29276,0.42592
4104.36402,0.42446
4102.43528,0.42294
4100.50654,0.42134
4098.57779,0.41966
4096.64905,0.41792
4094.72031,0.41622
4092.79157,0.41466
4090.86282,0.41326
4088.93408,0.41184
4087.00534,0.41025
4085.07660,0.40848
4083.14785,0.40657
4081.21911,0.40467
4079.29037,0.40290
4077.36163,0.40144
4075.43288,0.40012
4073.50414,0.39842
4071.57540,0.39625
4069.64666,0.39395
4067.71791,0.39189
4065.78917,0.39014
4063.86043,0.38834
4061.93169,0.38629
4060.00294,0.38445
4058.07420,0.38293
4056.14546,0.38120
4054.21672,0.37919
4052.28797,0.37727
4050.35923,0.37552
4048.43049,0.37378
4046.50175,0.37202
4044.57300,0.37029
4042.64426,0.36867
4040.71552,0.36731
4038.78678,0.36602
4036.85803,0.36453
4034.92929,0.36324
4033.00055,0.36233
4031.07181,0.36124
4029.14306,0.35982
4027.21432,0.35855
4025.28558,0.35771
4023.35684,0.35724
4021.42809,0.35689
4019.49935,0.35637
4017.57061,0.35591
4015.64187,0.35576
4013.71312,0.35579
4011.78438,0.35572
4009.85564,0.35571
4007.92690,0.35602
4005.99815,0.35630
4004.06941,0.35644
4002.14067,0.35678
4000.21193,0.35735
3998.28318,0.35788
3996.35444,0.35840
3994.42570,0.35905
3992.49696,0.35970
3990.56821,0.36013
3988.63947,0.36061
3986.71073,0.36123
3984.78199,0.36169
3982.85324,0.36209
3980.92450,0.36268
3978.99576,0.36330
3977.06702,0.36389
3975.13827,0.36455
3973.20953,0.36525
3971.28079,0.36602
3969.35205,0.36710
3967.42330,0.36836
3965.49456,0.36935
3963.56582,0.37001
3961.63708,0.37063
3959.70833,0.37141
3957.77959,0.37206
3955.85085,0.37259
3953.92211,0.37345
3951.99336,0.37455
3950.06462,0.37561
3948.13588,0.37682
3946.20714,0.37813
3944.27839,0.37916
3942.34965,0.37999
3940.42091,0.38093
3938.49217,0.38189
3936.56342,0.38267
3934.63468,0.38320
3932.70594,0.38367
3930.77720,0.38438
3928.84845,0.38525
3926.91971,0.38616
3924.99097,0.38719
3923.06223,0.38833
3921.13348,0.38932
3919.20474,0.39017
3917.27600,0.39102
3915.34726,0.39193
3913.41851,0.39282
3911.48977,0.39371
3909.56103,0.39449
3907.63229,0.39504
3905.70354,0.39544
3903.77480,0.39600
3901.84606,0.39685
3899.91732,0.39761
3897.98857,0.39814
3896.05983,0.39899
3894.13109,0.40023
3892.20235,0.40122
3890.27360,0.40175
3888.34486,0.40240
3886.41612,0.40357
3884.48738,0.40480
3882.55863,0.40538
3880.62989,0.40543
3878.70115,0.40570
3876.77241,0.40646
3874.84366,0.40755
3872.91492,0.40871
3870.98618,0.40961
3869.05744,0.41030
3867.12869,0.41118
3865.19995,0.41224
3863.27121,0.41329
3861.34247,0.41427
3859.41372,0.41539
3857.48498,0.41673
3855.55624,0.41794
3853.62750,0.41891
3851.69875,0.42002
3849.77001,0.42136
3847.84127,0.42271
3845.91253,0.42370
3843.98378,0.42441
3842.05504,0.42529
3840.12630,0.42622
3838.19756,0.42730
3836.26882,0.42846
3834.34007,0.42907
3832.41133,0.42929
3830.48259,0.42964
3828.55385,0.43006
3826.62510,0.43039
3824.69636,0.43069
3822.76762,0.43099
3820.83888,0.43136
3818.91013,0.43208
3816.98139,0.43278
3815.05265,0.43292
3813.12391,0.43305
3811.19516,0.43365
3809.26642,0.43410
3807.33768,0.43413
3805.40894,0.43408
3803.48019,0.43390
3801.55145,0.43363
3799.62271,0.43368
3797.69397,0.43405
3795.76522,0.43445
3793.83648,0.43468
3791.90774,0.43461
3789.97900,0.43444
3788.05025,0.43450
3786.12151,0.43468
3784.19277,0.43475
3782.26403,0.43461
3780.33528,0.43428
3778.40654,0.43397
3776.47780,0.43386
3774.54906,0.43392
3772.62031,0.43403
3770.69157,0.43393
3768.76283,0.43341
3766.83409,0.43265
3764.90534,0.43179
3762.97660,0.43101
3761.04786,0.43055
3759.11912,0.43023
3757.19037,0.42983
3755.26163,0.42930
3753.33289,0.42866
3751.40415,0.42812
3749.47540,0.42780
3747.54666,0.42738
3745.61792,0.42659
3743.68918,0.42551
3741.76043,0.42453
3739.83169,0.42374
3737.90295,0.42302
3735.97421,0.42221
3734.04546,0.42105
3732.11672,0.41960
3730.18798,0.41822
3728.25924,0.41698
3726.33049,0.41562
3724.40175,0.41395
3722.47301,0.41207
3720.54427,0.41018
3718.61552,0.40840
3716.68678,0.40664
3714.75804,0.40474
3712.82930,0.40270
3710.90055,0.40047
3708.97181,0.39802
3707.04307,0.39559
3705.11433,0.39321
3703.18558,0.39054
3701.25684,0.38727
3699.32810,0.38359
3697.39936,0.37996
3695.47061,0.37648
3693.54187,0.37291
3691.61313,0.36899
3689.68439,0.36441
3687.75564,0.35917
3685.82690,0.35406
3683.89816,0.34913
3681.96942,0.34399
3680.04067,0.33870
3678.11193,0.33295
3676.18319,0.32601
3674.25445,0.31888
3672.32570,0.31265
3670.39696,0.30589
3668.46822,0.29852
3666.53948,0.29194
3664.61073,0.28572
3662.68199,0.27916
3660.75325,0.27252
3658.82451,0.26624
3656.89576,0.26008
3654.96702,0.25387
3653.03828,0.24810
3651.10954,0.24235
3649.18079,0.23591
3647.25205,0.22965
3645.32331,0.22462
3643.39457,0.22030
3641.46582,0.21572
3639.53708,0.21080
3637.60834,0.20592
3635.67960,0.20122
3633.75085,0.19694
3631.82211,0.19313
3629.89337,0.18882
3627.96463,0.18367
3626.03588,0.17918
3624.10714,0.17576
3622.17840,0.17239
3620.24966,0.16839
3618.32091,0.16411
3616.39217,0.16004
3614.46343,0.15607
3612.53469,0.15225
3610.60594,0.14862
3608.67720,0.14501
3606.74846,0.14145
3604.81972,0.13787
3602.89097,0.13417
3600.96223,0.13070
3599.03349,0.12768
3597.10475,0.12449
3595.17600,0.12080
3593.24726,0.11732
3591.31852,0.11461
3589.38978,0.11232
3587.46103,0.10987
3585.53229,0.10732
3583.60355,0.10499
3581.67481,0.10269
3579.74606,0.10021
3577.81732,0.09779
3575.88858,0.09560
3573.95984,0.09364
3572.03109,0.09202
3570.10235,0.09073
3568.17361,0.08923
3566.24487,0.08724
3564.31612,0.08528
3562.38738,0.08358
3560.45864,0.08203
3558.52990,0.08053
3556.60115,0.07896
3554.67241,0.07735
3552.74367,0.07584
3550.81493,0.07447
3548.88618,0.07315
3546.95744,0.07175
3545.02870,0.07041
3543.09996,0.06944
3541.17121,0.06882
3539.24247,0.06819
3537.31373,0.06722
3535.38499,0.06599
3533.45624,0.06467
3531.52750,0.06337
3529.59876,0.06243
3527.67002,0.06179
3525.74127,0.06089
3523.81253,0.05971
3521.88379,0.05878
3519.95505,0.05830
3518.02630,0.05776
3516.09756,0.05671
3514.16882,0.05549
3512.24008,0.05460
3510.31133,0.05393
3508.38259,0.05303
3506.45385,0.05209
3504.52511,0.05164
3502.59636,0.05142
3500.66762,0.05090
3498.73888,0.05026
3496.81014,0.04968
3494.88139,0.04914
3492.95265,0.04870
3491.02391,0.04831
3489.09517,0.04791
3487.16642,0.04746
3485.23768,0.04700
3483.30894,0.04654
3481.38020,0.04591
3479.45145,0.04519
3477.52271,0.04475
3475.59397,0.04459
3473.66523,0.04445
3471.73648,0.04425
3469.80774,0.04396
3467.87900,0.04361
3465.95026,0.04337
3464.02151,0.04333
3462.09277,0.04340
3460.16403,0.04318
3458.23529,0.04256
3456.30654,0.04202
3454.37780,0.04178
3452.44906,0.04182
3450.52032,0.04206
3448.59157,0.04221
3446.66283,0.04211
3444.73409,0.04193
3442.80535,0.04178
3440.87660,0.04164
3438.94786,0.04143
3437.01912,0.04094
3435.09038,0.04046
3433.16163,0.04053
3431.23289,0.04093
3429.30415,0.04109
3427.37541,0.04099
3425.44666,0.04075
3423.51792,0.04040
3421.58918,0.04016
3419.66044,0.04024
3417.73169,0.04056
3415.80295,0.04079
3413.87421,0.04083
3411.94547,0.04095
3410.01672,0.04138
3408.08798,0.04170
3406.15924,0.04140
3404.23050,0.04078
3402.30175,0.04046
3400.37301,0.04044
3398.44427,0.04061
3396.51553,0.04086
3394.58678,0.04103
3392.65804,0.04097
3390.72930,0.04071
3388.80056,0.04040
3386.87181,0.04017
3384.94307,0.04015
3383.01433,0.04035
3381.08559,0.04058
3379.15684,0.04073
3377.22810,0.04070
3375.29936,0.04043
3373.37062,0.04010
3371.44187,0.03990
3369.51313,0.03993
3367.58439,0.04028
3365.65565,0.04069
3363.72690,0.04090
3361.79816,0.04102
3359.86942,0.04112
3357.94068,0.04100
3356.01193,0.04081
3354.08319,0.04102
3352.15445,0.04154
3350.22571,0.04205
3348.29696,0.04249
3346.36822,0.04283
3344.43948,0.04287
3342.51074,0.04285
3340.58199,0.04304
3338.65325,0.04322
3336.72451,0.04324
3334.79577,0.04332
3332.86702,0.04348
3330.93828,0.04382
3329.00954,0.04442
3327.08080,0.04495
3325.15205,0.04516
3323.22331,0.04534
3321.29457,0.04563
3319.36583,0.04584
3317.43708,0.04601
3315.50834,0.04627
3313.57960,0.04653
3311.65086,0.04680
3309.72211,0.04709
3307.79337,0.04734
3305.86463,0.04753
3303.93589,0.04767
3302.00714,0.04785
3300.07840,0.04810
3298.14966,0.04818
3296.22092,0.04809
3294.29217,0.04834
3292.36343,0.04877
3290.43469,0.04884
3288.50595,0.04890
3286.57721,0.04940
3284.64846,0.05001
3282.71972,0.05032
3280.79098,0.05043
3278.86224,0.05066
3276.93349,0.05106
3275.00475,0.05140
3273.07601,0.05166
3271.14727,0.05175
3269.21852,0.05169
3267.28978,0.05203
3265.36104,0.05300
3263.43230,0.05402
3261.50355,0.05461
3259.57481,0.05483
3257.64607,0.05511
3255.71733,0.05568
3253.78858,0.05623
3251.85984,0.05630
3249.93110,0.05615
3248.00236,0.05649
3246.07361,0.05737
3244.14487,0.05820
3242.21613,0.05855
3240.28739,0.05857
3238.35864,0.05881
3236.42990,0.05935
3234.50116,0.05993
3232.57242,0.06042
3230.64367,0.06073
3228.71493,0.06098
3226.78619,0.06136
3224.85745,0.06172
3222.92870,0.06201
3220.99996,0.06253
3219.07122,0.06344
3217.14248,0.06439
3215.21373,0.06487
3213.28499,0.06482
3211.35625,0.06477
3209.42751,0.06517
3207.49876,0.06589
3205.57002,0.06654
3203.64128,0.06695
3201.71254,0.06719
3199.78379,0.06753
3197.85505,0.06824
3195.92631,0.06932
3193.99757,0.07028
3192.06882,0.07087
3190.14008,0.07136
3188.21134,0.07197
3186.28260,0.07258
3184.35385,0.07315
3182.42511,0.07377
3180.49637,0.07440
3178.56763,0.07506
3176.63888,0.07583
3174.71014,0.07661
3172.78140,0.07746
3170.85266,0.07833
3168.92391,0.07902
3166.99517,0.07974
3165.06643,0.08058
3163.13769,0.08133
3161.20894,0.08198
3159.28020,0.08266
3157.35146,0.08363
3155.42272,0.08467
3153.49397,0.08529
3151.56523,0.08579
3149.63649,0.08659
3147.70775,0.08745
3145.77900,0.08809
3143.85026,0.08849
3141.92152,0.08891
3139.99278,0.08952
3138.06403,0.09032
3136.13529,0.09124
3134.20655,0.09188
3132.27781,0.09220
3130.34906,0.09274
3128.42032,0.09358
3126.49158,0.09437
3124.56284,0.09498
3122.63409,0.09546
3120.70535,0.09580
3118.77661,0.09623
3116.84787,0.09690
3114.91912,0.09755
3112.99038,0.09804
3111.06164,0.09846
3109.13290,0.09890
3107.20415,0.09933
3105.27541,0.09987
3103.34667,0.10070
3101.41793,0.10167
3099.48918,0.10239
3097.56044,0.10286
3095.63170,0.10322
3093.70296,0.10345
3091.77421,0.10366
3089.84547,0.10405
3087.91673,0.10457
3085.98799,0.10506
3084.05924,0.10546
3082.13050,0.10580
3080.20176,0.10615
3078.27302,0.10649
3076.34427,0.10666
3074.41553,0.10673
3072.48679,0.10692
3070.55805,0.10719
3068.62930,0.10748
3066.70056,0.10788
3064.77182,0.10835
3062.84308,0.10878
3060.91433,0.10927
3058.98559,0.10997
3057.05685,0.11069
3055.12811,0.11108
3053.19936,0.11119
3051.27062,0.11149
3049.34188,0.11207
3047.41314,0.11260
3045.48439,0.11295
3043.55565,0.11337
3041.62691,0.11384
3039.69817,0.11410
3037.76942,0.11421
3035.84068,0.11438
3033.91194,0.11450
3031.98320,0.11445
3030.05445,0.11440
3028.12571,0.11433
3026.19697,0.11420
3024.26823,0.11406
3022.33948,0.11383
3020.41074,0.11342
3018.48200,0.11300
3016.55326,0.11265
3014.62451,0.11214
3012.69577,0.11150
3010.76703,0.11088
3008.83829,0.11010
3006.90954,0.10918
3004.98080,0.10835
3003.05206,0.10757
3001.12332,0.10666
2999.19457,0.10571
2997.26583,0.10505
2995.33709,0.10480
2993.40835,0.10465
2991.47960,0.10418
2989.55086,0.10328
2987.62212,0.10215
2985.69338,0.10090
2983.76463,0.09941
2981.83589,0.09760
2979.90715,0.09539
2977.97841,0.09297
2976.04966,0.09062
2974.12092,0.08825
2972.19218,0.08586
2970.26344,0.08377
2968.33469,0.08203
2966.40595,0.08063
2964.47721,0.07969
2962.54847,0.07877
2960.61972,0.07761
2958.69098,0.07673
2956.76224,0.07620
2954.83350,0.07548
2952.90475,0.07433
2950.97601,0.07299
2949.04727,0.07180
2947.11853,0.07070
2945.18978,0.06973
2943.26104,0.06908
2941.33230,0.06876
2939.40356,0.06862
2937.47481,0.06858
2935.54607,0.06862
2933.61733,0.06879
2931.68859,0.06909
2929.75984,0.06930
2927.83110,0.06921
2925.90236,0.06880
2923.97362,0.06826
2922.04487,0.06789
2920.11613,0.06781
2918.18739,0.06794
2916.25865,0.06830
2914.32990,0.06887
2912.40116,0.06943
2910.47242,0.06989
2908.54368,0.07011
2906.61493,0.07011
2904.68619,0.07037
2902.75745,0.07081
2900.82871,0.07107
2898.89996,0.07144
2896.97122,0.07211
2895.04248,0.07276
2893.11374,0.07330
2891.18499,0.07381
2889.25625,0.07422
2887.32751,0.07464
2885.39877,0.07508
2883.47002,0.07541
2881.54128,0.07574
2879.61254,0.07606
2877.68380,0.07628
2875.75505,0.07656
2873.82631,0.07692
2871.89757,0.07724
2869.96883,0.07761
2868.04008,0.07811
2866.11134,0.07873
2864.18260,0.07964
2862.25386,0.08069
2860.32511,0.08150
2858.39637,0.08200
2856.46763,0.08250
2854.53889,0.08300
2852.61014,0.08331
2850.68140,0.08374
2848.75266,0.08491
2846.82392,0.08675
2844.89517,0.08866
2842.96643,0.09044
2841.03769,0.09223
2839.10895,0.09422
2837.18020,0.09658
2835.25146,0.09913
2833.32272,0.10174
2831.39398,0.10448
2829.46523,0.10736
2827.53649,0.11018
2825.60775,0.11276
2823.67901,0.11514
2821.75026,0.11738
2819.82152,0.11945
2817.89278,0.12137
2815.96404,0.12329
2814.03529,0.12538
2812.10655,0.12761
2810.17781,0.12966
2808.24907,0.13134
2806.32032,0.13281
2804.39158,0.13422
2802.46284,0.13559
2800.53410,0.13685
2798.60535,0.13796
2796.67661,0.13893
2794.74787,0.13994
2792.81913,0.14112
2790.89038,0.14230
2788.96164,0.14331
2787.03290,0.14419
2785.10416,0.14504
2783.17541,0.14576
2781.24667,0.14625
2779.31793,0.14682
2777.38919,0.14768
2775.46044,0.14851
2773.53170,0.14900
2771.60296,0.14936
2769.67422,0.14990
2767.74547,0.15062
2765.81673,0.15117
2763.88799,0.15149
2761.95925,0.15181
2760.03050,0.15215
2758.10176,0.15255
2756.17302,0.15307
2754.24428,0.15348
2752.31553,0.15362
2750.38679,0.15361
2748.45805,0.15367
2746.52931,0.15386
2744.60056,0.15400
2742.67182,0.15407
2740.74308,0.15427
2738.81434,0.15452
2736.88560,0.15463
2734.95685,0.15481
2733.02811,0.15516
2731.09937,0.15558
2729.17063,0.15601
2727.24188,0.15640
2725.31314,0.15665
2723.38440,0.15697
2721.45566,0.15758
2719.52691,0.15825
2717.59817,0.15883
2715.66943,0.15964
2713.74069,0.16065
2711.81194,0.16157
2709.88320,0.16249
2707.95446,0.16351
2706.02572,0.16452
2704.09697,0.16550
2702.16823,0.16635
2700.23949,0.16692
2698.31075,0.16746
2696.38200,0.16827
2694.45326,0.16907
2692.52452,0.16977
2690.59578,0.17063
2688.66703,0.17162
2686.73829,0.17259
2684.80955,0.17352
2682.88081,0.17426
2680.95206,0.17480
2679.02332,0.17542
2677.09458,0.17631
2675.16584,0.17735
2673.23709,0.17809
2671.30835,0.17843
2669.37961,0.17879
2667.45087,0.17932
2665.52212,0.17995
2663.59338,0.18067
2661.66464,0.18130
2659.73590,0.18173
2657.80715,0.18212
2655.87841,0.18250
2653.94967,0.18283
2652.02093,0.18328
2650.09218,0.18391
2648.16344,0.18464
2646.23470,0.18531
2644.30596,0.18583
2642.37721,0.18640
2640.44847,0.18720
2638.51973,0.18808
2636.59099,0.18883
2634.66224,0.18944
2632.73350,0.19010
2630.80476,0.19098
2628.87602,0.19195
2626.94727,0.19281
2625.01853,0.19354
2623.08979,0.19420
2621.16105,0.19484
2619.23230,0.19552
2617.30356,0.19625
2615.37482,0.19690
2613.44608,0.19737
2611.51733,0.19773
2609.58859,0.19816
2607.65985,0.19870
2605.73111,0.19923
2603.80236,0.19981
2601.87362,0.20055
2599.94488,0.20129
2598.01614,0.20191
2596.08739,0.20244
2594.15865,0.20291
2592.22991,0.20339
2590.30117,0.20394
2588.37242,0.20451
2586.44368,0.20499
2584.51494,0.20536
2582.58620,0.20588
2580.65745,0.20673
2578.72871,0.20757
2576.79997,0.20804
2574.87123,0.20824
2572.94248,0.20851
2571.01374,0.20895
2569.08500,0.20932
2567.15626,0.20942
2565.22751,0.20953
2563.29877,0.20995
2561.37003,0.21050
2559.44129,0.21081
2557.51254,0.21091
2555.58380,0.21106
2553.65506,0.21138
2551.72632,0.21184
2549.79757,0.21232
2547.86883,0.21272
2545.94009,0.21297
2544.01135,0.21319
2542.08260,0.21360
2540.15386,0.21411
2538.22512,0.21442
2536.29638,0.21468
2534.36763,0.21525
2532.43889,0.21609
2530.51015,0.21697
2528.58141,0.21775
2526.65266,0.21841
2524.72392,0.21901
2522.79518,0.21962
2520.86644,0.22020
2518.93769,0.22089
2517.00895,0.22163
2515.08021,0.22225
2513.15147,0.22285
2511.22272,0.22362
2509.29398,0.22447
2507.36524,0.22525
2505.43650,0.22610
2503.50775,0.22716
2501.57901,0.22834
2499.65027,0.22951
2497.72153,0.23067
2495.79278,0.23181
2493.86404,0.23287
2491.93530,0.23381
2490.00656,0.23467
2488.07781,0.23551
2486.14907,0.23637
2484.22033,0.23729
2482.29159,0.23827
2480.36284,0.23917
2478.43410,0.24003
2476.50536,0.24086
2474.57662,0.24152
2472.64787,0.24203
2470.71913,0.24255
2468.79039,0.24312
2466.86165,0.24370
2464.93290,0.24429
2463.00416,0.24482
2461.07542,0.24531
2459.14668,0.24603
2457.21793,0.24696
2455.28919,0.24786
2453.36045,0.24864
2451.43171,0.24937
2449.50296,0.25016
2447.57422,0.25096
2445.64548,0.25172
2443.71674,0.25254
2441.78799,0.25341
2439.85925,0.25432
2437.93051,0.25537
2436.00177,0.25654
2434.07302,0.25766
2432.14428,0.25867
2430.21554,0.25957
2428.28680,0.26046
2426.35805,0.26148
2424.42931,0.26260
2422.50057,0.26382
2420.57183,0.26513
2418.64308,0.26635
2416.71434,0.26750
2414.78560,0.26869
2412.85686,0.27001
2410.92811,0.27142
2408.99937,0.27269
2407.07063,0.27385
2405.14189,0.27515
2403.21314,0.27656
2401.28440,0.27779
2399.35566,0.27885
2397.42692,0.27994
2395.49817,0.28106
2393.56943,0.28206
2391.64069,0.28295
2389.71195,0.28386
2387.78320,0.28483
2385.85446,0.28582
2383.92572,0.28674
2381.99698,0.28765
2380.06823,0.28879
2378.13949,0.29004
2376.21075,0.29105
2374.28201,0.29180
2372.35326,0.29251
2370.42452,0.29334
2368.49578,0.29428
2366.56704,0.29525
2364.63829,0.29607
2362.70955,0.29676
2360.78081,0.29757
2358.85207,0.29855
2356.92332,0.29950
2354.99458,0.30038
2353.06584,0.30110
2351.13710,0.30163
2349.20835,0.30216
2347.27961,0.30283
2345.35087,0.30362
2343.42213,0.30433
2341.49338,0.30488
2339.56464,0.30544
2337.63590,0.30600
2335.70716,0.30646
2333.77841,0.30691
2331.84967,0.30734
2329.92093,0.30775
2327.99219,0.30815
2326.06344,0.30849
2324.13470,0.30870
2322.20596,0.30899
2320.27722,0.30947
2318.34847,0.30980
2316.41973,0.30986
2314.49099,0.30997
2312.56225,0.31026
2310.63350,0.31043
2308.70476,0.31035
2306.77602,0.31019
2304.84728,0.31015
2302.91853,0.31012
2300.98979,0.30997
2299.06105,0.30992
2297.13231,0.31013
2295.20356,0.31032
2293.27482,0.31026
2291.34608,0.31009
2289.41734,0.31011
2287.48859,0.31034
2285.55985,0.31050
2283.63111,0.31050
2281.70237,0.31048
2279.77362,0.31044
2277.84488,0.31017
2275.91614,0.30961
2273.98740,0.30901
2272.05865,0.30853
2270.12991,0.30818
2268.20117,0.30788
2266.27243,0.30743
2264.34368,0.30673
2262.41494,0.30586
2260.48620,0.30497
2258.55746,0.30423
2256.62871,0.30369
2254.69997,0.30316
2252.77123,0.30252
2250.84249,0.30193
2248.91374,0.30137
2246.98500,0.30081
2245.05626,0.30048
2243.12752,0.30042
2241.19877,0.30040
2239.27003,0.30029
2237.34129,0.30009
2235.41255,0.29995
2233.48380,0.30005
2231.55506,0.30031
2229.62632,0.30061
2227.69758,0.30104
2225.76883,0.30159
2223.84009,0.30210
2221.91135,0.30246
2219.98261,0.30267
2218.05386,0.30280
2216.12512,0.30297
2214.19638,0.30313
2212.26764,0.30319
2210.33889,0.30321
2208.41015,0.30318
2206.48141,0.30293
2204.55267,0.30247
2202.62392,0.30194
2200.69518,0.30139
2198.76644,0.30076
2196.83770,0.29991
2194.90895,0.29891
2192.98021,0.29801
2191.05147,0.29707
2189.12273,0.29588
2187.19399,0.29464
2185.26524,0.29359
2183.33650,0.29253
2181.40776,0.29120
2179.47902,0.28970
2177.55027,0.28821
2175.62153,0.28677
2173.69279,0.28550
2171.76405,0.28437
2169.83530,0.28321
2167.90656,0.28199
2165.97782,0.28081
2164.04908,0.27964
2162.12033,0.27860
2160.19159,0.27783
2158.26285,0.27718
2156.33411,0.27657
2154.40536,0.27615
2152.47662,0.27587
2150.54788,0.27554
2148.61914,0.27511
2146.69039,0.27455
2144.76165,0.27398
2142.83291,0.27376
2140.90417,0.27385
2138.97542,0.27394
2137.04668,0.27391
2135.11794,0.27383
2133.18920,0.27384
2131.26045,0.27404
2129.33171,0.27428
2127.40297,0.27439
2125.47423,0.27461
2123.54548,0.27504
2121.61674,0.27550
2119.68800,0.27588
2117.75926,0.27623
2115.83051,0.27659
2113.90177,0.27700
2111.97303,0.27756
2110.04429,0.27823
2108.11554,0.27890
2106.18680,0.27956
2104.25806,0.28023
2102.32932,0.28081
2100.40057,0.28137
2098.47183,0.28194
2096.54309,0.28235
2094.61435,0.28263
2092.68560,0.28296
2090.75686,0.28338
2088.82812,0.28378
2086.89938,0.28395
2084.97063,0.28388
2083.04189,0.28383
2081.11315,0.28374
2079.18441,0.28332
2077.25566,0.28276
2075.32692,0.28228
2073.39818,0.28171
2071.46944,0.28114
2069.54069,0.28078
2067.61195,0.28042
2065.68321,0.27992
2063.75447,0.27958
2061.82572,0.27939
2059.89698,0.27917
2057.96824,0.27904
2056.03950,0.27912
2054.11075,0.27932
2052.18201,0.27950
2050.25327,0.27976
2048.32453,0.28020
2046.39578,0.28068
2044.46704,0.28116
2042.53830,0.28176
2040.60956,0.28248
2038.68081,0.28321
2036.75207,0.28404
2034.82333,0.28504
2032.89459,0.28598
2030.96584,0.28674
2029.03710,0.28764
2027.10836,0.28886
2025.17962,0.29029
2023.25087,0.29169
2021.32213,0.29291
2019.39339,0.29402
2017.46465,0.29516
2015.53590,0.29629
2013.60716,0.29726
2011.67842,0.29821
2009.74968,0.29931
2007.82093,0.30041
2005.89219,0.30131
2003.96345,0.30205
2002.03471,0.30277
2000.10596,0.30338
1998.17722,0.30385
1996.24848,0.30436
1994.31974,0.30498
1992.39099,0.30550
1990.46225,0.30581
1988.53351,0.30615
1986.60477,0.30666
1984.67602,0.30710
1982.74728,0.30737
1980.81854,0.30765
1978.88980,0.30791
1976.96105,0.30800
1975.03231,0.30797
1973.10357,0.30796
1971.17483,0.30789
1969.24608,0.30779
1967.31734,0.30781
1965.38860,0.30783
1963.45986,0.30774
1961.53111,0.30776
1959.60237,0.30796
1957.67363,0.30822
1955.74489,0.30847
1953.81614,0.30874
1951.88740,0.30915
1949.95866,0.30979
1948.02992,0.31054
1946.10117,0.31146
1944.17243,0.31255
1942.24369,0.31364
1940.31495,0.31483
1938.38620,0.31615
1936.45746,0.31745
1934.52872,0.31870
1932.59998,0.31997
1930.67123,0.32121
1928.74249,0.32234
1926.81375,0.32327
1924.88501,0.32401
1922.95626,0.32466
1921.02752,0.32525
1919.09878,0.32587
1917.17004,0.32661
1915.24129,0.32733
1913.31255,0.32777
1911.38381,0.32789
1909.45507,0.32783
1907.52632,0.32781
1905.59758,0.32797
1903.66884,0.32809
1901.74010,0.32793
1899.81135,0.32771
1897.88261,0.32766
1895.95387,0.32761
1894.02513,0.32742
1892.09638,0.32705
1890.16764,0.32652
1888.23890,0.32606
1886.31016,0.32570
1884.38141,0.32538
1882.45267,0.32517
1880.52393,0.32497
1878.59519,0.32453
1876.66644,0.32392
1874.73770,0.32335
1872.80896,0.32274
1870.88022,0.32206
1868.95147,0.32138
1867.02273,0.32073
1865.09399,0.32005
1863.16525,0.31931
1861.23650,0.31860
1859.30776,0.31799
1857.37902,0.31727
1855.45028,0.31629
1853.52153,0.31522
1851.59279,0.31419
1849.66405,0.31315
1847.73531,0.31206
1845.80656,0.31092
1843.87782,0.30969
1841.94908,0.30842
1840.02034,0.30715
1838.09159,0.30575
1836.16285,0.30424
1834.23411,0.30276
1832.30537,0.30140
1830.37662,0.29999
1828.44788,0.29836
1826.51914,0.29656
1824.59040,0.29457
1822.66165,0.29245
1820.73291,0.29041
1818.80417,0.28832
1816.87543,0.28603
1814.94668,0.28367
1813.01794,0.28126
1811.08920,0.27857
1809.16046,0.27564
1807.23171,0.27275
1805.30297,0.26985
1803.37423,0.26672
1801.44549,0.26324
1799.51674,0.25959
1797.58800,0.25609
1795.65926,0.25275
1793.73052,0.24908
1791.80177,0.24476
1789.87303,0.24029
1787.94429,0.23579
1786.01555,0.23078
1784.08680,0.22515
1782.15806,0.21906
1780.22932,0.21239
1778.30058,0.20514
1776.37183,0.19750
1774.44309,0.18893
1772.51435,0.17849
1770.58561,0.16705
1768.65686,0.15591
1766.72812,0.14494
1764.79938,0.13456
1762.87064,0.12486
1760.94189,0.11579
1759.01315,0.10818
1757.08441,0.10193
1755.15567,0.09678
1753.22692,0.09262
1751.29818,0.08902
1749.36944,0.08579
1747.44070,0.08311
1745.51195,0.08105
1743.58321,0.07964
1741.65447,0.07871
1739.72573,0.07813
1737.79698,0.07805
1735.86824,0.07852
1733.93950,0.07944
1732.01076,0.08070
1730.08201,0.08223
1728.15327,0.08405
1726.22453,0.08599
1724.29579,0.08781
1722.36704,0.08929
1720.43830,0.09038
1718.50956,0.09103
1716.58082,0.09126
1714.65207,0.09116
1712.72333,0.09065
1710.79459,0.08964
1708.86585,0.08824
1706.93710,0.08644
1705.00836,0.08426
1703.07962,0.08193
1701.15088,0.07904
1699.22213,0.07562
1697.29339,0.07242
1695.36465,0.06888
1693.43591,0.06523
1691.50716,0.06221
1689.57842,0.05952
1687.64968,0.05708
1685.72094,0.05477
1683.79219,0.05247
1681.86345,0.05056
1679.93471,0.04905
1678.00597,0.04783
1676.07722,0.04691
1674.14848,0.04626
1672.21974,0.04589
1670.29100,0.04578
1668.36225,0.04587
1666.43351,0.04628
1664.50477,0.04693
1662.57603,0.04757
1660.64728,0.04817
1658.71854,0.04887
1656.78980,0.04979
1654.86106,0.05075
1652.93231,0.05160
1651.00357,0.05255
1649.07483,0.05368
1647.14609,0.05474
1645.21735,0.05559
1643.28860,0.05627
1641.35986,0.05664
1639.43112,0.05670
1637.50238,0.05672
1635.57363,0.05673
1633.64489,0.05655
1631.71615,0.05632
1629.78741,0.05618
1627.85866,0.05604
1625.92992,0.05597
1624.00118,0.05595
1622.07244,0.05596
1620.14369,0.05614
1618.21495,0.05645
1616.28621,0.05672
1614.35747,0.05680
1612.42872,0.05683
1610.49998,0.05689
1608.57124,0.05683
1606.64250,0.05663
1604.71375,0.05637
1602.78501,0.05608
1600.85627,0.05590
1598.92753,0.05605
1596.99878,0.05644
1595.07004,0.05696
1593.14130,0.05785
1591.21256,0.05929
1589.28381,0.06128
1587.35507,0.06380
1585.42633,0.06681
1583.49759,0.06998
1581.56884,0.07303
1579.64010,0.07590
1577.71136,0.07862
1575.78262,0.08129
1573.85387,0.08363
1571.92513,0.08548
1569.99639,0.08700
1568.06765,0.08804
1566.13890,0.08848
1564.21016,0.08855
1562.28142,0.08840
1560.35268,0.08787
1558.42393,0.08683
1556.49519,0.08580
1554.56645,0.08508
1552.63771,0.08449
1550.70896,0.08385
1548.78022,0.08314
1546.85148,0.08251
1544.92274,0.08195
1542.99399,0.08122
1541.06525,0.08025
1539.13651,0.07917
1537.20777,0.07833
1535.27902,0.07771
1533.35028,0.07698
1531.42154,0.07582
1529.49280,0.07426
1527.56405,0.07230
1525.63531,0.06995
1523.70657,0.06728
1521.77783,0.06395
1519.84908,0.06030
1517.92034,0.05727
1515.99160,0.05499
1514.06286,0.05340
1512.13411,0.05254
1510.20537,0.05236
1508.27663,0.05265
1506.34789,0.05330
1504.41914,0.05424
1502.49040,0.05541
1500.56166,0.05692
1498.63292,0.05885
1496.70417,0.06100
1494.77543,0.06304
1492.84669,0.06473
1490.91795,0.06603
1488.98920,0.06675
1487.06046,0.06686
1485.13172,0.06654
1483.20298,0.06579
1481.27423,0.06446
1479.34549,0.06265
1477.41675,0.06054
1475.48801,0.05818
1473.55926,0.05535
1471.63052,0.05224
1469.70178,0.04990
1467.77304,0.04873
1465.84429,0.04832
1463.91555,0.04833
1461.98681,0.04863
1460.05807,0.04902
1458.12932,0.04919
1456.20058,0.04939
1454.27184,0.04994
1452.34310,0.05060
1450.41435,0.05129
1448.48561,0.05209
1446.55687,0.05292
1444.62813,0.05361
1442.69938,0.05404
1440.77064,0.05417
1438.84190,0.05389
1436.91316,0.05299
1434.98441,0.05181
1433.05567,0.05093
1431.12693,0.05038
1429.19819,0.05012
1427.26944,0.05018
1425.34070,0.05061
1423.41196,0.05138
1421.48322,0.05233
1419.55447,0.05345
1417.62573,0.05486
1415.69699,0.05637
1413.76825,0.05770
1411.83950,0.05871
1409.91076,0.05940
1407.98202,0.05982
1406.05328,0.06008
1404.12453,0.06027
1402.19579,0.06044
1400.26705,0.06052
1398.33831,0.06029
1396.40956,0.05962
1394.48082,0.05863
1392.55208,0.05753
1390.62334,0.05644
1388.69459,0.05520
1386.76585,0.05370
1384.83711,0.05223
1382.90837,0.05094
1380.97962,0.04985
1379.05088,0.04912
1377.12214,0.04880
1375.19340,0.04862
1373.26465,0.04866
1371.33591,0.04910
1369.40717,0.04969
1367.47843,0.05021
1365.54968,0.05079
1363.62094,0.05137
1361.69220,0.05175
1359.76346,0.05210
1357.83471,0.05259
1355.90597,0.05309
1353.97723,0.05344
1352.04849,0.05358
1350.11974,0.05355
1348.19100,0.05340
1346.26226,0.05310
1344.33352,0.05260
1342.40477,0.05185
1340.47603,0.05114
1338.54729,0.05085
1336.61855,0.05073
1334.68980,0.05045
1332.76106,0.05026
1330.83232,0.05042
1328.90358,0.05068
1326.97483,0.05083
1325.04609,0.05086
1323.11735,0.05098
1321.18861,0.05133
1319.25986,0.05180
1317.33112,0.05234
1315.40238,0.05305
1313.47364,0.05393
1311.54489,0.05481
1309.61615,0.05564
1307.68741,0.05643
1305.75867,0.05707
1303.82992,0.05750
1301.90118,0.05786
1299.97244,0.05805
1298.04370,0.05794
1296.11495,0.05758
1294.18621,0.05696
1292.25747,0.05604
1290.32873,0.05500
1288.39998,0.05405
1286.47124,0.05310
1284.54250,0.05201
1282.61376,0.05103
1280.68501,0.05038
1278.75627,0.04989
1276.82753,0.04939
1274.89879,0.04889
1272.97004,0.04838
1271.04130,0.04791
1269.11256,0.04770
1267.18382,0.04772
1265.25507,0.04774
1263.32633,0.04779
1261.39759,0.04786
1259.46885,0.04786
1257.54010,0.04788
1255.61136,0.04797
1253.68262,0.04798
1251.75388,0.04784
1249.82513,0.04761
1247.89639,0.04732
1245.96765,0.04711
1244.03891,0.04694
1242.11016,0.04668
1240.18142,0.04647
1238.25268,0.04635
1236.32394,0.04633
1234.39519,0.04659
1232.46645,0.04705
1230.53771,0.04745
1228.60897,0.04777
1226.68022,0.04804
1224.75148,0.04849
1222.82274,0.04910
1220.89400,0.04960
1218.96525,0.05011
1217.03651,0.05094
1215.10777,0.05190
1213.17903,0.05263
1211.25028,0.05290
1209.32154,0.05285
1207.39280,0.05292
1205.46406,0.05320
1203.53531,0.05332
1201.60657,0.05321
1199.67783,0.05309
1197.74909,0.05307
1195.82034,0.05319
1193.89160,0.05318
1191.96286,0.05261
1190.03412,0.05166
1188.10537,0.05071
1186.17663,0.04967
1184.24789,0.04836
1182.31915,0.04681
1180.39040,0.04516
1178.46166,0.04358
1176.53292,0.04209
1174.60418,0.04068
1172.67543,0.03973
1170.74669,0.03950
1168.81795,0.03980
1166.88921,0.04045
1164.96046,0.04138
1163.03172,0.04237
1161.10298,0.04326
1159.17424,0.04395
1157.24549,0.04461
1155.31675,0.04533
1153.38801,0.04578
1151.45927,0.04561
1149.53052,0.04507
1147.60178,0.04457
1145.67304,0.04397
1143.74430,0.04301
1141.81555,0.04195
1139.88681,0.04103
1137.95807,0.04000
1136.02933,0.03887
1134.10058,0.03801
1132.17184,0.03756
1130.24310,0.03763
1128.31436,0.03829
1126.38561,0.03906
1124.45687,0.03965
1122.52813,0.04016
1120.59939,0.04065
1118.67064,0.04102
1116.74190,0.04123
1114.81316,0.04158
1112.88442,0.04244
1110.95567,0.04340
1109.02693,0.04393
1107.09819,0.04443
1105.16945,0.04519
1103.24070,0.04564
1101.31196,0.04557
1099.38322,0.04537
1097.45448,0.04510
1095.52574,0.04456
1093.59699,0.04391
1091.66825,0.04348
1089.73951,0.04304
1087.81077,0.04239
1085.88202,0.04190
1083.95328,0.04181
1082.02454,0.04200
1080.09580,0.04245
1078.16705,0.04307
1076.23831,0.04367
1074.30957,0.04436
1072.38083,0.04532
1070.45208,0.04665
1068.52334,0.04837
1066.59460,0.05026
1064.66586,0.05207
1062.73711,0.05375
1060.80837,0.05553
1058.87963,0.05751
1056.95089,0.05937
1055.02214,0.06071
1053.09340,0.06139
1051.16466,0.06155
1049.23592,0.06142
1047.30717,0.06108
1045.37843,0.06060
1043.44969,0.06020
1041.52095,0.06023
1039.59220,0.06093
1037.66346,0.06239
1035.73472,0.06433
1033.80598,0.06610
1031.87723,0.06736
1029.94849,0.06829
1028.01975,0.06894
1026.09101,0.06925
1024.16226,0.06954
1022.23352,0.07020
1020.30478,0.07101
1018.37604,0.07164
1016.44729,0.07238
1014.51855,0.07336
1012.58981,0.07408
1010.66107,0.07454
1008.73232,0.07526
1006.80358,0.07599
1004.87484,0.07637
1002.94610,0.07695
1001.01735,0.07809
999.08861,0.07922
997.15987,0.07997
995.23113,0.08041
993.30238,0.08095
991.37364,0.08218
989.44490,0.08423
987.51616,0.08672
985.58741,0.08951
983.65867,0.09277
981.72993,0.09624
979.80119,0.09921
977.87244,0.10131
975.94370,0.10268
974.01496,0.10378
972.08622,0.10506
970.15747,0.10667
968.22873,0.10843
966.29999,0.11022
964.37125,0.11200
962.44250,0.11404
960.51376,0.11659
958.58502,0.11950
956.65628,0.12247
954.72753,0.12532
952.79879,0.12778
950.87005,0.12977
948.94131,0.13158
947.01256,0.13328
945.08382,0.13463
943.15508,0.13558
941.22634,0.13605
939.29759,0.13589
937.36885,0.13534
935.44011,0.13489
933.51137,0.13477
931.58262,0.13498
929.65388,0.13543
927.72514,0.13572
925.79640,0.13547
923.86765,0.13483
921.93891,0.13416
920.01017,0.13343
918.08143,0.13252
916.15268,0.13145
914.22394,0.13032
912.29520,0.12911
910.36646,0.12769
908.43771,0.12590
906.50897,0.12362
904.58023,0.12119
902.65149,0.11908
900.72274,0.11747
898.79400,0.11675
896.86526,0.11734
894.93652,0.11884
893.00777,0.12082
891.07903,0.12314
889.15029,0.12543
887.22155,0.12741
885.29280,0.12916
883.36406,0.13062
881.43532,0.13146
879.50658,0.13187
877.57783,0.13219
875.64909,0.13255
873.72035,0.13303
871.79161,0.13359
869.86286,0.13411
867.93412,0.13465
866.00538,0.13507
864.07664,0.13512
862.14789,0.13488
860.21915,0.13459
858.29041,0.13424
856.36167,0.13355
854.43292,0.13253
852.50418,0.13187
850.57544,0.13198
848.64670,0.13224
846.71795,0.13207
844.78921,0.13170
842.86047,0.13110
840.93173,0.12999
839.00298,0.12882
837.07424,0.12802
835.14550,0.12740
833.21676,0.12693
831.28801,0.12667
829.35927,0.12648
827.43053,0.12658
825.50179,0.12710
823.57304,0.12760
821.64430,0.12761
819.71556,0.12711
817.78682,0.12660
815.85807,0.12666
813.92933,0.12710
812.00059,0.12739
810.07185,0.12744
808.14310,0.12741
806.21436,0.12728
804.28562,0.12699
802.35688,0.12677
800.42813,0.12682
798.49939,0.12658
796.57065,0.12594
794.64191,0.12564
792.71316,0.12536
790.78442,0.12451
788.85568,0.12360
786.92694,0.12296
784.99819,0.12215
783.06945,0.12093
781.14071,0.11963
779.21197,0.11870
777.28322,0.11822
775.35448,0.11782
773.42574,0.11686
771.49700,0.11548
769.56825,0.11437
767.63951,0.11357
765.71077,0.11264
763.78203,0.11143
761.85328,0.11001
759.92454,0.10855
757.99580,0.10722
756.06706,0.10606
754.13831,0.10496
752.20957,0.10362
750.28083,0.10211
748.35209,0.10087
746.42334,0.10004
744.49460,0.09930
742.56586,0.09863
740.63712,0.09811
738.70837,0.09720
736.77963,0.09591
734.85089,0.09477
732.92215,0.09367
730.99340,0.09233
729.06466,0.09093
727.13592,0.08984
725.20718,0.08913
723.27843,0.08857
721.34969,0.08783
719.42095,0.08686
717.49221,0.08624
715.56346,0.08639
713.63472,0.08688
711.70598,0.08697
709.77724,0.08655
707.84849,0.08589
705.91975,0.08507
703.99101,0.08451
702.06227,0.08425
700.13352,0.08371
698.20478,0.08298
696.27604,0.08241
694.34730,0.08199
692.41855,0.08170
690.48981,0.08142
688.56107,0.08082
686.63233,0.07988
684.70358,0.07884
682.77484,0.07773
680.84610,0.07654
678.91736,0.07540
676.98861,0.07420
675.05987,0.07313
673.13113,0.07261
671.20239,0.07217
669.27364,0.07146
667.34490,0.07099
665.41616,0.07114
663.48742,0.07220
661.55867,0.07342
659.62993,0.07366
657.70119,0.07329
655.77245,0.07296
653.84370,0.07276
651.91496,0.07283
649.98622,0.07302
648.05748,0.07303
646.12873,0.07285
644.19999,0.07232
642.27125,0.07134
640.34251,0.07045
638.41376,0.07000
636.48502,0.06934
634.55628,0.06816
632.62754,0.06733
630.69879,0.06725
628.77005,0.06704
626.84131,0.06655
624.91257,0.06681
622.98382,0.06736
621.05508,0.06665
619.12634,0.06555
617.19760,0.06596
615.26885,0.06718
613.34011,0.06750
611.41137,0.06730
609.48263,0.06734
607.55388,0.06699
605.62514,0.06684
603.69640,0.06755
601.76766,0.06814
599.83891,0.06841
