##Temp./°C,Time/min,Mass(subtr.2)/%,DSC(subtr.2)/(mW/mg),Sensit./(uV/mW)
49.3,10.00917,100.22274,0.0015624839999999998,1.07447
49.4,10.42098,100.22285,0.004132874,1.07446
49.5,10.5216,100.21343,0.006822467,1.07446
49.6,10.589310000000001,100.21466,0.01163839,1.07445
49.7,10.64408,100.21891,0.01573155,1.07444
49.8,10.69137,100.24061,0.01872432,1.07444
49.9,10.73291,100.23833,0.02240608,1.07443
50.0,10.77052,100.23725999999999,0.02528251,1.0744200000000002
50.1,10.804860000000001,100.20251999999999,0.02903129,1.07441
50.2,10.836730000000001,100.20136,0.0329712,1.07441
50.3,10.86646,100.20963,0.03515823,1.0744
50.4,10.89412,100.19895,0.03853406,1.07439
50.5,10.92078,100.206,0.03864628,1.07439
50.6,10.94635,100.20866,0.04262078,1.07438
50.7,10.97058,100.23289,0.0484811,1.07437
50.8,10.994010000000001,100.23573,0.0492971,1.07437
50.9,11.01655,100.24908,0.04973809,1.07436
51.0,11.03862,100.25398,0.05204996,1.07435
51.1,11.05998,100.24497,0.05446605,1.07434
51.2,11.08105,100.25474,0.05784487,1.07434
51.3,11.10149,100.25471999999999,0.05941214,1.07433
51.4,11.121210000000001,100.24929,0.06122995,1.0743200000000002
51.5,11.140360000000001,100.2431,0.06484458,1.07431
51.6,11.15926,100.24425,0.06632894,1.07431
51.7,11.177810000000001,100.25152,0.06812125,1.0743
51.8,11.19629,100.26727,0.06851645,1.07429
51.9,11.2141,100.26616999999999,0.0720742,1.07429
52.0,11.231869999999999,100.25554,0.07293037,1.07428
52.1,11.24928,100.28483,0.07746838,1.07427
52.2,11.26661,100.2697,0.0794015,1.07426
52.3,11.283439999999999,100.29257,0.07854735,1.07426
52.4,11.29995,100.28994,0.08031073,1.07425
52.5,11.316239999999999,100.29386,0.08448258,1.0742399999999999
52.6,11.332510000000001,100.28591999999999,0.08450005,1.07423
52.7,11.34862,100.29287,0.08515131,1.0742200000000002
52.8,11.364360000000001,100.28998,0.08625958,1.0742200000000002
52.9,11.38025,100.29693,0.08897831,1.07421
53.0,11.395710000000001,100.30849,0.0901791,1.0742
53.1,11.410810000000001,100.32468,0.09332065,1.07419
53.2,11.42585,100.32334,0.09478399,1.07419
53.3,11.44088,100.32341,0.09394414,1.07418
53.4,11.4557,100.30901999999999,0.0969953,1.07417
53.5,11.47027,100.29616999999999,0.0984768,1.07416
53.6,11.48473,100.2606,0.09857045,1.07416
53.7,11.499139999999999,100.27118,0.10038,1.07415
53.8,11.51347,100.24533000000001,0.10247,1.0741399999999999
53.9,11.52771,100.27373,0.10198,1.07413
54.0,11.541839999999999,100.24539,0.10295,1.07412
54.1,11.5557,100.26834000000001,0.10524000000000001,1.07412
54.2,11.56968,100.28904,0.10649000000000002,1.0741100000000001
54.3,11.5834,100.27580999999999,0.10680999999999999,1.0741
54.4,11.59707,100.29392,0.10793,1.07409
54.5,11.61069,100.25955,0.10959,1.07408
54.6,11.62433,100.28197,0.11079000000000001,1.07408
54.7,11.637739999999999,100.26104000000001,0.11374000000000001,1.07407
54.8,11.651069999999999,100.25154,0.11307,1.07406
54.9,11.66436,100.26945,0.11277000000000001,1.07405
55.0,11.67762,100.2467,0.11262,1.0740399999999999
55.1,11.690710000000001,100.25655,0.11567999999999999,1.0740399999999999
55.2,11.70391,100.25891999999999,0.11646,1.0740299999999998
55.3,11.71692,100.23986,0.11759000000000001,1.07402
55.4,11.72981,100.2411,0.11787,1.0740100000000001
55.5,11.74272,100.23885,0.11997000000000001,1.074
55.6,11.75553,100.23598,0.11971,1.07399
55.7,11.76854,100.21446999999999,0.12175,1.07399
55.8,11.781089999999999,100.24108000000001,0.12107000000000001,1.07398
55.9,11.79378,100.23921999999999,0.12315999999999999,1.07397
56.0,11.80631,100.23155,0.12232,1.07396
56.1,11.81886,100.24398000000001,0.12464000000000001,1.07395
56.2,11.83141,100.2455,0.1244,1.07394
56.3,11.84383,100.25205,0.12549000000000002,1.07394
56.4,11.85621,100.2493,0.12765,1.0739299999999998
56.5,11.86856,100.24965,0.12819,1.07392
56.6,11.88079,100.24961,0.12775999999999998,1.0739100000000001
56.7,11.893089999999999,100.22983,0.1296,1.0739
56.8,11.905380000000001,100.23017,0.12972,1.07389
56.9,11.91755,100.24959,0.13063,1.07388
57.0,11.92977,100.24959,0.12984,1.07388
57.1,11.941930000000001,100.25053,0.13284,1.07387
57.2,11.954089999999999,100.24215,0.13365,1.07386
57.3,11.96615,100.23073000000001,0.1342,1.07385
57.4,11.978060000000001,100.24842,0.13363,1.07384
57.5,11.9902,100.2494,0.13309,1.0738299999999998
57.6,12.002180000000001,100.24991999999999,0.13426,1.07382
57.7,12.01415,100.24857,0.13601,1.07382
57.8,12.026010000000001,100.2563,0.13617,1.07381
57.9,12.037889999999999,100.2505,0.13652,1.0738
58.0,12.04991,100.24941,0.13560999999999998,1.07379
58.1,12.06171,100.25493,0.13697,1.07378
58.2,12.07351,100.27577,0.13819,1.0737700000000001
58.3,12.08527,100.25539,0.13776,1.07376
58.4,12.09706,100.25251,0.1373,1.07375
58.5,12.108789999999999,100.2842,0.1365,1.07374
58.6,12.12043,100.25712,0.13952,1.0737299999999999
58.7,12.1321,100.2583,0.13890999999999998,1.0737299999999999
58.8,12.14373,100.28895,0.13882,1.07372
58.9,12.155339999999999,100.27566,0.1418,1.07371
59.0,12.166889999999999,100.26186,0.14189000000000002,1.0737
59.1,12.17845,100.2911,0.14151,1.07369
59.2,12.19002,100.29186999999999,0.14076,1.07368
59.3,12.20148,100.29543000000001,0.14142000000000002,1.0736700000000001
59.4,12.21299,100.31251999999999,0.14154,1.07366
59.5,12.22449,100.30258,0.14213,1.07365
59.6,12.23603,100.29414,0.14252,1.07364
59.7,12.247530000000001,100.29595,0.14173,1.0736299999999999
59.8,12.25884,100.29491,0.14523,1.0736299999999999
59.9,12.270380000000001,100.32151999999999,0.14289000000000002,1.07362
60.0,12.281789999999999,100.32764,0.14424,1.07361
60.1,12.2932,100.32627,0.14483,1.0736
60.2,12.3046,100.30521,0.14515,1.07359
60.3,12.3159,100.2937,0.14469,1.07358
60.4,12.32729,100.29495,0.14488,1.0735700000000001
60.5,12.338610000000001,100.30246,0.14664000000000002,1.07356
60.6,12.349910000000001,100.31064,0.1448,1.07355
60.7,12.361130000000001,100.29361,0.14556,1.07354
60.8,12.37239,100.29555,0.14803,1.0735299999999999
60.9,12.38371,100.29529000000001,0.14765999999999999,1.07352
61.0,12.395010000000001,100.29381,0.14823,1.07351
61.1,12.40634,100.30573000000001,0.14844000000000002,1.0735
61.2,12.417580000000001,100.32064,0.14779,1.07349
61.3,12.42882,100.29594,0.14924,1.07348
61.4,12.44008,100.29568,0.14839000000000002,1.0734700000000001
61.5,12.451260000000001,100.29519,0.14712999999999998,1.07346
61.6,12.46243,100.2954,0.14828,1.07345
61.7,12.47363,100.29536,0.14786,1.07344
61.8,12.48475,100.29522,0.14884,1.07344
61.9,12.49594,100.29508,0.14954,1.0734299999999999
62.0,12.50704,100.29514,0.1487,1.07342
62.1,12.5182,100.29505,0.14804,1.07341
62.2,12.5293,100.29507,0.15137,1.0734
62.3,12.5404,100.28539,0.14874,1.07339
62.4,12.55156,100.28171999999999,0.15023,1.07338
62.5,12.56277,100.297,0.15131,1.0733700000000002
62.6,12.573960000000001,100.29462,0.1501,1.07336
62.7,12.5851,100.29522,0.1508,1.07335
62.8,12.596219999999999,100.29509,0.15203,1.07334
62.9,12.60731,100.29511,0.15327000000000002,1.07333
63.0,12.6184,100.30148,0.15302000000000002,1.07332
63.1,12.62955,100.3271,0.15538,1.07331
63.2,12.64061,100.29987,0.15449000000000002,1.0733
63.3,12.65163,100.29214,0.15632000000000001,1.0732899999999999
63.4,12.66278,100.29223,0.15299000000000001,1.07328
63.5,12.67375,100.2694,0.15283,1.0732700000000002
63.6,12.68448,100.26726,0.15338,1.07326
63.7,12.6954,100.28947,0.15372,1.07325
63.8,12.70648,100.28596,0.15305,1.07324
63.9,12.71754,100.26053,0.15596,1.07323
64.0,12.728539999999999,100.25745,0.15431,1.07322
64.1,12.73954,100.25768000000001,0.15400999999999998,1.0732
64.2,12.75055,100.2576,0.15381,1.0731899999999999
64.3,12.761439999999999,100.25865,0.15442999999999998,1.07318
64.4,12.77237,100.2701,0.1541,1.0731700000000002
64.5,12.78326,100.26811,0.15355,1.0731600000000001
64.6,12.79418,100.25591999999999,0.15496,1.07315
64.7,12.805069999999999,100.25811,0.15438,1.07314
64.8,12.81595,100.25766,0.15498,1.07313
64.9,12.826839999999999,100.25757,0.15569000000000002,1.07312
65.0,12.83772,100.25811,0.15583,1.07311
65.1,12.84867,100.25707,0.1568,1.0731
65.2,12.859580000000001,100.28246999999999,0.15574000000000002,1.0730899999999999
65.3,12.87037,100.28987,0.15680999999999998,1.07308
65.4,12.881219999999999,100.28944,0.15793,1.07307
65.5,12.892339999999999,100.29120999999999,0.15775,1.0730600000000001
65.6,12.90333,100.28078000000001,0.15779,1.07305
65.7,12.91415,100.25904,0.15866,1.07304
65.8,12.92491,100.25734,0.15854000000000001,1.07303
65.9,12.93572,100.25744,0.15809,1.07302
66.0,12.94657,100.25761,0.1585,1.07301
66.1,12.957360000000001,100.25695999999999,0.15841,1.0729899999999999
66.2,12.96819,100.26475,0.15877,1.0729799999999998
66.3,12.97906,100.27381,0.16046,1.07297
66.4,12.98988,100.27399,0.16011,1.0729600000000001
66.5,13.00075,100.27185,0.15966,1.07295
66.6,13.011560000000001,100.25623,0.15853,1.07294
66.7,13.02241,100.25777,0.16144,1.07293
66.8,13.03321,100.2594,0.16105,1.07292
66.9,13.043989999999999,100.24724,0.16122999999999998,1.07291
67.0,13.054739999999999,100.22496,0.16282,1.0729
67.1,13.065489999999999,100.2251,0.16264,1.07289
67.2,13.07628,100.24934,0.16185,1.07287
67.3,13.08708,100.25605,0.16054000000000002,1.0728600000000001
67.4,13.09783,100.25465,0.16163,1.07285
67.5,13.10864,100.25538,0.16247,1.07284
67.6,13.11935,100.2385,0.16049000000000002,1.07283
67.7,13.130189999999999,100.22234,0.16274,1.07282
67.8,13.141,100.22335,0.16262000000000001,1.07281
67.9,13.15175,100.2223,0.16125,1.0728
68.0,13.162510000000001,100.22652,0.16137,1.07279
68.1,13.17325,100.24797,0.16365,1.07277
68.2,13.18397,100.25914,0.16280999999999998,1.07276
68.3,13.19469,100.25766999999999,0.16225,1.07275
68.4,13.205370000000002,100.2565,0.16302,1.07274
68.5,13.21606,100.26760999999999,0.16314,1.07273
68.6,13.22674,100.28747,0.16365,1.0727200000000001
68.7,13.23745,100.29039,0.16410999999999998,1.07271
68.8,13.24815,100.28990999999999,0.16617,1.0727
68.9,13.25885,100.28998,0.16475,1.0726799999999999
69.0,13.2696,100.28996,0.16366,1.07267
69.1,13.28031,100.29012,0.16522,1.07266
69.2,13.29093,100.3021,0.16494,1.07265
69.3,13.3016,100.32411,0.16324,1.07264
69.4,13.31226,100.32137,0.16564,1.07263
69.5,13.32296,100.3223,0.16474,1.0726200000000001
69.6,13.333570000000002,100.32141,0.16494,1.0726
69.7,13.344120000000002,100.32423,0.16459000000000001,1.07259
69.8,13.35474,100.30913000000001,0.16577999999999998,1.0725799999999999
69.9,13.365310000000001,100.29064,0.16757,1.07257
70.0,13.37592,100.28971999999999,0.16708,1.07256
70.1,13.38641,100.28941999999999,0.16708,1.07255
70.2,13.39701,100.29083,0.16727999999999998,1.07253
70.3,13.40761,100.27663000000001,0.16873,1.0725200000000001
70.4,13.418320000000001,100.2585,0.16688,1.07251
70.5,13.428920000000002,100.25703,0.16781,1.0725
70.6,13.43958,100.28219,0.16705,1.07249
70.7,13.450120000000002,100.28173000000001,0.16551,1.0724799999999999
70.8,13.460720000000002,100.27918000000001,0.16802999999999998,1.07246
70.9,13.4713,100.25369,0.1673,1.07245
71.0,13.481829999999999,100.25138000000001,0.16664,1.07244
71.1,13.492429999999999,100.25856999999999,0.1659,1.07243
71.2,13.50305,100.25755,0.16688,1.0724200000000002
71.3,13.513729999999999,100.25663,0.16746,1.0724
71.4,13.524339999999999,100.23486,0.16664,1.07239
71.5,13.53485,100.22048000000001,0.16721,1.0723799999999999
71.6,13.54546,100.22343000000001,0.16838,1.07237
71.7,13.55613,100.22201,0.16752999999999998,1.07236
71.8,13.56676,100.22488,0.16676,1.07234
71.9,13.57744,100.20254,0.16825,1.07233
72.0,13.588029999999998,100.1906,0.16832,1.0723200000000002
72.1,13.598729999999998,100.19046,0.16976,1.07231
72.2,13.60932,100.19048000000001,0.1689,1.0723
72.3,13.61984,100.19999,0.16915999999999998,1.07228
72.4,13.630329999999999,100.22405,0.16993,1.07227
72.5,13.64083,100.22228,0.16959000000000002,1.07226
72.6,13.651329999999998,100.22288,0.17029,1.07225
72.7,13.66191,100.22270999999999,0.16923,1.07223
72.8,13.67245,100.22267,0.17043,1.0722200000000002
72.9,13.68305,100.2231,0.17012,1.07221
73.0,13.693570000000001,100.22054,0.1695,1.0722
73.1,13.7041,100.20844,0.17005,1.07219
73.2,13.714620000000002,100.21491,0.16944,1.07217
73.3,13.72504,100.22431,0.17062,1.07216
73.4,13.735579999999999,100.22238,0.17097,1.07215
73.5,13.746189999999999,100.22282,0.17069,1.0721399999999999
73.6,13.7566,100.22272,0.17117000000000002,1.07212
73.7,13.766860000000001,100.22274,0.17184000000000002,1.0721100000000001
73.8,13.777320000000001,100.22274,0.17279,1.0721
73.9,13.78781,100.22274,0.17327,1.07209
74.0,13.7983,100.22274,0.17128,1.07207
74.1,13.80887,100.22274,0.17239000000000002,1.07206
74.2,13.819339999999999,100.22274,0.17205,1.07205
74.3,13.829889999999999,100.22272,0.1703,1.0720299999999998
74.4,13.8404,100.22288,0.17382,1.07202
74.5,13.85091,100.22196,0.17207999999999998,1.0720100000000001
74.6,13.86144,100.22694,0.17155,1.072
74.7,13.871960000000001,100.25188,0.17260999999999999,1.07198
74.8,13.882439999999999,100.27105999999999,0.17296,1.07197
74.9,13.89286,100.28936999999999,0.17204,1.07196
75.0,13.903329999999999,100.28643000000001,0.17115,1.07195
75.1,13.91385,100.2872,0.17237,1.0719299999999998
75.2,13.92435,100.28701,0.17162,1.07192
75.3,13.93489,100.28703,0.17182,1.0719100000000001
75.4,13.94541,100.28714000000001,0.17265,1.07189
75.5,13.95594,100.28669000000001,0.17244,1.07188
75.6,13.96662,100.28822,0.17381,1.07187
75.7,13.97735,100.27468,0.17206,1.07186
75.8,13.98789,100.25655,0.17238,1.07184
75.9,13.9984,100.25391,0.17169,1.0718299999999998
76.0,14.00896,100.27878,0.17140999999999998,1.07182
76.1,14.019379999999998,100.28729,0.17267000000000002,1.0718
76.2,14.02989,100.27763,0.17255,1.07179
76.3,14.040329999999999,100.25374000000001,0.17177,1.07178
76.4,14.05085,100.25528,0.17315,1.07176
76.5,14.06135,100.2558,0.17174,1.07175
76.6,14.07179,100.25036,0.17343,1.07174
76.7,14.08225,100.22480999999999,0.17095,1.07172
76.8,14.09271,100.23013,0.17172,1.07171
76.9,14.10321,100.25265,0.17254,1.0717
77.0,14.11367,100.25532,0.17356,1.07168
77.1,14.12408,100.25439,0.17349,1.0716700000000001
77.2,14.13451,100.2573,0.17253,1.07166
77.3,14.14489,100.24169,0.17319,1.07164
77.4,14.15528,100.22371,0.17314000000000002,1.0716299999999999
77.5,14.16557,100.22263000000001,0.17413,1.07162
77.6,14.17585,100.22272,0.17573,1.0716
77.7,14.18625,100.22289,0.1756,1.07159
77.8,14.196629999999999,100.22216999999999,0.17521,1.07158
77.9,14.207,100.22471,0.17498,1.07156
78.0,14.217270000000001,100.20295,0.17635,1.07155
78.1,14.22764,100.19069,0.176,1.07154
78.2,14.23799,100.19043,0.17505,1.07152
78.3,14.24838,100.19046999999999,0.17429,1.07151
78.4,14.258770000000002,100.19046999999999,0.17459000000000002,1.0715
78.5,14.269120000000001,100.19046,0.17548,1.07148
78.6,14.27951,100.19033,0.17655,1.0714700000000001
78.7,14.289929999999998,100.19166,0.17653,1.07146
78.8,14.300320000000001,100.21681,0.1763,1.07144
78.9,14.31065,100.22283,0.17484,1.0714299999999999
79.0,14.32102,100.22277,0.17369,1.07141
79.1,14.331389999999999,100.22238,0.17515,1.0714
79.2,14.341679999999998,100.20866,0.1759,1.07139
79.3,14.352020000000001,100.18847,0.17626,1.0713700000000002
79.4,14.36235,100.19131999999999,0.17583,1.07136
79.5,14.372770000000001,100.19054,0.17845,1.07135
79.6,14.383270000000001,100.19075,0.17674,1.07133
79.7,14.39362,100.1907,0.17532999999999999,1.07132
79.8,14.403939999999999,100.19071,0.17557,1.0713
79.9,14.41431,100.19071,0.17607,1.0712899999999999
80.0,14.4247,100.19071,0.17704,1.07128
80.1,14.43516,100.19071,0.17735,1.07126
80.2,14.44554,100.19071,0.17674,1.07125
80.3,14.45594,100.19071,0.17619,1.07123
80.4,14.466270000000002,100.1907,0.17524,1.07122
80.5,14.476579999999998,100.19074,0.17787999999999998,1.07121
80.6,14.48691,100.1906,0.17697000000000002,1.0711899999999999
80.7,14.49719,100.19109,0.1773,1.07118
80.8,14.507489999999999,100.18479,0.17797000000000002,1.0711600000000001
80.9,14.51785,100.16852,0.17648,1.07115
81.0,14.52815,100.15856,0.17761,1.07113
81.1,14.53839,100.1653,0.17858,1.07112
81.2,14.54875,100.18202,0.17649,1.07111
81.3,14.55913,100.1824,0.1759,1.0710899999999999
81.4,14.569479999999999,100.18238000000001,0.1757,1.07108
81.5,14.57976,100.18265,0.1751,1.0710600000000001
81.6,14.589979999999999,100.19118,0.17764000000000002,1.07105
81.7,14.60024,100.18856,0.17740999999999998,1.07103
81.8,14.61059,100.16375,0.17667,1.07102
81.9,14.62088,100.15831999999999,0.17979,1.07101
82.0,14.631260000000001,100.15847,0.17737,1.0709899999999999
82.1,14.641539999999999,100.15843000000001,0.17893,1.0709799999999998
82.2,14.65174,100.15844,0.17793,1.0709600000000001
82.3,14.66199,100.15844,0.17926,1.07095
82.4,14.672229999999999,100.15843000000001,0.17756,1.07093
82.5,14.682570000000002,100.15845,0.17735,1.07092
82.6,14.692879999999999,100.15836999999999,0.17736,1.0709
82.7,14.703120000000002,100.1587,0.17695,1.07089
82.8,14.713379999999999,100.1574,0.17677,1.0708799999999998
82.9,14.723670000000002,100.16402,0.17708,1.0708600000000001
83.0,14.73391,100.18385,0.17753,1.07085
83.1,14.7442,100.19176,0.17812999999999998,1.07083
83.2,14.754470000000001,100.19089,0.17676,1.07082
83.3,14.764660000000001,100.1876,0.17840999999999999,1.0708
83.4,14.77481,100.17549,0.18061,1.07079
83.5,14.785020000000001,100.18377,0.17889000000000002,1.07077
83.6,14.79526,100.19218000000001,0.17795,1.07076
83.7,14.805520000000001,100.19034,0.17937,1.07074
83.8,14.81574,100.1908,0.17804,1.07073
83.9,14.82591,100.19068,0.17974,1.07071
84.0,14.83603,100.19072,0.18072,1.0707
84.1,14.84619,100.19071,0.17975,1.0706799999999999
84.2,14.856420000000002,100.19071,0.18051,1.07067
84.3,14.866670000000001,100.19071,0.18043,1.07065
84.4,14.87686,100.19071,0.18177000000000001,1.07064
84.5,14.887020000000001,100.19071,0.18181,1.0706200000000001
84.6,14.897129999999999,100.19071,0.18075,1.07061
84.7,14.90725,100.19071,0.18106,1.07059
84.8,14.917489999999999,100.19071,0.18189,1.0705799999999999
84.9,14.927610000000001,100.19071,0.18317999999999998,1.07056
85.0,14.937779999999998,100.19071,0.18309,1.07055
85.1,14.947829999999998,100.19071,0.18178,1.07053
85.2,14.95783,100.19071,0.18066,1.0705200000000001
85.3,14.967939999999999,100.19071,0.18197,1.0705
85.4,14.97814,100.1907,0.1817,1.07049
85.5,14.988320000000002,100.19075,0.18083,1.07047
85.6,14.99845,100.19059,0.18209,1.07046
85.7,15.00857,100.19108,0.18092,1.07044
85.8,15.0187,100.1756,0.18218,1.07043
85.9,15.02883,100.15847,0.18399000000000001,1.07041
86.0,15.03897,100.1739,0.18370999999999998,1.0704
86.1,15.04914,100.19045,0.18211,1.0703799999999999
86.2,15.05926,100.19045,0.18387,1.07036
86.3,15.069360000000001,100.19046999999999,0.18295999999999998,1.07035
86.4,15.07945,100.19046,0.18213,1.07033
86.5,15.089529999999998,100.19046999999999,0.18285,1.0703200000000002
86.6,15.09956,100.19046,0.18357,1.0703
86.7,15.109689999999999,100.19046,0.18457,1.07029
86.8,15.11979,100.19046999999999,0.18345,1.07027
86.9,15.12985,100.19041999999999,0.18284,1.07026
87.0,15.13993,100.19064,0.18275,1.0702399999999999
87.1,15.14993,100.1898,0.18167,1.07023
87.2,15.16017,100.17232,0.18345999999999998,1.07021
87.3,15.170420000000002,100.15764,0.18341,1.07019
87.4,15.180470000000001,100.1588,0.18355,1.07018
87.5,15.190520000000001,100.15778,0.18270999999999998,1.07016
87.6,15.200660000000001,100.16102,0.18547,1.07015
87.7,15.210729999999998,100.18544,0.18436,1.07013
87.8,15.2207,100.19084000000001,0.18347,1.0701200000000002
87.9,15.23076,100.19057,0.18400999999999998,1.0701
88.0,15.2409,100.19114,0.18603,1.07008
88.1,15.250979999999998,100.1889,0.18559,1.07007
88.2,15.26095,100.17121999999999,0.18429,1.07005
88.3,15.270970000000002,100.16969,0.1838,1.0700399999999999
88.4,15.280920000000002,100.19273000000001,0.18372,1.07002
88.5,15.29088,100.19017,0.18516,1.07
88.6,15.300889999999999,100.19088,0.18575999999999998,1.06999
88.7,15.310920000000001,100.19055999999999,0.18625,1.06997
88.8,15.320979999999999,100.19117,0.18609,1.06996
88.9,15.331010000000001,100.18890999999999,0.18544000000000002,1.06994
89.0,15.341070000000002,100.1707,0.18584,1.06992
89.1,15.35113,100.15743,0.18692,1.0699100000000001
89.2,15.36125,100.15871,0.18745,1.06989
89.3,15.371279999999999,100.15838000000001,0.18716,1.06988
89.4,15.381310000000001,100.15839,0.1866,1.06986
