4497.78948,-0.00534
4495.86076,-0.00548
4493.93203,-0.00547
4492.00330,-0.00542
4490.07458,-0.00534
4488.14585,-0.00522
4486.21712,-0.00515
4484.28840,-0.00516
4482.35967,-0.00514
4480.43095,-0.00504
4478.50222,-0.00497
4476.57349,-0.00500
4474.64477,-0.00503
4472.71604,-0.00498
4470.78732,-0.00492
4468.85859,-0.00498
4466.92986,-0.00504
4465.00114,-0.00496
4463.07241,-0.00490
4461.14368,-0.00499
4459.21496,-0.00508
4457.28623,-0.00499
4455.35751,-0.00479
4453.42878,-0.00463
4451.50005,-0.00463
4449.57133,-0.00482
4447.64260,-0.00498
4445.71387,-0.00492
4443.78515,-0.00476
4441.85642,-0.00469
4439.92770,-0.00466
4437.99897,-0.00465
4436.07024,-0.00473
4434.14152,-0.00490
4432.21279,-0.00503
4430.28407,-0.00505
4428.35534,-0.00500
4426.42661,-0.00481
4424.49789,-0.00457
4422.56916,-0.00458
4420.64043,-0.00482
4418.71171,-0.00492
4416.78298,-0.00475
4414.85426,-0.00453
4412.92553,-0.00445
4410.99680,-0.00442
4409.06808,-0.00440
4407.13935,-0.00444
4405.21062,-0.00453
4403.28190,-0.00459
4401.35317,-0.00465
4399.42445,-0.00471
4397.49572,-0.00478
4395.56699,-0.00479
4393.63827,-0.00465
4391.70954,-0.00446
4389.78082,-0.00438
4387.85209,-0.00448
4385.92336,-0.00458
4383.99464,-0.00458
4382.06591,-0.00454
4380.13718,-0.00451
4378.20846,-0.00447
4376.27973,-0.00450
4374.35101,-0.00458
4372.42228,-0.00462
4370.49355,-0.00463
4368.56483,-0.00460
4366.63610,-0.00456
4364.70737,-0.00455
4362.77865,-0.00450
4360.84992,-0.00446
4358.92120,-0.00458
4356.99247,-0.00475
4355.06374,-0.00479
4353.13502,-0.00470
4351.20629,-0.00456
4349.27757,-0.00441
4347.34884,-0.00433
4345.42011,-0.00433
4343.49139,-0.00429
4341.56266,-0.00425
4339.63393,-0.00426
4337.70521,-0.00428
4335.77648,-0.00421
4333.84776,-0.00413
4331.91903,-0.00416
4329.99030,-0.00419
4328.06158,-0.00415
4326.13285,-0.00419
4324.20412,-0.00426
4322.27540,-0.00418
4320.34667,-0.00399
4318.41795,-0.00391
4316.48922,-0.00400
4314.56049,-0.00412
4312.63177,-0.00422
4310.70304,-0.00428
4308.77432,-0.00429
4306.84559,-0.00425
4304.91686,-0.00422
4302.98814,-0.00425
4301.05941,-0.00429
4299.13068,-0.00432
4297.20196,-0.00435
4295.27323,-0.00433
4293.34451,-0.00422
4291.41578,-0.00406
4289.48705,-0.00399
4287.55833,-0.00410
4285.62960,-0.00422
4283.70087,-0.00417
4281.77215,-0.00404
4279.84342,-0.00400
4277.91470,-0.00410
4275.98597,-0.00420
4274.05724,-0.00413
4272.12852,-0.00393
4270.19979,-0.00380
4268.27107,-0.00384
4266.34234,-0.00389
4264.41361,-0.00392
4262.48489,-0.00396
4260.55616,-0.00396
4258.62743,-0.00395
4256.69871,-0.00394
4254.76998,-0.00391
4252.84126,-0.00391
4250.91253,-0.00398
4248.98380,-0.00409
4247.05508,-0.00412
4245.12635,-0.00407
4243.19762,-0.00405
4241.26890,-0.00399
4239.34017,-0.00390
4237.41145,-0.00392
4235.48272,-0.00400
4233.55399,-0.00403
4231.62527,-0.00402
4229.69654,-0.00401
4227.76782,-0.00396
4225.83909,-0.00386
4223.91036,-0.00380
4221.98164,-0.00384
4220.05291,-0.00389
4218.12418,-0.00391
4216.19546,-0.00386
4214.26673,-0.00373
4212.33801,-0.00365
4210.40928,-0.00367
4208.48055,-0.00366
4206.55183,-0.00360
4204.62310,-0.00357
4202.69437,-0.00358
4200.76565,-0.00365
4198.83692,-0.00380
4196.90820,-0.00385
4194.97947,-0.00370
4193.05074,-0.00357
4191.12202,-0.00360
4189.19329,-0.00369
4187.26456,-0.00374
4185.33584,-0.00377
4183.40711,-0.00377
4181.47839,-0.00373
4179.54966,-0.00371
4177.62093,-0.00369
4175.69221,-0.00357
4173.76348,-0.00343
4171.83476,-0.00338
4169.90603,-0.00345
4167.97730,-0.00355
4166.04858,-0.00358
4164.11985,-0.00360
4162.19112,-0.00362
4160.26240,-0.00359
4158.33367,-0.00354
4156.40495,-0.00353
4154.47622,-0.00354
4152.54749,-0.00356
4150.61877,-0.00359
4148.69004,-0.00360
4146.76131,-0.00358
4144.83259,-0.00354
4142.90386,-0.00346
4140.97514,-0.00336
4139.04641,-0.00328
4137.11768,-0.00322
4135.18896,-0.00320
4133.26023,-0.00330
4131.33151,-0.00346
4129.40278,-0.00356
4127.47405,-0.00358
4125.54533,-0.00359
4123.61660,-0.00357
4121.68787,-0.00350
4119.75915,-0.00340
4117.83042,-0.00334
4115.90170,-0.00335
4113.97297,-0.00337
4112.04424,-0.00337
4110.11552,-0.00334
4108.18679,-0.00320
4106.25806,-0.00294
4104.32934,-0.00289
4102.40061,-0.00309
4100.47189,-0.00327
4098.54316,-0.00337
4096.61443,-0.00347
4094.68571,-0.00346
4092.75698,-0.00325
4090.82826,-0.00298
4088.89953,-0.00286
4086.97080,-0.00284
4085.04208,-0.00280
4083.11335,-0.00278
4081.18462,-0.00283
4079.25590,-0.00294
4077.32717,-0.00310
4075.39845,-0.00317
4073.46972,-0.00313
4071.54099,-0.00310
4069.61227,-0.00309
4067.68354,-0.00310
4065.75481,-0.00309
4063.82609,-0.00306
4061.89736,-0.00297
4059.96864,-0.00291
4058.03991,-0.00297
4056.11118,-0.00307
4054.18246,-0.00314
4052.25373,-0.00318
4050.32501,-0.00320
4048.39628,-0.00306
4046.46755,-0.00273
4044.53883,-0.00255
4042.61010,-0.00267
4040.68137,-0.00289
4038.75265,-0.00305
4036.82392,-0.00308
4034.89520,-0.00300
4032.96647,-0.00296
4031.03774,-0.00301
4029.10902,-0.00300
4027.18029,-0.00282
4025.25156,-0.00264
4023.32284,-0.00258
4021.39411,-0.00248
4019.46539,-0.00244
4017.53666,-0.00257
4015.60793,-0.00277
4013.67921,-0.00287
4011.75048,-0.00281
4009.82176,-0.00261
4007.89303,-0.00251
4005.96430,-0.00261
4004.03558,-0.00273
4002.10685,-0.00275
4000.17812,-0.00274
3998.24940,-0.00259
3996.32067,-0.00229
3994.39195,-0.00202
3992.46322,-0.00186
3990.53449,-0.00196
3988.60577,-0.00237
3986.67704,-0.00260
3984.74831,-0.00244
3982.81959,-0.00224
3980.89086,-0.00223
3978.96214,-0.00214
3977.03341,-0.00173
3975.10468,-0.00137
3973.17596,-0.00143
3971.24723,-0.00166
3969.31851,-0.00193
3967.38978,-0.00224
3965.46105,-0.00211
3963.53233,-0.00148
3961.60360,-0.00108
3959.67487,-0.00114
3957.74615,-0.00123
3955.81742,-0.00135
3953.88870,-0.00137
3951.95997,-0.00082
3950.03124,0.00005
3948.10252,0.00010
3946.17379,-0.00033
3944.24506,-0.00026
3942.31634,-0.00035
3940.38761,-0.00104
3938.45889,-0.00160
3936.53016,-0.00146
3934.60143,-0.00034
3932.67271,0.00098
3930.74398,0.00085
3928.81526,-0.00003
3926.88653,0.00011
3924.95780,0.00084
3923.02908,0.00070
3921.10035,0.00044
3919.17162,0.00087
3917.24290,0.00076
3915.31417,-0.00047
3913.38545,-0.00156
3911.45672,-0.00196
3909.52799,-0.00162
3907.59927,-0.00018
3905.67054,0.00262
3903.74181,0.00508
3901.81309,0.00505
3899.88436,0.00342
3897.95564,0.00143
3896.02691,0.00064
3894.09818,0.00136
3892.16946,0.00206
3890.24073,0.00122
3888.31201,0.00085
3886.38328,0.00179
3884.45455,0.00267
3882.52583,0.00246
3880.59710,0.00137
3878.66837,0.00019
3876.73965,0.00006
3874.81092,0.00119
3872.88220,0.00298
3870.95347,0.00401
3869.02474,0.00353
3867.09602,0.00350
3865.16729,0.00451
3863.23856,0.00393
3861.30984,0.00193
3859.38111,0.00127
3857.45239,0.00229
3855.52366,0.00457
3853.59493,0.00627
3851.66621,0.00404
3849.73748,0.00166
3847.80876,0.00056
3845.88003,0.00088
3843.95130,0.00237
3842.02258,0.00441
3840.09385,0.00629
3838.16512,0.00606
3836.23640,0.00397
3834.30767,0.00234
3832.37895,0.00131
3830.45022,0.00097
3828.52149,0.00140
3826.59277,0.00208
3824.66404,0.00263
3822.73531,0.00357
3820.80659,0.00450
3818.87786,0.00404
3816.94914,0.00274
3815.02041,0.00084
3813.09168,-0.00046
3811.16296,-0.00072
3809.23423,-0.00003
3807.30550,0.00122
3805.37678,0.00215
3803.44805,0.00316
3801.51933,0.00404
3799.59060,0.00357
3797.66187,0.00231
3795.73315,0.00051
3793.80442,-0.00083
3791.87570,-0.00136
3789.94697,-0.00126
3788.01824,-0.00056
3786.08952,0.00028
3784.16079,0.00030
3782.23206,0.00006
3780.30334,0.00022
3778.37461,-0.00014
3776.44589,-0.00094
3774.51716,-0.00106
3772.58843,-0.00022
3770.65971,0.00112
3768.73098,0.00189
3766.80225,0.00182
3764.87353,0.00124
3762.94480,0.00091
3761.01608,0.00169
3759.08735,0.00307
3757.15862,0.00357
3755.22990,0.00413
3753.30117,0.00621
3751.37245,0.00947
3749.44372,0.00945
3747.51499,0.00827
3745.58627,0.00724
3743.65754,0.00587
3741.72881,0.00539
3739.80009,0.00590
3737.87136,0.00728
3735.94264,0.00846
3734.01391,0.00669
3732.08518,0.00405
3730.15646,0.00287
3728.22773,0.00321
3726.29900,0.00434
3724.37028,0.00453
3722.44155,0.00332
3720.51283,0.00178
3718.58410,0.00088
3716.65537,0.00106
3714.72665,0.00227
3712.79792,0.00436
3710.86920,0.00475
3708.94047,0.00246
3707.01174,0.00089
3705.08302,0.00046
3703.15429,0.00072
3701.22556,0.00073
3699.29684,0.00027
3697.36811,0.00014
3695.43939,0.00057
3693.51066,0.00169
3691.58193,0.00381
3689.65321,0.00500
3687.72448,0.00286
3685.79575,0.00091
3683.86703,0.00013
3681.93830,0.00048
3680.00958,0.00194
3678.08085,0.00404
3676.15212,0.00536
3674.22340,0.00488
3672.29467,0.00512
3670.36595,0.00521
3668.43722,0.00278
3666.50849,0.00059
3664.57977,-0.00040
3662.65104,-0.00052
3660.72231,-0.00013
3658.79359,0.00063
3656.86486,0.00158
3654.93614,0.00214
3653.00741,0.00289
3651.07868,0.00544
3649.14996,0.00838
3647.22123,0.00545
3645.29250,0.00290
3643.36378,0.00172
3641.43505,0.00098
3639.50633,0.00048
3637.57760,0.00044
3635.64887,0.00095
3633.72015,0.00194
3631.79142,0.00333
3629.86270,0.00492
3627.93397,0.00426
3626.00524,0.00230
3624.07652,0.00149
3622.14779,0.00222
3620.21906,0.00426
3618.29034,0.00536
3616.36161,0.00521
3614.43289,0.00514
3612.50416,0.00469
3610.57543,0.00424
3608.64671,0.00363
3606.71798,0.00215
3604.78925,0.00119
3602.86053,0.00160
3600.93180,0.00272
3599.00308,0.00317
3597.07435,0.00292
3595.14562,0.00234
3593.21690,0.00157
3591.28817,0.00167
3589.35945,0.00335
3587.43072,0.00454
3585.50199,0.00287
3583.57327,0.00127
3581.64454,0.00069
3579.71581,0.00058
3577.78709,0.00053
3575.85836,0.00048
3573.92964,0.00048
3572.00091,0.00088
3570.07218,0.00244
3568.14346,0.00536
3566.21473,0.00620
3564.28600,0.00405
3562.35728,0.00228
3560.42855,0.00116
3558.49983,0.00036
3556.57110,0.00016
3554.64237,0.00072
3552.71365,0.00122
3550.78492,0.00119
3548.85620,0.00175
3546.92747,0.00302
3544.99874,0.00299
3543.07002,0.00124
3541.14129,-0.00022
3539.21256,-0.00044
3537.28384,-0.00003
3535.35511,-0.00005
3533.42639,-0.00012
3531.49766,0.00056
3529.56893,0.00174
3527.64021,0.00261
3525.71148,0.00294
3523.78275,0.00238
3521.85403,0.00096
3519.92530,-0.00020
3517.99658,-0.00082
3516.06785,-0.00120
3514.13912,-0.00107
3512.21040,-0.00030
3510.28167,0.00028
3508.35295,0.00008
3506.42422,0.00020
3504.49549,0.00121
3502.56677,0.00147
3500.63804,0.00038
3498.70931,-0.00042
3496.78059,-0.00059
3494.85186,-0.00085
3492.92314,-0.00117
3490.99441,-0.00109
3489.06568,-0.00072
3487.13696,-0.00059
3485.20823,-0.00054
3483.27950,-0.00018
3481.35078,-0.00008
3479.42205,-0.00070
3477.49333,-0.00121
3475.56460,-0.00124
3473.63587,-0.00130
3471.70715,-0.00150
3469.77842,-0.00151
3467.84970,-0.00133
3465.92097,-0.00113
3463.99224,-0.00088
3462.06352,-0.00071
3460.13479,-0.00085
3458.20606,-0.00110
3456.27734,-0.00129
3454.34861,-0.00147
3452.41989,-0.00146
3450.49116,-0.00098
3448.56243,-0.00016
3446.63371,0.00019
3444.70498,-0.00011
3442.77625,-0.00051
3440.84753,-0.00090
3438.91880,-0.00115
3436.99008,-0.00122
3435.06135,-0.00121
3433.13262,-0.00107
3431.20390,-0.00096
3429.27517,-0.00098
3427.34644,-0.00103
3425.41772,-0.00096
3423.48899,-0.00057
3421.56027,-0.00022
3419.63154,-0.00052
3417.70281,-0.00112
3415.77409,-0.00140
3413.84536,-0.00140
3411.91664,-0.00138
3409.98791,-0.00147
3408.05918,-0.00166
3406.13046,-0.00175
3404.20173,-0.00169
3402.27300,-0.00157
3400.34428,-0.00142
3398.41555,-0.00119
3396.48683,-0.00103
3394.55810,-0.00096
3392.62937,-0.00104
3390.70065,-0.00138
3388.77192,-0.00160
3386.84319,-0.00142
3384.91447,-0.00120
3382.98574,-0.00129
3381.05702,-0.00151
3379.12829,-0.00159
3377.19956,-0.00160
3375.27084,-0.00163
3373.34211,-0.00166
3371.41339,-0.00158
3369.48466,-0.00133
3367.55593,-0.00111
3365.62721,-0.00109
3363.69848,-0.00114
3361.76975,-0.00117
3359.84103,-0.00118
3357.91230,-0.00116
3355.98358,-0.00121
3354.05485,-0.00143
3352.12612,-0.00164
3350.19740,-0.00171
3348.26867,-0.00168
3346.33994,-0.00155
3344.41122,-0.00134
3342.48249,-0.00120
3340.55377,-0.00115
3338.62504,-0.00102
3336.69631,-0.00089
3334.76759,-0.00101
3332.83886,-0.00124
3330.91014,-0.00131
3328.98141,-0.00119
3327.05268,-0.00108
3325.12396,-0.00107
3323.19523,-0.00117
3321.26650,-0.00131
3319.33778,-0.00138
3317.40905,-0.00136
3315.48033,-0.00123
3313.55160,-0.00102
3311.62287,-0.00084
3309.69415,-0.00076
3307.76542,-0.00086
3305.83669,-0.00106
3303.90797,-0.00118
3301.97924,-0.00118
3300.05052,-0.00108
3298.12179,-0.00098
3296.19306,-0.00100
3294.26434,-0.00102
3292.33561,-0.00093
3290.40689,-0.00086
3288.47816,-0.00088
3286.54943,-0.00090
3284.62071,-0.00085
3282.69198,-0.00084
3280.76325,-0.00089
3278.83453,-0.00084
3276.90580,-0.00073
3274.97708,-0.00068
3273.04835,-0.00075
3271.11962,-0.00083
3269.19090,-0.00082
3267.26217,-0.00082
3265.33344,-0.00085
3263.40472,-0.00083
3261.47599,-0.00079
3259.54727,-0.00075
3257.61854,-0.00065
3255.68981,-0.00055
3253.76109,-0.00064
3251.83236,-0.00085
3249.90364,-0.00087
3247.97491,-0.00062
3246.04618,-0.00035
3244.11746,-0.00032
3242.18873,-0.00041
3240.26000,-0.00048
3238.33128,-0.00050
3236.40255,-0.00049
3234.47383,-0.00042
3232.54510,-0.00033
3230.61637,-0.00028
3228.68765,-0.00038
3226.75892,-0.00059
3224.83019,-0.00070
3222.90147,-0.00060
3220.97274,-0.00043
3219.04402,-0.00039
3217.11529,-0.00041
3215.18656,-0.00037
3213.25784,-0.00035
3211.32911,-0.00039
3209.40039,-0.00043
3207.47166,-0.00048
3205.54293,-0.00045
3203.61421,-0.00035
3201.68548,-0.00021
3199.75675,-0.00008
3197.82803,-0.00008
3195.89930,-0.00020
3193.97058,-0.00029
3192.04185,-0.00033
3190.11312,-0.00039
3188.18440,-0.00034
3186.25567,-0.00017
3184.32694,-0.00006
3182.39822,-0.00005
3180.46949,0.00002
3178.54077,0.00008
3176.61204,-0.00000
3174.68331,-0.00012
3172.75459,-0.00013
3170.82586,-0.00011
3168.89714,-0.00011
3166.96841,-0.00015
3165.03968,-0.00018
3163.11096,-0.00019
3161.18223,-0.00019
3159.25350,-0.00016
3157.32478,-0.00011
3155.39605,-0.00006
3153.46733,-0.00001
3151.53860,0.00006
3149.60987,0.00014
3147.68115,0.00013
3145.75242,0.00007
3143.82369,0.00005
3141.89497,0.00006
3139.96624,0.00010
3138.03752,0.00020
3136.10879,0.00033
3134.18006,0.00045
3132.25134,0.00046
3130.32261,0.00045
3128.39389,0.00052
3126.46516,0.00060
3124.53643,0.00064
3122.60771,0.00073
3120.67898,0.00085
3118.75025,0.00094
3116.82153,0.00094
3114.89280,0.00085
3112.96408,0.00080
3111.03535,0.00084
3109.10662,0.00085
3107.17790,0.00078
3105.24917,0.00083
3103.32044,0.00106
3101.39172,0.00123
3099.46299,0.00119
3097.53427,0.00108
3095.60554,0.00100
3093.67681,0.00088
3091.74809,0.00078
3089.81936,0.00077
3087.89063,0.00083
3085.96191,0.00096
3084.03318,0.00115
3082.10446,0.00134
3080.17573,0.00141
3078.24700,0.00133
3076.31828,0.00120
3074.38955,0.00114
3072.46083,0.00117
3070.53210,0.00125
3068.60337,0.00136
3066.67465,0.00149
3064.74592,0.00151
3062.81719,0.00139
3060.88847,0.00133
3058.95974,0.00148
3057.03102,0.00166
3055.10229,0.00163
3053.17356,0.00148
3051.24484,0.00144
3049.31611,0.00144
3047.38738,0.00130
3045.45866,0.00114
3043.52993,0.00107
3041.60121,0.00105
3039.67248,0.00101
3037.74375,0.00108
3035.81503,0.00131
3033.88630,0.00161
3031.95758,0.00170
3030.02885,0.00150
3028.10012,0.00128
3026.17140,0.00125
3024.24267,0.00132
3022.31394,0.00137
3020.38522,0.00135
3018.45649,0.00133
3016.52777,0.00151
3014.59904,0.00186
3012.67031,0.00215
3010.74159,0.00216
3008.81286,0.00201
3006.88413,0.00197
3004.95541,0.00207
3003.02668,0.00210
3001.09796,0.00206
2999.16923,0.00203
2997.24050,0.00209
2995.31178,0.00220
2993.38305,0.00226
2991.45433,0.00227
2989.52560,0.00239
2987.59687,0.00255
2985.66815,0.00266
2983.73942,0.00276
2981.81069,0.00294
2979.88197,0.00315
2977.95324,0.00334
2976.02452,0.00355
2974.09579,0.00375
2972.16706,0.00393
2970.23834,0.00408
2968.30961,0.00422
2966.38088,0.00428
2964.45216,0.00425
2962.52343,0.00416
2960.59471,0.00405
2958.66598,0.00397
2956.73725,0.00396
2954.80853,0.00392
2952.87980,0.00378
2950.95108,0.00363
2949.02235,0.00350
2947.09362,0.00334
2945.16490,0.00316
2943.23617,0.00301
2941.30744,0.00292
2939.37872,0.00286
2937.44999,0.00283
2935.52127,0.00287
2933.59254,0.00294
2931.66381,0.00300
2929.73509,0.00303
2927.80636,0.00307
2925.87763,0.00312
2923.94891,0.00316
2922.02018,0.00320
2920.09146,0.00325
2918.16273,0.00326
2916.23400,0.00325
2914.30528,0.00330
2912.37655,0.00341
2910.44783,0.00352
2908.51910,0.00355
2906.59037,0.00352
2904.66165,0.00348
2902.73292,0.00343
2900.80419,0.00333
2898.87547,0.00321
2896.94674,0.00310
2895.01802,0.00302
2893.08929,0.00298
2891.16056,0.00296
2889.23184,0.00295
2887.30311,0.00295
2885.37438,0.00292
2883.44566,0.00285
2881.51693,0.00281
2879.58821,0.00280
2877.65948,0.00282
2875.73075,0.00285
2873.80203,0.00287
2871.87330,0.00289
2869.94458,0.00291
2868.01585,0.00290
2866.08712,0.00288
2864.15840,0.00287
2862.22967,0.00291
2860.30094,0.00297
2858.37222,0.00305
2856.44349,0.00314
2854.51477,0.00318
2852.58604,0.00317
2850.65731,0.00312
2848.72859,0.00304
2846.79986,0.00294
2844.87113,0.00282
2842.94241,0.00274
2841.01368,0.00267
2839.08496,0.00260
2837.15623,0.00252
2835.22750,0.00248
2833.29878,0.00245
2831.37005,0.00246
2829.44133,0.00246
2827.51260,0.00240
2825.58387,0.00231
2823.65515,0.00228
2821.72642,0.00227
2819.79769,0.00230
2817.86897,0.00235
2815.94024,0.00238
2814.01152,0.00240
2812.08279,0.00240
2810.15406,0.00239
2808.22534,0.00238
2806.29661,0.00238
2804.36788,0.00240
2802.43916,0.00242
2800.51043,0.00243
2798.58171,0.00241
2796.65298,0.00236
2794.72425,0.00236
2792.79553,0.00239
2790.86680,0.00239
2788.93808,0.00237
2787.00935,0.00238
2785.08062,0.00243
2783.15190,0.00247
2781.22317,0.00249
2779.29444,0.00247
2777.36572,0.00245
2775.43699,0.00246
2773.50827,0.00249
2771.57954,0.00254
2769.65081,0.00254
2767.72209,0.00251
2765.79336,0.00248
2763.86463,0.00248
2761.93591,0.00248
2760.00718,0.00248
2758.07846,0.00250
2756.14973,0.00251
2754.22100,0.00249
2752.29228,0.00247
2750.36355,0.00249
2748.43483,0.00255
2746.50610,0.00260
2744.57737,0.00261
2742.64865,0.00258
2740.71992,0.00256
2738.79119,0.00256
2736.86247,0.00251
2734.93374,0.00246
2733.00502,0.00247
2731.07629,0.00252
2729.14756,0.00255
2727.21884,0.00254
2725.29011,0.00251
2723.36138,0.00251
2721.43266,0.00254
2719.50393,0.00255
2717.57521,0.00254
2715.64648,0.00255
2713.71775,0.00254
2711.78903,0.00253
2709.86030,0.00255
2707.93157,0.00258
2706.00285,0.00259
2704.07412,0.00260
2702.14540,0.00261
2700.21667,0.00265
2698.28794,0.00270
2696.35922,0.00273
2694.43049,0.00272
2692.50177,0.00268
2690.57304,0.00266
2688.64431,0.00266
2686.71559,0.00267
2684.78686,0.00268
2682.85813,0.00267
2680.92941,0.00267
2679.00068,0.00269
2677.07196,0.00269
2675.14323,0.00270
2673.21450,0.00271
2671.28578,0.00271
2669.35705,0.00270
2667.42832,0.00270
2665.49960,0.00272
2663.57087,0.00277
2661.64215,0.00280
2659.71342,0.00282
2657.78469,0.00280
2655.85597,0.00277
2653.92724,0.00277
2651.99852,0.00279
2650.06979,0.00274
2648.14106,0.00264
2646.21234,0.00257
2644.28361,0.00257
2642.35488,0.00262
2640.42616,0.00266
2638.49743,0.00268
2636.56871,0.00267
2634.63998,0.00267
2632.71125,0.00265
2630.78253,0.00262
2628.85380,0.00263
2626.92507,0.00265
2624.99635,0.00265
2623.06762,0.00263
2621.13890,0.00260
2619.21017,0.00260
2617.28144,0.00261
2615.35272,0.00261
2613.42399,0.00257
2611.49527,0.00252
2609.56654,0.00249
2607.63781,0.00248
2605.70909,0.00248
2603.78036,0.00248
2601.85163,0.00248
2599.92291,0.00247
2597.99418,0.00250
2596.06546,0.00256
2594.13673,0.00264
2592.20800,0.00268
2590.27928,0.00267
2588.35055,0.00265
2586.42182,0.00266
2584.49310,0.00269
2582.56437,0.00272
2580.63565,0.00270
2578.70692,0.00266
2576.77819,0.00261
2574.84947,0.00259
2572.92074,0.00262
2570.99202,0.00267
2569.06329,0.00269
2567.13456,0.00266
2565.20584,0.00262
2563.27711,0.00255
2561.34838,0.00246
2559.41966,0.00245
2557.49093,0.00252
2555.56221,0.00262
2553.63348,0.00268
2551.70475,0.00266
2549.77603,0.00259
2547.84730,0.00256
2545.91857,0.00257
2543.98985,0.00258
2542.06112,0.00265
2540.13240,0.00277
2538.20367,0.00285
2536.27494,0.00284
2534.34622,0.00282
2532.41749,0.00278
2530.48877,0.00270
2528.56004,0.00264
2526.63131,0.00265
2524.70259,0.00270
2522.77386,0.00270
2520.84513,0.00268
2518.91641,0.00274
2516.98768,0.00276
2515.05896,0.00268
2513.13023,0.00261
2511.20150,0.00265
2509.27278,0.00270
2507.34405,0.00271
2505.41532,0.00276
2503.48660,0.00280
2501.55787,0.00275
2499.62915,0.00269
2497.70042,0.00270
2495.77169,0.00275
2493.84297,0.00276
2491.91424,0.00276
2489.98552,0.00280
2488.05679,0.00284
2486.12806,0.00283
2484.19934,0.00278
2482.27061,0.00273
2480.34188,0.00268
2478.41316,0.00266
2476.48443,0.00269
2474.55571,0.00276
2472.62698,0.00284
2470.69825,0.00291
2468.76953,0.00296
2466.84080,0.00294
2464.91207,0.00290
2462.98335,0.00291
2461.05462,0.00292
2459.12590,0.00286
2457.19717,0.00276
2455.26844,0.00271
2453.33972,0.00272
2451.41099,0.00273
2449.48227,0.00270
2447.55354,0.00267
2445.62481,0.00272
2443.69609,0.00277
2441.76736,0.00275
2439.83863,0.00275
2437.90991,0.00282
2435.98118,0.00290
2434.05246,0.00298
2432.12373,0.00305
2430.19500,0.00311
2428.26628,0.00309
2426.33755,0.00301
2424.40882,0.00301
2422.48010,0.00308
2420.55137,0.00314
2418.62265,0.00314
2416.69392,0.00311
2414.76519,0.00305
2412.83647,0.00304
2410.90774,0.00308
2408.97902,0.00312
2407.05029,0.00318
2405.12156,0.00322
2403.19284,0.00325
2401.26411,0.00333
2399.33538,0.00341
2397.40666,0.00341
2395.47793,0.00340
2393.54921,0.00340
2391.62048,0.00341
2389.69175,0.00346
2387.76303,0.00357
2385.83430,0.00377
2383.90557,0.00399
2381.97685,0.00410
2380.04812,0.00399
2378.11940,0.00367
2376.19067,0.00312
2374.26194,0.00242
2372.33322,0.00160
2370.40449,0.00047
2368.47576,-0.00099
2366.54704,-0.00221
2364.61831,-0.00276
2362.68959,-0.00292
2360.76086,-0.00300
2358.83213,-0.00293
2356.90341,-0.00259
2354.97468,-0.00168
2353.04596,-0.00003
2351.11723,0.00147
2349.18850,0.00198
2347.25978,0.00146
2345.33105,0.00019
2343.40232,-0.00108
2341.47360,-0.00169
2339.54487,-0.00185
2337.61615,-0.00188
2335.68742,-0.00169
2333.75869,-0.00103
2331.82997,-0.00016
2329.90124,0.00040
2327.97251,0.00074
2326.04379,0.00125
2324.11506,0.00195
2322.18634,0.00265
2320.25761,0.00313
2318.32888,0.00334
2316.40016,0.00349
2314.47143,0.00373
2312.54271,0.00408
2310.61398,0.00438
2308.68525,0.00444
2306.75653,0.00433
2304.82780,0.00418
2302.89907,0.00403
2300.97035,0.00389
2299.04162,0.00387
2297.11290,0.00390
2295.18417,0.00390
2293.25544,0.00384
2291.32672,0.00376
2289.39799,0.00369
2287.46926,0.00366
2285.54054,0.00361
2283.61181,0.00347
2281.68309,0.00332
2279.75436,0.00328
2277.82563,0.00332
2275.89691,0.00332
2273.96818,0.00321
2272.03946,0.00306
2270.11073,0.00302
2268.18200,0.00307
2266.25328,0.00311
2264.32455,0.00315
2262.39582,0.00324
2260.46710,0.00327
2258.53837,0.00315
2256.60965,0.00303
2254.68092,0.00309
2252.75219,0.00320
2250.82347,0.00319
2248.89474,0.00312
2246.96601,0.00316
2245.03729,0.00326
2243.10856,0.00321
2241.17984,0.00306
2239.25111,0.00292
2237.32238,0.00291
2235.39366,0.00304
2233.46493,0.00312
2231.53621,0.00310
2229.60748,0.00307
2227.67875,0.00301
2225.75003,0.00286
2223.82130,0.00272
2221.89257,0.00269
2219.96385,0.00283
2218.03512,0.00303
2216.10640,0.00301
2214.17767,0.00267
2212.24894,0.00230
2210.32022,0.00223
2208.39149,0.00240
2206.46276,0.00240
2204.53404,0.00229
2202.60531,0.00236
2200.67659,0.00236
2198.74786,0.00210
2196.81913,0.00199
2194.89041,0.00214
2192.96168,0.00215
2191.03296,0.00201
2189.10423,0.00204
2187.17550,0.00207
2185.24678,0.00184
2183.31805,0.00152
2181.38932,0.00136
2179.46060,0.00141
2177.53187,0.00163
2175.60315,0.00190
2173.67442,0.00202
2171.74569,0.00191
2169.81697,0.00173
2167.88824,0.00153
2165.95951,0.00123
2164.03079,0.00102
2162.10206,0.00104
2160.17334,0.00114
2158.24461,0.00139
2156.31588,0.00177
2154.38716,0.00210
2152.45843,0.00241
2150.52971,0.00275
2148.60098,0.00292
2146.67225,0.00290
2144.74353,0.00275
2142.81480,0.00256
2140.88607,0.00254
2138.95735,0.00273
2137.02862,0.00288
2135.09990,0.00292
2133.17117,0.00291
2131.24244,0.00290
2129.31372,0.00296
2127.38499,0.00305
2125.45626,0.00309
2123.52754,0.00302
2121.59881,0.00292
2119.67009,0.00285
2117.74136,0.00282
2115.81263,0.00288
2113.88391,0.00293
2111.95518,0.00285
2110.02646,0.00269
2108.09773,0.00264
2106.16900,0.00277
2104.24028,0.00293
2102.31155,0.00304
2100.38282,0.00319
2098.45410,0.00335
2096.52537,0.00345
2094.59665,0.00345
2092.66792,0.00346
2090.73919,0.00352
2088.81047,0.00350
2086.88174,0.00340
2084.95301,0.00337
2083.02429,0.00340
2081.09556,0.00338
2079.16684,0.00328
2077.23811,0.00320
2075.30938,0.00318
2073.38066,0.00322
2071.45193,0.00330
2069.52321,0.00349
2067.59448,0.00393
2065.66575,0.00433
2063.73703,0.00421
2061.80830,0.00374
2059.87957,0.00341
2057.95085,0.00330
2056.02212,0.00331
2054.09340,0.00335
2052.16467,0.00331
2050.23594,0.00315
2048.30722,0.00311
2046.37849,0.00333
2044.44976,0.00382
2042.52104,0.00426
2040.59231,0.00413
2038.66359,0.00359
2036.73486,0.00326
2034.80613,0.00312
2032.87741,0.00289
2030.94868,0.00274
2029.01996,0.00284
2027.09123,0.00302
2025.16250,0.00316
2023.23378,0.00317
2021.30505,0.00326
2019.37632,0.00384
2017.44760,0.00447
2015.51887,0.00434
2013.59015,0.00370
2011.66142,0.00332
2009.73269,0.00347
2007.80397,0.00384
2005.87524,0.00390
2003.94651,0.00372
2002.01779,0.00368
2000.08906,0.00374
1998.16034,0.00368
1996.23161,0.00369
1994.30288,0.00419
1992.37416,0.00485
1990.44543,0.00495
1988.51670,0.00465
1986.58798,0.00433
1984.65925,0.00414
1982.73053,0.00414
1980.80180,0.00414
1978.87307,0.00401
1976.94435,0.00387
1975.01562,0.00379
1973.08690,0.00385
1971.15817,0.00419
1969.22944,0.00492
1967.30072,0.00551
1965.37199,0.00525
1963.44326,0.00471
1961.51454,0.00460
1959.58581,0.00478
1957.65709,0.00504
1955.72836,0.00523
1953.79963,0.00511
1951.87091,0.00479
1949.94218,0.00464
1948.01345,0.00493
1946.08473,0.00556
1944.15600,0.00611
1942.22728,0.00607
1940.29855,0.00538
1938.36982,0.00470
1936.44110,0.00443
1934.51237,0.00452
1932.58365,0.00464
1930.65492,0.00454
1928.72619,0.00435
1926.79747,0.00454
1924.86874,0.00539
1922.94001,0.00620
1921.01129,0.00619
1919.08256,0.00589
1917.15384,0.00543
1915.22511,0.00485
1913.29638,0.00473
1911.36766,0.00523
1909.43893,0.00571
1907.51020,0.00542
1905.58148,0.00479
1903.65275,0.00444
1901.72403,0.00439
1899.79530,0.00449
1897.86657,0.00479
1895.93785,0.00514
1894.00912,0.00520
1892.08040,0.00527
1890.15167,0.00547
1888.22294,0.00524
1886.29422,0.00484
1884.36549,0.00460
1882.43676,0.00435
1880.50804,0.00416
1878.57931,0.00416
1876.65059,0.00424
1874.72186,0.00446
1872.79313,0.00522
1870.86441,0.00686
1868.93568,0.00830
1867.00695,0.00736
1865.07823,0.00573
1863.14950,0.00508
1861.22078,0.00510
1859.29205,0.00507
1857.36332,0.00476
1855.43460,0.00449
1853.50587,0.00448
1851.57715,0.00482
1849.64842,0.00571
1847.71969,0.00710
1845.79097,0.00837
1843.86224,0.00818
1841.93351,0.00672
1840.00479,0.00588
1838.07606,0.00579
1836.14734,0.00579
1834.21861,0.00583
1832.28988,0.00640
1830.36116,0.00732
1828.43243,0.00750
1826.50370,0.00729
1824.57498,0.00695
1822.64625,0.00614
1820.71753,0.00548
1818.78880,0.00539
1816.86007,0.00543
1814.93135,0.00557
1813.00262,0.00627
1811.07390,0.00698
1809.14517,0.00677
1807.21644,0.00620
1805.28772,0.00615
1803.35899,0.00696
1801.43026,0.00791
1799.50154,0.00806
1797.57281,0.00811
1795.64409,0.00864
1793.71536,0.00938
1791.78663,0.00917
1789.85791,0.00749
1787.92918,0.00627
1786.00045,0.00613
1784.07173,0.00650
1782.14300,0.00693
1780.21428,0.00713
1778.28555,0.00694
1776.35682,0.00712
1774.42810,0.00821
1772.49937,0.00946
1770.57065,0.00909
1768.64192,0.00783
1766.71319,0.00670
1764.78447,0.00639
1762.85574,0.00710
1760.92701,0.00788
1758.99829,0.00811
1757.06956,0.00807
1755.14084,0.00802
1753.21211,0.00900
1751.28338,0.01181
1749.35466,0.01511
1747.42593,0.01623
1745.49720,0.01669
1743.56848,0.01767
1741.63975,0.01946
1739.71103,0.02240
1737.78230,0.02531
1735.85357,0.02856
1733.92485,0.03455
1731.99612,0.03871
1730.06740,0.03971
1728.13867,0.04090
1726.20994,0.04311
1724.28122,0.04657
1722.35249,0.05033
1720.42376,0.05380
1718.49504,0.05957
1716.56631,0.06799
1714.63759,0.06868
1712.70886,0.06638
1710.78013,0.06468
1708.85141,0.06364
1706.92268,0.06270
1704.99395,0.06072
1703.06523,0.05835
1701.13650,0.05606
1699.20778,0.05322
1697.27905,0.04845
1695.35032,0.04159
1693.42160,0.03735
1691.49287,0.03569
1689.56415,0.03519
1687.63542,0.03503
1685.70669,0.03493
1683.77797,0.03433
1681.84924,0.03233
1679.92051,0.02986
1677.99179,0.02788
1676.06306,0.02680
1674.13434,0.02628
1672.20561,0.02623
1670.27688,0.02559
1668.34816,0.02277
1666.41943,0.02067
1664.49070,0.02009
1662.56198,0.01970
1660.63325,0.01846
1658.70453,0.01785
1656.77580,0.01848
1654.84707,0.02004
1652.91835,0.02081
1650.98962,0.02005
1649.06090,0.02042
1647.13217,0.02031
1645.20344,0.01769
1643.27472,0.01590
1641.34599,0.01544
1639.41726,0.01604
1637.48854,0.01743
1635.55981,0.01696
1633.63109,0.01450
1631.70236,0.01335
1629.77363,0.01328
1627.84491,0.01381
1625.91618,0.01445
1623.98745,0.01496
1622.05873,0.01467
1620.13000,0.01420
1618.20128,0.01452
1616.27255,0.01464
1614.34382,0.01361
1612.41510,0.01297
1610.48637,0.01303
1608.55764,0.01308
1606.62892,0.01257
1604.70019,0.01207
1602.77147,0.01171
1600.84274,0.01104
1598.91401,0.01047
1596.98529,0.01051
1595.05656,0.01072
1593.12784,0.01063
1591.19911,0.01043
1589.27038,0.01019
1587.34166,0.00997
1585.41293,0.01011
1583.48420,0.01067
1581.55548,0.01153
1579.62675,0.01281
1577.69803,0.01458
1575.76930,0.01494
1573.84057,0.01361
1571.91185,0.01314
1569.98312,0.01326
1568.05439,0.01291
1566.12567,0.01258
1564.19694,0.01278
1562.26822,0.01339
1560.33949,0.01499
1558.41076,0.01804
1556.48204,0.01778
1554.55331,0.01607
1552.62459,0.01476
1550.69586,0.01414
1548.76713,0.01379
1546.83841,0.01450
1544.90968,0.01749
1542.98095,0.02245
1541.05223,0.02297
1539.12350,0.01728
1537.19478,0.01562
1535.26605,0.01594
1533.33732,0.01587
1531.40860,0.01472
1529.47987,0.01471
1527.55114,0.01648
1525.62242,0.01874
1523.69369,0.02020
1521.76497,0.02040
1519.83624,0.01899
1517.90751,0.01817
1515.97879,0.01725
1514.05006,0.01642
1512.12134,0.01721
1510.19261,0.02010
1508.26388,0.02441
1506.33516,0.02294
1504.40643,0.01934
1502.47770,0.01779
1500.54898,0.01707
1498.62025,0.01660
1496.69153,0.01483
1494.76280,0.01264
1492.83407,0.01231
1490.90535,0.01424
1488.97662,0.01603
1487.04789,0.01394
1485.11917,0.01182
1483.19044,0.01125
1481.26172,0.01159
1479.33299,0.01221
1477.40426,0.01373
1475.47554,0.01681
1473.54681,0.01962
1471.61809,0.01807
1469.68936,0.01572
1467.76063,0.01487
1465.83191,0.01488
1463.90318,0.01466
1461.97445,0.01464
1460.04573,0.01610
1458.11700,0.02002
1456.18828,0.02094
1454.25955,0.01796
1452.33082,0.01613
1450.40210,0.01549
1448.47337,0.01540
1446.54464,0.01470
1444.61592,0.01362
1442.68719,0.01303
1440.75847,0.01315
1438.82974,0.01413
1436.90101,0.01537
1434.97229,0.01492
1433.04356,0.01376
1431.11484,0.01297
1429.18611,0.01204
1427.25738,0.01123
1425.32866,0.01122
1423.39993,0.01179
1421.47120,0.01280
1419.54248,0.01516
1417.61375,0.01740
1415.68503,0.01834
1413.75630,0.02044
1411.82757,0.02385
1409.89885,0.02636
1407.97012,0.02686
1406.04139,0.02576
1404.11267,0.02317
1402.18394,0.02089
1400.25522,0.02018
1398.32649,0.02036
1396.39776,0.01993
1394.46904,0.01797
1392.54031,0.01591
1390.61159,0.01534
1388.68286,0.01605
1386.75413,0.01618
1384.82541,0.01494
1382.89668,0.01408
1380.96795,0.01415
1379.03923,0.01467
1377.11050,0.01543
1375.18178,0.01639
1373.25305,0.01642
1371.32432,0.01563
1369.39560,0.01498
1367.46687,0.01431
1365.53814,0.01404
1363.60942,0.01442
1361.68069,0.01385
1359.75197,0.01216
1357.82324,0.01112
1355.89451,0.01092
1353.96579,0.01099
1352.03706,0.01138
1350.10834,0.01254
1348.17961,0.01445
1346.25088,0.01705
1344.32216,0.02047
1342.39343,0.02469
1340.46470,0.02892
1338.53598,0.02938
1336.60725,0.02525
1334.67853,0.02055
1332.74980,0.01683
1330.82107,0.01419
1328.89235,0.01248
1326.96362,0.01156
1325.03489,0.01134
1323.10617,0.01178
1321.17744,0.01281
1319.24872,0.01393
1317.31999,0.01445
1315.39126,0.01478
1313.46254,0.01521
1311.53381,0.01537
1309.60509,0.01557
1307.67636,0.01609
1305.74763,0.01668
1303.81891,0.01738
1301.89018,0.01837
1299.96145,0.01964
1298.03273,0.02121
1296.10400,0.02290
1294.17528,0.02456
1292.24655,0.02634
1290.31782,0.02831
1288.38910,0.03015
1286.46037,0.03159
1284.53164,0.03290
1282.60292,0.03446
1280.67419,0.03619
1278.74547,0.03791
1276.81674,0.03965
1274.88801,0.04160
1272.95929,0.04385
1271.03056,0.04621
1269.10183,0.04836
1267.17311,0.05034
1265.24438,0.05225
1263.31566,0.05408
1261.38693,0.05574
1259.45820,0.05698
1257.52948,0.05779
1255.60075,0.05857
1253.67203,0.05960
1251.74330,0.06090
1249.81457,0.06241
1247.88585,0.06406
1245.95712,0.06571
1244.02839,0.06713
1242.09967,0.06812
1240.17094,0.06859
1238.24222,0.06844
1236.31349,0.06759
1234.38476,0.06612
1232.45604,0.06427
1230.52731,0.06228
1228.59858,0.06040
1226.66986,0.05870
1224.74113,0.05705
1222.81241,0.05534
1220.88368,0.05354
1218.95495,0.05155
1217.02623,0.04939
1215.09750,0.04731
1213.16878,0.04537
1211.24005,0.04349
1209.31132,0.04170
1207.38260,0.04007
1205.45387,0.03853
1203.52514,0.03702
1201.59642,0.03553
1199.66769,0.03407
1197.73897,0.03262
1195.81024,0.03118
1193.88151,0.02984
1191.95279,0.02861
1190.02406,0.02752
1188.09533,0.02661
1186.16661,0.02582
1184.23788,0.02515
1182.30916,0.02465
1180.38043,0.02437
1178.45170,0.02430
1176.52298,0.02433
1174.59425,0.02418
1172.66553,0.02364
1170.73680,0.02279
1168.80807,0.02182
1166.87935,0.02092
1164.95062,0.02018
1163.02189,0.01961
1161.09317,0.01921
1159.16444,0.01901
1157.23572,0.01900
1155.30699,0.01908
1153.37826,0.01928
1151.44954,0.01966
1149.52081,0.02025
1147.59208,0.02106
1145.66336,0.02216
1143.73463,0.02356
1141.80591,0.02528
1139.87718,0.02735
1137.94845,0.02983
1136.01973,0.03270
1134.09100,0.03577
1132.16228,0.03883
1130.23355,0.04179
1128.30482,0.04457
1126.37610,0.04707
1124.44737,0.04928
1122.51864,0.05115
1120.58992,0.05251
1118.66119,0.05325
1116.73247,0.05355
1114.80374,0.05370
1112.87501,0.05396
1110.94629,0.05456
1109.01756,0.05559
1107.08883,0.05709
1105.16011,0.05893
1103.23138,0.06099
1101.30266,0.06314
1099.37393,0.06513
1097.44520,0.06674
1095.51648,0.06778
1093.58775,0.06819
1091.65903,0.06808
1089.73030,0.06763
1087.80157,0.06689
1085.87285,0.06595
1083.94412,0.06480
1082.01539,0.06338
1080.08667,0.06166
1078.15794,0.05971
1076.22922,0.05767
1074.30049,0.05561
1072.37176,0.05353
1070.44304,0.05147
1068.51431,0.04948
1066.58558,0.04766
1064.65686,0.04598
1062.72813,0.04445
1060.79941,0.04314
1058.87068,0.04210
1056.94195,0.04125
1055.01323,0.04060
1053.08450,0.04024
1051.15578,0.04010
1049.22705,0.04009
1047.29832,0.04016
1045.36960,0.04017
1043.44087,0.04001
1041.51214,0.03961
1039.58342,0.03898
1037.65469,0.03823
1035.72597,0.03738
1033.79724,0.03640
1031.86851,0.03533
1029.93979,0.03448
1028.01106,0.03472
1026.08233,0.03701
1024.15361,0.04116
1022.22488,0.04588
1020.29616,0.05029
1018.36743,0.05388
1016.43870,0.05547
1014.50998,0.05426
1012.58125,0.05104
1010.65253,0.04750
1008.72380,0.04462
1006.79507,0.04243
1004.86635,0.04073
1002.93762,0.03941
1001.00889,0.03834
999.08017,0.03744
997.15144,0.03669
995.22272,0.03613
993.29399,0.03581
991.36526,0.03563
989.43654,0.03536
987.50781,0.03502
985.57908,0.03477
983.65036,0.03465
981.72163,0.03469
979.79291,0.03487
977.86418,0.03524
975.93545,0.03596
974.00673,0.03704
972.07800,0.03809
970.14928,0.03858
968.22055,0.03839
966.29182,0.03789
964.36310,0.03726
962.43437,0.03657
960.50564,0.03588
958.57692,0.03513
956.64819,0.03434
954.71947,0.03366
952.79074,0.03305
950.86201,0.03242
948.93329,0.03198
947.00456,0.03185
945.07583,0.03176
943.14711,0.03152
941.21838,0.03133
939.28966,0.03122
937.36093,0.03105
935.43220,0.03078
933.50348,0.03052
931.57475,0.03030
929.64603,0.03010
927.71730,0.02988
925.78857,0.02960
923.85985,0.02927
921.93112,0.02892
920.00239,0.02849
918.07367,0.02805
916.14494,0.02780
914.21622,0.02773
912.28749,0.02765
910.35876,0.02762
908.43004,0.02776
906.50131,0.02810
904.57258,0.02853
902.64386,0.02889
900.71513,0.02915
898.78641,0.02930
896.85768,0.02930
894.92895,0.02934
893.00023,0.02939
891.07150,0.02907
889.14277,0.02858
887.21405,0.02853
885.28532,0.02900
883.35660,0.02972
881.42787,0.03074
879.49914,0.03232
877.57042,0.03468
875.64169,0.03814
873.71297,0.04240
871.78424,0.04528
869.85551,0.04475
867.92679,0.04179
865.99806,0.03873
864.06933,0.03666
862.14061,0.03562
860.21188,0.03531
858.28316,0.03534
856.35443,0.03553
854.42570,0.03587
852.49698,0.03639
850.56825,0.03720
848.63952,0.03808
846.71080,0.03860
844.78207,0.03859
842.85335,0.03817
840.92462,0.03748
838.99589,0.03653
837.06717,0.03535
835.13844,0.03421
833.20972,0.03341
831.28099,0.03289
829.35226,0.03240
827.42354,0.03191
825.49481,0.03155
823.56608,0.03139
821.63736,0.03139
819.70863,0.03126
817.77991,0.03076
815.85118,0.03010
813.92245,0.02978
811.99373,0.02990
810.06500,0.03006
808.13627,0.03006
806.20755,0.02995
804.27882,0.02974
802.35010,0.02953
800.42137,0.02945
798.49264,0.02956
796.56392,0.03006
794.63519,0.03100
792.70647,0.03172
790.77774,0.03145
788.84901,0.03043
786.92029,0.02936
784.99156,0.02840
783.06283,0.02752
781.13411,0.02692
779.20538,0.02669
777.27666,0.02662
775.34793,0.02663
773.41920,0.02641
771.49048,0.02552
769.56175,0.02433
767.63302,0.02350
765.70430,0.02297
763.77557,0.02247
761.84685,0.02200
759.91812,0.02142
757.98939,0.02055
756.06067,0.01972
754.13194,0.01924
752.20322,0.01876
750.27449,0.01806
748.34576,0.01758
746.41704,0.01753
744.48831,0.01778
742.55958,0.01872
740.63086,0.02096
738.70213,0.02475
736.77341,0.03030
734.84468,0.03757
732.91595,0.04576
730.98723,0.05451
729.05850,0.06404
727.12977,0.07361
725.20105,0.08160
723.27232,0.08648
721.34360,0.08738
719.41487,0.08463
717.48614,0.08009
715.55742,0.07543
713.62869,0.07114
711.69997,0.06736
709.77124,0.06418
707.84251,0.06167
705.91379,0.05962
703.98506,0.05770
702.05633,0.05578
700.12761,0.05399
698.19888,0.05230
696.27016,0.05047
694.34143,0.04862
692.41270,0.04708
690.48398,0.04591
688.55525,0.04482
686.62652,0.04362
684.69780,0.04257
682.76907,0.04194
680.84035,0.04144
678.91162,0.04087
676.98289,0.04041
675.05417,0.04019
673.12544,0.04002
671.19672,0.03984
669.26799,0.03946
667.33926,0.03859
665.41054,0.03803
663.48181,0.03783
661.55308,0.03785
659.62436,0.03795
657.69563,0.03770
655.76691,0.03720
653.83818,0.03687
651.90945,0.03677
649.98073,0.03654
648.05200,0.03612
646.12327,0.03594
644.19455,0.03607
642.26582,0.03617
640.33710,0.03612
638.40837,0.03603
636.47964,0.03614
634.55092,0.03639
632.62219,0.03646
630.69347,0.03608
628.76474,0.03523
626.83601,0.03409
624.90729,0.03286
622.97856,0.03112
621.04983,0.02900
619.12111,0.02937
617.19238,0.03289
615.26366,0.03569
613.33493,0.03527
611.40620,0.03312
609.47748,0.03178
607.54875,0.03214
605.62002,0.03324
603.69130,0.03350
601.76257,0.03329
599.83385,0.03405
