4497.78948,-0.00641
4495.86076,-0.00642
4493.93203,-0.00640
4492.00330,-0.00644
4490.07458,-0.00636
4488.14585,-0.00615
4486.21712,-0.00608
4484.28840,-0.00624
4482.35967,-0.00637
4480.43095,-0.00632
4478.50222,-0.00621
4476.57349,-0.00612
4474.64477,-0.00608
4472.71604,-0.00607
4470.78732,-0.00606
4468.85859,-0.00608
4466.92986,-0.00620
4465.00114,-0.00631
4463.07241,-0.00626
4461.14368,-0.00618
4459.21496,-0.00617
4457.28623,-0.00614
4455.35751,-0.00606
4453.42878,-0.00601
4451.50005,-0.00605
4449.57133,-0.00617
4447.64260,-0.00624
4445.71387,-0.00610
4443.78515,-0.00581
4441.85642,-0.00559
4439.92770,-0.00559
4437.99897,-0.00581
4436.07024,-0.00606
4434.14152,-0.00618
4432.21279,-0.00610
4430.28407,-0.00597
4428.35534,-0.00595
4426.42661,-0.00602
4424.49789,-0.00604
4422.56916,-0.00597
4420.64043,-0.00593
4418.71171,-0.00592
4416.78298,-0.00581
4414.85426,-0.00566
4412.92553,-0.00562
4410.99680,-0.00564
4409.06808,-0.00560
4407.13935,-0.00552
4405.21062,-0.00549
4403.28190,-0.00549
4401.35317,-0.00547
4399.42445,-0.00543
4397.49572,-0.00547
4395.56699,-0.00557
4393.63827,-0.00558
4391.70954,-0.00548
4389.78082,-0.00546
4387.85209,-0.00559
4385.92336,-0.00574
4383.99464,-0.00575
4382.06591,-0.00558
4380.13718,-0.00539
4378.20846,-0.00538
4376.27973,-0.00549
4374.35101,-0.00561
4372.42228,-0.00569
4370.49355,-0.00574
4368.56483,-0.00573
4366.63610,-0.00562
4364.70737,-0.00550
4362.77865,-0.00542
4360.84992,-0.00536
4358.92120,-0.00538
4356.99247,-0.00551
4355.06374,-0.00565
4353.13502,-0.00571
4351.20629,-0.00570
4349.27757,-0.00564
4347.34884,-0.00556
4345.42011,-0.00554
4343.49139,-0.00553
4341.56266,-0.00549
4339.63393,-0.00549
4337.70521,-0.00551
4335.77648,-0.00546
4333.84776,-0.00542
4331.91903,-0.00548
4329.99030,-0.00549
4328.06158,-0.00536
4326.13285,-0.00524
4324.20412,-0.00516
4322.27540,-0.00514
4320.34667,-0.00516
4318.41795,-0.00511
4316.48922,-0.00506
4314.56049,-0.00515
4312.63177,-0.00529
4310.70304,-0.00531
4308.77432,-0.00520
4306.84559,-0.00509
4304.91686,-0.00509
4302.98814,-0.00515
4301.05941,-0.00523
4299.13068,-0.00531
4297.20196,-0.00535
4295.27323,-0.00533
4293.34451,-0.00526
4291.41578,-0.00511
4289.48705,-0.00495
4287.55833,-0.00494
4285.62960,-0.00507
4283.70087,-0.00522
4281.77215,-0.00525
4279.84342,-0.00518
4277.91470,-0.00517
4275.98597,-0.00519
4274.05724,-0.00513
4272.12852,-0.00507
4270.19979,-0.00509
4268.27107,-0.00513
4266.34234,-0.00510
4264.41361,-0.00502
4262.48489,-0.00501
4260.55616,-0.00497
4258.62743,-0.00488
4256.69871,-0.00486
4254.76998,-0.00493
4252.84126,-0.00498
4250.91253,-0.00503
4248.98380,-0.00513
4247.05508,-0.00519
4245.12635,-0.00517
4243.19762,-0.00511
4241.26890,-0.00503
4239.34017,-0.00501
4237.41145,-0.00510
4235.48272,-0.00514
4233.55399,-0.00506
4231.62527,-0.00498
4229.69654,-0.00492
4227.76782,-0.00485
4225.83909,-0.00480
4223.91036,-0.00480
4221.98164,-0.00479
4220.05291,-0.00482
4218.12418,-0.00494
4216.19546,-0.00499
4214.26673,-0.00488
4212.33801,-0.00477
4210.40928,-0.00478
4208.48055,-0.00483
4206.55183,-0.00482
4204.62310,-0.00477
4202.69437,-0.00476
4200.76565,-0.00479
4198.83692,-0.00483
4196.90820,-0.00484
4194.97947,-0.00480
4193.05074,-0.00472
4191.12202,-0.00470
4189.19329,-0.00477
4187.26456,-0.00484
4185.33584,-0.00481
4183.40711,-0.00474
4181.47839,-0.00471
4179.54966,-0.00474
4177.62093,-0.00471
4175.69221,-0.00461
4173.76348,-0.00456
4171.83476,-0.00461
4169.90603,-0.00463
4167.97730,-0.00458
4166.04858,-0.00453
4164.11985,-0.00455
4162.19112,-0.00457
4160.26240,-0.00447
4158.33367,-0.00436
4156.40495,-0.00437
4154.47622,-0.00442
4152.54749,-0.00450
4150.61877,-0.00459
4148.69004,-0.00458
4146.76131,-0.00455
4144.83259,-0.00455
4142.90386,-0.00447
4140.97514,-0.00435
4139.04641,-0.00436
4137.11768,-0.00442
4135.18896,-0.00439
4133.26023,-0.00442
4131.33151,-0.00456
4129.40278,-0.00466
4127.47405,-0.00463
4125.54533,-0.00452
4123.61660,-0.00440
4121.68787,-0.00437
4119.75915,-0.00439
4117.83042,-0.00435
4115.90170,-0.00428
4113.97297,-0.00434
4112.04424,-0.00441
4110.11552,-0.00431
4108.18679,-0.00406
4106.25806,-0.00389
4104.32934,-0.00395
4102.40061,-0.00409
4100.47189,-0.00413
4098.54316,-0.00410
4096.61443,-0.00410
4094.68571,-0.00414
4092.75698,-0.00413
4090.82826,-0.00399
4088.89953,-0.00384
4086.97080,-0.00376
4085.04208,-0.00371
4083.11335,-0.00368
4081.18462,-0.00371
4079.25590,-0.00379
4077.32717,-0.00391
4075.39845,-0.00398
4073.46972,-0.00401
4071.54099,-0.00410
4069.61227,-0.00421
4067.68354,-0.00420
4065.75481,-0.00406
4063.82609,-0.00389
4061.89736,-0.00379
4059.96864,-0.00382
4058.03991,-0.00392
4056.11118,-0.00390
4054.18246,-0.00385
4052.25373,-0.00388
4050.32501,-0.00393
4048.39628,-0.00388
4046.46755,-0.00371
4044.53883,-0.00355
4042.61010,-0.00359
4040.68137,-0.00378
4038.75265,-0.00392
4036.82392,-0.00391
4034.89520,-0.00382
4032.96647,-0.00375
4031.03774,-0.00378
4029.10902,-0.00377
4027.18029,-0.00359
4025.25156,-0.00347
4023.32284,-0.00357
4021.39411,-0.00359
4019.46539,-0.00346
4017.53666,-0.00338
4015.60793,-0.00342
4013.67921,-0.00351
4011.75048,-0.00350
4009.82176,-0.00332
4007.89303,-0.00324
4005.96430,-0.00341
4004.03558,-0.00364
4002.10685,-0.00377
4000.17812,-0.00374
3998.24940,-0.00352
3996.32067,-0.00327
3994.39195,-0.00313
3992.46322,-0.00296
3990.53449,-0.00294
3988.60577,-0.00326
3986.67704,-0.00348
3984.74831,-0.00331
3982.81959,-0.00310
3980.89086,-0.00312
3978.96214,-0.00307
3977.03341,-0.00263
3975.10468,-0.00221
3973.17596,-0.00222
3971.24723,-0.00243
3969.31851,-0.00282
3967.38978,-0.00326
3965.46105,-0.00318
3963.53233,-0.00257
3961.60360,-0.00216
3959.67487,-0.00216
3957.74615,-0.00225
3955.81742,-0.00239
3953.88870,-0.00239
3951.95997,-0.00177
3950.03124,-0.00083
3948.10252,-0.00073
3946.17379,-0.00115
3944.24506,-0.00115
3942.31634,-0.00137
3940.38761,-0.00210
3938.45889,-0.00257
3936.53016,-0.00236
3934.60143,-0.00124
3932.67271,0.00012
3930.74398,0.00000
3928.81526,-0.00098
3926.88653,-0.00094
3924.95780,-0.00013
3923.02908,-0.00011
3921.10035,-0.00034
3919.17162,-0.00001
3917.24290,-0.00023
3915.31417,-0.00147
3913.38545,-0.00252
3911.45672,-0.00288
3909.52799,-0.00251
3907.59927,-0.00105
3905.67054,0.00181
3903.74181,0.00442
3901.81309,0.00452
3899.88436,0.00288
3897.95564,0.00077
3896.02691,-0.00017
3894.09818,0.00041
3892.16946,0.00099
3890.24073,0.00010
3888.31201,-0.00016
3886.38328,0.00110
3884.45455,0.00219
3882.52583,0.00191
3880.59710,0.00071
3878.66837,-0.00055
3876.73965,-0.00072
3874.81092,0.00048
3872.88220,0.00239
3870.95347,0.00349
3869.02474,0.00286
3867.09602,0.00250
3865.16729,0.00332
3863.23856,0.00301
3861.30984,0.00130
3859.38111,0.00069
3857.45239,0.00166
3855.52366,0.00375
3853.59493,0.00531
3851.66621,0.00343
3849.73748,0.00122
3847.80876,0.00001
3845.88003,0.00009
3843.95130,0.00145
3842.02258,0.00360
3840.09385,0.00575
3838.16512,0.00575
3836.23640,0.00358
3834.30767,0.00175
3832.37895,0.00062
3830.45022,0.00030
3828.52149,0.00073
3826.59277,0.00133
3824.66404,0.00184
3822.73531,0.00292
3820.80659,0.00405
3818.87786,0.00366
3816.94914,0.00235
3815.02041,0.00029
3813.09168,-0.00117
3811.16296,-0.00151
3809.23423,-0.00084
3807.30550,0.00042
3805.37678,0.00138
3803.44805,0.00244
3801.51933,0.00334
3799.59060,0.00274
3797.66187,0.00132
3795.73315,-0.00055
3793.80442,-0.00188
3791.87570,-0.00234
3789.94697,-0.00213
3788.01824,-0.00132
3786.08952,-0.00047
3784.16079,-0.00051
3782.23206,-0.00079
3780.30334,-0.00061
3778.37461,-0.00092
3776.44589,-0.00172
3774.51716,-0.00188
3772.58843,-0.00105
3770.65971,0.00032
3768.73098,0.00102
3766.80225,0.00090
3764.87353,0.00037
3762.94480,0.00011
3761.01608,0.00099
3759.08735,0.00241
3757.15862,0.00281
3755.22990,0.00324
3753.30117,0.00527
3751.37245,0.00867
3749.44372,0.00889
3747.51499,0.00791
3745.58627,0.00702
3743.65754,0.00546
3741.72881,0.00465
3739.80009,0.00505
3737.87136,0.00672
3735.94264,0.00832
3734.01391,0.00621
3732.08518,0.00316
3730.15646,0.00195
3728.22773,0.00247
3726.29900,0.00384
3724.37028,0.00407
3722.44155,0.00282
3720.51283,0.00136
3718.58410,0.00044
3716.65537,0.00041
3714.72665,0.00138
3712.79792,0.00331
3710.86920,0.00378
3708.94047,0.00159
3707.01174,-0.00002
3705.08302,-0.00047
3703.15429,-0.00015
3701.22556,-0.00015
3699.29684,-0.00068
3697.36811,-0.00077
3695.43939,-0.00023
3693.51066,0.00099
3691.58193,0.00329
3689.65321,0.00461
3687.72448,0.00233
3685.79575,0.00031
3683.86703,-0.00049
3681.93830,-0.00011
3680.00958,0.00143
3678.08085,0.00357
3676.15212,0.00492
3674.22340,0.00449
3672.29467,0.00464
3670.36595,0.00443
3668.43722,0.00183
3666.50849,-0.00029
3664.57977,-0.00119
3662.65104,-0.00129
3660.72231,-0.00093
3658.79359,-0.00020
3656.86486,0.00076
3654.93614,0.00129
3653.00741,0.00199
3651.07868,0.00480
3649.14996,0.00826
3647.22123,0.00493
3645.29250,0.00206
3643.36378,0.00085
3641.43505,0.00015
3639.50633,-0.00031
3637.57760,-0.00034
3635.64887,0.00017
3633.72015,0.00121
3631.79142,0.00270
3629.86270,0.00439
3627.93397,0.00366
3626.00524,0.00161
3624.07652,0.00080
3622.14779,0.00166
3620.21906,0.00393
3618.29034,0.00503
3616.36161,0.00459
3614.43289,0.00424
3612.50416,0.00372
3610.57543,0.00339
3608.64671,0.00288
3606.71798,0.00141
3604.78925,0.00045
3602.86053,0.00085
3600.93180,0.00187
3599.00308,0.00228
3597.07435,0.00217
3595.14562,0.00177
3593.21690,0.00099
3591.28817,0.00105
3589.35945,0.00282
3587.43072,0.00406
3585.50199,0.00229
3583.57327,0.00062
3581.64454,0.00001
3579.71581,-0.00014
3577.78709,-0.00028
3575.85836,-0.00048
3573.92964,-0.00058
3572.00091,-0.00012
3570.07218,0.00162
3568.14346,0.00467
3566.21473,0.00540
3564.28600,0.00313
3562.35728,0.00139
3560.42855,0.00034
3558.49983,-0.00047
3556.57110,-0.00069
3554.64237,-0.00011
3552.71365,0.00038
3550.78492,0.00033
3548.85620,0.00091
3546.92747,0.00232
3544.99874,0.00237
3543.07002,0.00054
3541.14129,-0.00100
3539.21256,-0.00127
3537.28384,-0.00093
3535.35511,-0.00099
3533.42639,-0.00104
3531.49766,-0.00028
3529.56893,0.00100
3527.64021,0.00197
3525.71148,0.00230
3523.78275,0.00163
3521.85403,0.00015
3519.92530,-0.00098
3517.99658,-0.00159
3516.06785,-0.00199
3514.13912,-0.00189
3512.21040,-0.00113
3510.28167,-0.00057
3508.35295,-0.00078
3506.42422,-0.00061
3504.49549,0.00052
3502.56677,0.00090
3500.63804,-0.00023
3498.70931,-0.00118
3496.78059,-0.00146
3494.85186,-0.00173
3492.92314,-0.00202
3490.99441,-0.00185
3489.06568,-0.00137
3487.13696,-0.00117
3485.20823,-0.00115
3483.27950,-0.00085
3481.35078,-0.00081
3479.42205,-0.00146
3477.49333,-0.00194
3475.56460,-0.00195
3473.63587,-0.00200
3471.70715,-0.00222
3469.77842,-0.00229
3467.84970,-0.00214
3465.92097,-0.00190
3463.99224,-0.00160
3462.06352,-0.00140
3460.13479,-0.00152
3458.20606,-0.00180
3456.27734,-0.00208
3454.34861,-0.00230
3452.41989,-0.00227
3450.49116,-0.00177
3448.56243,-0.00099
3446.63371,-0.00068
3444.70498,-0.00092
3442.77625,-0.00121
3440.84753,-0.00157
3438.91880,-0.00188
3436.99008,-0.00201
3435.06135,-0.00196
3433.13262,-0.00179
3431.20390,-0.00167
3429.27517,-0.00170
3427.34644,-0.00176
3425.41772,-0.00163
3423.48899,-0.00122
3421.56027,-0.00093
3419.63154,-0.00130
3417.70281,-0.00193
3415.77409,-0.00224
3413.84536,-0.00232
3411.91664,-0.00240
3409.98791,-0.00250
3408.05918,-0.00254
3406.13046,-0.00250
3404.20173,-0.00242
3402.27300,-0.00241
3400.34428,-0.00235
3398.41555,-0.00213
3396.48683,-0.00194
3394.55810,-0.00181
3392.62937,-0.00184
3390.70065,-0.00219
3388.77192,-0.00246
3386.84319,-0.00234
3384.91447,-0.00216
3382.98574,-0.00218
3381.05702,-0.00228
3379.12829,-0.00233
3377.19956,-0.00241
3375.27084,-0.00251
3373.34211,-0.00257
3371.41339,-0.00251
3369.48466,-0.00228
3367.55593,-0.00202
3365.62721,-0.00192
3363.69848,-0.00196
3361.76975,-0.00202
3359.84103,-0.00206
3357.91230,-0.00208
3355.98358,-0.00214
3354.05485,-0.00232
3352.12612,-0.00245
3350.19740,-0.00245
3348.26867,-0.00240
3346.33994,-0.00234
3344.41122,-0.00224
3342.48249,-0.00213
3340.55377,-0.00203
3338.62504,-0.00186
3336.69631,-0.00174
3334.76759,-0.00187
3332.83886,-0.00210
3330.91014,-0.00214
3328.98141,-0.00199
3327.05268,-0.00189
3325.12396,-0.00197
3323.19523,-0.00213
3321.26650,-0.00225
3319.33778,-0.00227
3317.40905,-0.00221
3315.48033,-0.00207
3313.55160,-0.00186
3311.62287,-0.00167
3309.69415,-0.00160
3307.76542,-0.00176
3305.83669,-0.00198
3303.90797,-0.00204
3301.97924,-0.00199
3300.05052,-0.00194
3298.12179,-0.00192
3296.19306,-0.00196
3294.26434,-0.00192
3292.33561,-0.00180
3290.40689,-0.00175
3288.47816,-0.00183
3286.54943,-0.00185
3284.62071,-0.00172
3282.69198,-0.00164
3280.76325,-0.00167
3278.83453,-0.00163
3276.90580,-0.00148
3274.97708,-0.00138
3273.04835,-0.00143
3271.11962,-0.00153
3269.19090,-0.00159
3267.26217,-0.00161
3265.33344,-0.00164
3263.40472,-0.00166
3261.47599,-0.00166
3259.54727,-0.00163
3257.61854,-0.00153
3255.68981,-0.00144
3253.76109,-0.00155
3251.83236,-0.00174
3249.90364,-0.00176
3247.97491,-0.00149
3246.04618,-0.00122
3244.11746,-0.00124
3242.18873,-0.00135
3240.26000,-0.00136
3238.33128,-0.00136
3236.40255,-0.00141
3234.47383,-0.00144
3232.54510,-0.00139
3230.61637,-0.00129
3228.68765,-0.00134
3226.75892,-0.00154
3224.83019,-0.00163
3222.90147,-0.00145
3220.97274,-0.00121
3219.04402,-0.00119
3217.11529,-0.00130
3215.18656,-0.00132
3213.25784,-0.00128
3211.32911,-0.00127
3209.40039,-0.00127
3207.47166,-0.00129
3205.54293,-0.00127
3203.61421,-0.00122
3201.68548,-0.00113
3199.75675,-0.00099
3197.82803,-0.00090
3195.89930,-0.00098
3193.97058,-0.00110
3192.04185,-0.00111
3190.11312,-0.00108
3188.18440,-0.00101
3186.25567,-0.00090
3184.32694,-0.00086
3182.39822,-0.00087
3180.46949,-0.00079
3178.54077,-0.00072
3176.61204,-0.00081
3174.68331,-0.00092
3172.75459,-0.00095
3170.82586,-0.00097
3168.89714,-0.00101
3166.96841,-0.00104
3165.03968,-0.00106
3163.11096,-0.00107
3161.18223,-0.00105
3159.25350,-0.00097
3157.32478,-0.00088
3155.39605,-0.00083
3153.46733,-0.00083
3151.53860,-0.00086
3149.60987,-0.00084
3147.68115,-0.00080
3145.75242,-0.00076
3143.82369,-0.00072
3141.89497,-0.00068
3139.96624,-0.00066
3138.03752,-0.00065
3136.10879,-0.00061
3134.18006,-0.00057
3132.25134,-0.00060
3130.32261,-0.00060
3128.39389,-0.00046
3126.46516,-0.00028
3124.53643,-0.00016
3122.60771,-0.00008
3120.67898,-0.00004
3118.75025,-0.00002
3116.82153,-0.00004
3114.89280,-0.00010
3112.96408,-0.00009
3111.03535,-0.00001
3109.10662,0.00001
3107.17790,-0.00000
3105.24917,0.00007
3103.32044,0.00025
3101.39172,0.00033
3099.46299,0.00026
3097.53427,0.00020
3095.60554,0.00015
3093.67681,0.00001
3091.74809,-0.00009
3089.81936,-0.00008
3087.89063,-0.00002
3085.96191,0.00010
3084.03318,0.00035
3082.10446,0.00059
3080.17573,0.00064
3078.24700,0.00051
3076.31828,0.00034
3074.38955,0.00025
3072.46083,0.00025
3070.53210,0.00034
3068.60337,0.00052
3066.67465,0.00068
3064.74592,0.00070
3062.81719,0.00059
3060.88847,0.00053
3058.95974,0.00063
3057.03102,0.00077
3055.10229,0.00077
3053.17356,0.00063
3051.24484,0.00056
3049.31611,0.00058
3047.38738,0.00049
3045.45866,0.00031
3043.52993,0.00020
3041.60121,0.00019
3039.67248,0.00022
3037.74375,0.00031
3035.81503,0.00052
3033.88630,0.00080
3031.95758,0.00091
3030.02885,0.00075
3028.10012,0.00056
3026.17140,0.00050
3024.24267,0.00052
3022.31394,0.00055
3020.38522,0.00053
3018.45649,0.00055
3016.52777,0.00074
3014.59904,0.00104
3012.67031,0.00127
3010.74159,0.00130
3008.81286,0.00123
3006.88413,0.00124
3004.95541,0.00129
3003.02668,0.00126
3001.09796,0.00121
2999.16923,0.00126
2997.24050,0.00139
2995.31178,0.00151
2993.38305,0.00154
2991.45433,0.00155
2989.52560,0.00161
2987.59687,0.00170
2985.66815,0.00181
2983.73942,0.00195
2981.81069,0.00217
2979.88197,0.00240
2977.95324,0.00260
2976.02452,0.00279
2974.09579,0.00302
2972.16706,0.00323
2970.23834,0.00339
2968.30961,0.00349
2966.38088,0.00353
2964.45216,0.00352
2962.52343,0.00349
2960.59471,0.00344
2958.66598,0.00337
2956.73725,0.00330
2954.80853,0.00320
2952.87980,0.00304
2950.95108,0.00287
2949.02235,0.00273
2947.09362,0.00257
2945.16490,0.00241
2943.23617,0.00227
2941.30744,0.00218
2939.37872,0.00211
2937.44999,0.00210
2935.52127,0.00217
2933.59254,0.00226
2931.66381,0.00234
2929.73509,0.00238
2927.80636,0.00246
2925.87763,0.00257
2923.94891,0.00265
2922.02018,0.00271
2920.09146,0.00274
2918.16273,0.00273
2916.23400,0.00272
2914.30528,0.00272
2912.37655,0.00275
2910.44783,0.00278
2908.51910,0.00277
2906.59037,0.00271
2904.66165,0.00266
2902.73292,0.00262
2900.80419,0.00255
2898.87547,0.00242
2896.94674,0.00231
2895.01802,0.00226
2893.08929,0.00225
2891.16056,0.00223
2889.23184,0.00220
2887.30311,0.00214
2885.37438,0.00211
2883.44566,0.00210
2881.51693,0.00208
2879.58821,0.00209
2877.65948,0.00209
2875.73075,0.00206
2873.80203,0.00204
2871.87330,0.00207
2869.94458,0.00210
2868.01585,0.00208
2866.08712,0.00206
2864.15840,0.00209
2862.22967,0.00216
2860.30094,0.00224
2858.37222,0.00231
2856.44349,0.00239
2854.51477,0.00243
2852.58604,0.00243
2850.65731,0.00238
2848.72859,0.00228
2846.79986,0.00213
2844.87113,0.00198
2842.94241,0.00187
2841.01368,0.00180
2839.08496,0.00173
2837.15623,0.00168
2835.22750,0.00163
2833.29878,0.00162
2831.37005,0.00164
2829.44133,0.00165
2827.51260,0.00163
2825.58387,0.00156
2823.65515,0.00147
2821.72642,0.00140
2819.79769,0.00138
2817.86897,0.00143
2815.94024,0.00149
2814.01152,0.00156
2812.08279,0.00160
2810.15406,0.00157
2808.22534,0.00151
2806.29661,0.00149
2804.36788,0.00150
2802.43916,0.00151
2800.51043,0.00155
2798.58171,0.00157
2796.65298,0.00154
2794.72425,0.00154
2792.79553,0.00156
2790.86680,0.00154
2788.93808,0.00149
2787.00935,0.00148
2785.08062,0.00152
2783.15190,0.00157
2781.22317,0.00161
2779.29444,0.00162
2777.36572,0.00159
2775.43699,0.00154
2773.50827,0.00152
2771.57954,0.00155
2769.65081,0.00158
2767.72209,0.00156
2765.79336,0.00153
2763.86463,0.00153
2761.93591,0.00153
2760.00718,0.00155
2758.07846,0.00161
2756.14973,0.00165
2754.22100,0.00163
2752.29228,0.00159
2750.36355,0.00162
2748.43483,0.00168
2746.50610,0.00171
2744.57737,0.00169
2742.64865,0.00166
2740.71992,0.00166
2738.79119,0.00167
2736.86247,0.00169
2734.93374,0.00168
2733.00502,0.00168
2731.07629,0.00170
2729.14756,0.00173
2727.21884,0.00174
2725.29011,0.00173
2723.36138,0.00173
2721.43266,0.00173
2719.50393,0.00171
2717.57521,0.00167
2715.64648,0.00166
2713.71775,0.00167
2711.78903,0.00169
2709.86030,0.00170
2707.93157,0.00173
2706.00285,0.00175
2704.07412,0.00174
2702.14540,0.00173
2700.21667,0.00175
2698.28794,0.00177
2696.35922,0.00178
2694.43049,0.00175
2692.50177,0.00175
2690.57304,0.00178
2688.64431,0.00183
2686.71559,0.00187
2684.78686,0.00185
2682.85813,0.00181
2680.92941,0.00180
2679.00068,0.00183
2677.07196,0.00183
2675.14323,0.00181
2673.21450,0.00180
2671.28578,0.00182
2669.35705,0.00186
2667.42832,0.00190
2665.49960,0.00194
2663.57087,0.00196
2661.64215,0.00197
2659.71342,0.00197
2657.78469,0.00194
2655.85597,0.00191
2653.92724,0.00192
2651.99852,0.00196
2650.06979,0.00193
2648.14106,0.00183
2646.21234,0.00173
2644.28361,0.00172
2642.35488,0.00176
2640.42616,0.00182
2638.49743,0.00186
2636.56871,0.00188
2634.63998,0.00184
2632.71125,0.00179
2630.78253,0.00178
2628.85380,0.00179
2626.92507,0.00181
2624.99635,0.00178
2623.06762,0.00169
2621.13890,0.00163
2619.21017,0.00164
2617.28144,0.00170
2615.35272,0.00176
2613.42399,0.00174
2611.49527,0.00167
2609.56654,0.00163
2607.63781,0.00162
2605.70909,0.00161
2603.78036,0.00164
2601.85163,0.00169
2599.92291,0.00173
2597.99418,0.00174
2596.06546,0.00174
2594.13673,0.00176
2592.20800,0.00182
2590.27928,0.00186
2588.35055,0.00184
2586.42182,0.00180
2584.49310,0.00180
2582.56437,0.00184
2580.63565,0.00185
2578.70692,0.00185
2576.77819,0.00181
2574.84947,0.00177
2572.92074,0.00181
2570.99202,0.00188
2569.06329,0.00191
2567.13456,0.00189
2565.20584,0.00184
2563.27711,0.00180
2561.34838,0.00178
2559.41966,0.00175
2557.49093,0.00174
2555.56221,0.00174
2553.63348,0.00173
2551.70475,0.00173
2549.77603,0.00173
2547.84730,0.00175
2545.91857,0.00179
2543.98985,0.00183
2542.06112,0.00184
2540.13240,0.00185
2538.20367,0.00187
2536.27494,0.00192
2534.34622,0.00198
2532.41749,0.00202
2530.48877,0.00198
2528.56004,0.00192
2526.63131,0.00187
2524.70259,0.00183
2522.77386,0.00179
2520.84513,0.00180
2518.91641,0.00186
2516.98768,0.00187
2515.05896,0.00182
2513.13023,0.00179
2511.20150,0.00185
2509.27278,0.00191
2507.34405,0.00193
2505.41532,0.00197
2503.48660,0.00198
2501.55787,0.00192
2499.62915,0.00181
2497.70042,0.00178
2495.77169,0.00184
2493.84297,0.00193
2491.91424,0.00196
2489.98552,0.00194
2488.05679,0.00191
2486.12806,0.00189
2484.19934,0.00188
2482.27061,0.00190
2480.34188,0.00193
2478.41316,0.00194
2476.48443,0.00193
2474.55571,0.00196
2472.62698,0.00202
2470.69825,0.00205
2468.76953,0.00207
2466.84080,0.00205
2464.91207,0.00203
2462.98335,0.00208
2461.05462,0.00212
2459.12590,0.00206
2457.19717,0.00195
2455.26844,0.00189
2453.33972,0.00190
2451.41099,0.00192
2449.48227,0.00194
2447.55354,0.00195
2445.62481,0.00194
2443.69609,0.00189
2441.76736,0.00187
2439.83863,0.00196
2437.90991,0.00213
2435.98118,0.00228
2434.05246,0.00235
2432.12373,0.00237
2430.19500,0.00235
2428.26628,0.00230
2426.33755,0.00225
2424.40882,0.00227
2422.48010,0.00235
2420.55137,0.00238
2418.62265,0.00236
2416.69392,0.00231
2414.76519,0.00225
2412.83647,0.00229
2410.90774,0.00237
2408.97902,0.00242
2407.05029,0.00243
2405.12156,0.00246
2403.19284,0.00249
2401.26411,0.00255
2399.33538,0.00260
2397.40666,0.00262
2395.47793,0.00262
2393.54921,0.00259
2391.62048,0.00259
2389.69175,0.00263
2387.76303,0.00272
2385.83430,0.00295
2383.90557,0.00323
2381.97685,0.00340
2380.04812,0.00332
2378.11940,0.00302
2376.19067,0.00246
2374.26194,0.00168
2372.33322,0.00075
2370.40449,-0.00043
2368.47576,-0.00187
2366.54704,-0.00314
2364.61831,-0.00380
2362.68959,-0.00384
2360.76086,-0.00358
2358.83213,-0.00336
2356.90341,-0.00303
2354.97468,-0.00222
2353.04596,-0.00072
2351.11723,0.00077
2349.18850,0.00136
2347.25978,0.00085
2345.33105,-0.00053
2343.40232,-0.00195
2341.47360,-0.00259
2339.54487,-0.00263
2337.61615,-0.00247
2335.68742,-0.00219
2333.75869,-0.00160
2331.82997,-0.00078
2329.90124,-0.00022
2327.97251,0.00009
2326.04379,0.00055
2324.11506,0.00117
2322.18634,0.00178
2320.25761,0.00232
2318.32888,0.00263
2316.40016,0.00277
2314.47143,0.00299
2312.54271,0.00337
2310.61398,0.00368
2308.68525,0.00375
2306.75653,0.00363
2304.82780,0.00347
2302.89907,0.00331
2300.97035,0.00321
2299.04162,0.00320
2297.11290,0.00318
2295.18417,0.00311
2293.25544,0.00304
2291.32672,0.00304
2289.39799,0.00308
2287.46926,0.00308
2285.54054,0.00303
2283.61181,0.00295
2281.68309,0.00280
2279.75436,0.00265
2277.82563,0.00258
2275.89691,0.00250
2273.96818,0.00240
2272.03946,0.00237
2270.11073,0.00240
2268.18200,0.00243
2266.25328,0.00245
2264.32455,0.00246
2262.39582,0.00243
2260.46710,0.00242
2258.53837,0.00246
2256.60965,0.00254
2254.68092,0.00263
2252.75219,0.00263
2250.82347,0.00261
2248.89474,0.00264
2246.96601,0.00267
2245.03729,0.00269
2243.10856,0.00266
2241.17984,0.00249
2239.25111,0.00230
2237.32238,0.00226
2235.39366,0.00237
2233.46493,0.00242
2231.53621,0.00235
2229.60748,0.00235
2227.67875,0.00245
2225.75003,0.00247
2223.82130,0.00237
2221.89257,0.00224
2219.96385,0.00220
2218.03512,0.00232
2216.10640,0.00239
2214.17767,0.00224
2212.24894,0.00202
2210.32022,0.00186
2208.39149,0.00187
2206.46276,0.00189
2204.53404,0.00187
2202.60531,0.00199
2200.67659,0.00203
2198.74786,0.00176
2196.81913,0.00156
2194.89041,0.00159
2192.96168,0.00157
2191.03296,0.00152
2189.10423,0.00150
2187.17550,0.00142
2185.24678,0.00120
2183.31805,0.00085
2181.38932,0.00067
2179.46060,0.00085
2177.53187,0.00105
2175.60315,0.00113
2173.67442,0.00124
2171.74569,0.00127
2169.81697,0.00107
2167.88824,0.00084
2165.95951,0.00078
2164.03079,0.00086
2162.10206,0.00084
2160.17334,0.00072
2158.24461,0.00089
2156.31588,0.00143
2154.38716,0.00191
2152.45843,0.00212
2150.52971,0.00220
2148.60098,0.00218
2146.67225,0.00218
2144.74353,0.00235
2142.81480,0.00258
2140.88607,0.00259
2138.95735,0.00249
2137.02862,0.00247
2135.09990,0.00249
2133.17117,0.00249
2131.24244,0.00250
2129.31372,0.00252
2127.38499,0.00252
2125.45626,0.00249
2123.52754,0.00248
2121.59881,0.00250
2119.67009,0.00250
2117.74136,0.00247
2115.81263,0.00243
2113.88391,0.00245
2111.95518,0.00245
2110.02646,0.00238
2108.09773,0.00237
2106.16900,0.00242
2104.24028,0.00245
2102.31155,0.00252
2100.38282,0.00264
2098.45410,0.00277
2096.52537,0.00287
2094.59665,0.00292
2092.66792,0.00304
2090.73919,0.00324
2088.81047,0.00323
2086.88174,0.00299
2084.95301,0.00278
2083.02429,0.00274
2081.09556,0.00281
2079.16684,0.00285
2077.23811,0.00281
2075.30938,0.00274
2073.38066,0.00271
2071.45193,0.00280
2069.52321,0.00299
2067.59448,0.00330
2065.66575,0.00359
2063.73703,0.00361
2061.80830,0.00344
2059.87957,0.00325
2057.95085,0.00309
2056.02212,0.00300
2054.09340,0.00293
2052.16467,0.00281
2050.23594,0.00269
2048.30722,0.00265
2046.37849,0.00271
2044.44976,0.00302
2042.52104,0.00345
2040.59231,0.00352
2038.66359,0.00318
2036.73486,0.00286
2034.80613,0.00275
2032.87741,0.00269
2030.94868,0.00268
2029.01996,0.00279
2027.09123,0.00295
2025.16250,0.00309
2023.23378,0.00310
2021.30505,0.00321
2019.37632,0.00377
2017.44760,0.00424
2015.51887,0.00393
2013.59015,0.00334
2011.66142,0.00317
2009.73269,0.00340
2007.80397,0.00359
2005.87524,0.00346
2003.94651,0.00321
2002.01779,0.00315
2000.08906,0.00318
1998.16034,0.00311
1996.23161,0.00322
1994.30288,0.00385
1992.37416,0.00450
1990.44543,0.00460
1988.51670,0.00441
1986.58798,0.00400
1984.65925,0.00357
1982.73053,0.00347
1980.80180,0.00345
1978.87307,0.00331
1976.94435,0.00322
1975.01562,0.00329
1973.08690,0.00361
1971.15817,0.00424
1969.22944,0.00506
1967.30072,0.00549
1965.37199,0.00512
1963.44326,0.00462
1961.51454,0.00447
1959.58581,0.00445
1957.65709,0.00451
1955.72836,0.00470
1953.79963,0.00481
1951.87091,0.00477
1949.94218,0.00477
1948.01345,0.00498
1946.08473,0.00545
1944.15600,0.00589
1942.22728,0.00569
1940.29855,0.00492
1938.36982,0.00438
1936.44110,0.00423
1934.51237,0.00425
1932.58365,0.00414
1930.65492,0.00389
1928.72619,0.00378
1926.79747,0.00415
1924.86874,0.00518
1922.94001,0.00601
1921.01129,0.00587
1919.08256,0.00548
1917.15384,0.00497
1915.22511,0.00427
1913.29638,0.00411
1911.36766,0.00473
1909.43893,0.00529
1907.51020,0.00489
1905.58148,0.00416
1903.65275,0.00387
1901.72403,0.00389
1899.79530,0.00399
1897.86657,0.00427
1895.93785,0.00463
1894.00912,0.00473
1892.08040,0.00490
1890.15167,0.00523
1888.22294,0.00499
1886.29422,0.00449
1884.36549,0.00420
1882.43676,0.00396
1880.50804,0.00383
1878.57931,0.00382
1876.65059,0.00381
1874.72186,0.00395
1872.79313,0.00468
1870.86441,0.00633
1868.93568,0.00788
1867.00695,0.00702
1865.07823,0.00532
1863.14950,0.00457
1861.22078,0.00458
1859.29205,0.00462
1857.36332,0.00430
1855.43460,0.00394
1853.50587,0.00386
1851.57715,0.00420
1849.64842,0.00516
1847.71969,0.00671
1845.79097,0.00825
1843.86224,0.00818
1841.93351,0.00653
1840.00479,0.00547
1838.07606,0.00529
1836.14734,0.00530
1834.21861,0.00537
1832.28988,0.00600
1830.36116,0.00701
1828.43243,0.00724
1826.50370,0.00700
1824.57498,0.00664
1822.64625,0.00583
1820.71753,0.00513
1818.78880,0.00498
1816.86007,0.00500
1814.93135,0.00519
1813.00262,0.00592
1811.07390,0.00662
1809.14517,0.00640
1807.21644,0.00583
1805.28772,0.00582
1803.35899,0.00670
1801.43026,0.00769
1799.50154,0.00775
1797.57281,0.00774
1795.64409,0.00827
1793.71536,0.00902
1791.78663,0.00871
1789.85791,0.00696
1787.92918,0.00578
1786.00045,0.00573
1784.07173,0.00618
1782.14300,0.00663
1780.21428,0.00686
1778.28555,0.00670
1776.35682,0.00688
1774.42810,0.00797
1772.49937,0.00930
1770.57065,0.00905
1768.64192,0.00780
1766.71319,0.00661
1764.78447,0.00627
1762.85574,0.00698
1760.92701,0.00775
1758.99829,0.00800
1757.06956,0.00802
1755.14084,0.00803
1753.21211,0.00908
1751.28338,0.01201
1749.35466,0.01548
1747.42593,0.01676
1745.49720,0.01732
1743.56848,0.01839
1741.63975,0.02028
1739.71103,0.02335
1737.78230,0.02634
1735.85357,0.02966
1733.92485,0.03588
1731.99612,0.04028
1730.06740,0.04135
1728.13867,0.04253
1726.20994,0.04470
1724.28122,0.04815
1722.35249,0.05188
1720.42376,0.05522
1718.49504,0.06079
1716.56631,0.06936
1714.63759,0.07027
1712.70886,0.06785
1710.78013,0.06587
1708.85141,0.06454
1706.92268,0.06337
1704.99395,0.06107
1703.06523,0.05825
1701.13650,0.05555
1699.20778,0.05242
1697.27905,0.04734
1695.35032,0.04024
1693.42160,0.03592
1691.49287,0.03428
1689.56415,0.03381
1687.63542,0.03364
1685.70669,0.03349
1683.77797,0.03291
1681.84924,0.03085
1679.92051,0.02833
1677.99179,0.02638
1676.06306,0.02540
1674.13434,0.02491
1672.20561,0.02475
1670.27688,0.02409
1668.34816,0.02130
1666.41943,0.01916
1664.49070,0.01854
1662.56198,0.01821
1660.63325,0.01705
1658.70453,0.01642
1656.77580,0.01698
1654.84707,0.01853
1652.91835,0.01947
1650.98962,0.01883
1649.06090,0.01922
1647.13217,0.01912
1645.20344,0.01646
1643.27472,0.01462
1641.34599,0.01415
1639.41726,0.01476
1637.48854,0.01617
1635.55981,0.01576
1633.63109,0.01332
1631.70236,0.01215
1629.77363,0.01205
1627.84491,0.01252
1625.91618,0.01313
1623.98745,0.01373
1622.05873,0.01360
1620.13000,0.01318
1618.20128,0.01350
1616.27255,0.01366
1614.34382,0.01267
1612.41510,0.01207
1610.48637,0.01223
1608.55764,0.01238
1606.62892,0.01188
1604.70019,0.01134
1602.77147,0.01094
1600.84274,0.01022
1598.91401,0.00959
1596.98529,0.00960
1595.05656,0.00982
1593.12784,0.00974
1591.19911,0.00954
1589.27038,0.00928
1587.34166,0.00906
1585.41293,0.00922
1583.48420,0.00978
1581.55548,0.01061
1579.62675,0.01188
1577.69803,0.01368
1575.76930,0.01410
1573.84057,0.01271
1571.91185,0.01215
1569.98312,0.01226
1568.05439,0.01196
1566.12567,0.01165
1564.19694,0.01185
1562.26822,0.01250
1560.33949,0.01424
1558.41076,0.01750
1556.48204,0.01714
1554.55331,0.01535
1552.62459,0.01398
1550.69586,0.01327
1548.76713,0.01292
1546.83841,0.01372
1544.90968,0.01690
1542.98095,0.02198
1541.05223,0.02235
1539.12350,0.01657
1537.19478,0.01485
1535.26605,0.01511
1533.33732,0.01503
1531.40860,0.01391
1529.47987,0.01396
1527.55114,0.01580
1525.62242,0.01810
1523.69369,0.01958
1521.76497,0.01976
1519.83624,0.01834
1517.90751,0.01750
1515.97879,0.01653
1514.05006,0.01568
1512.12134,0.01646
1510.19261,0.01928
1508.26388,0.02346
1506.33516,0.02204
1504.40643,0.01846
1502.47770,0.01689
1500.54898,0.01613
1498.62025,0.01564
1496.69153,0.01396
1494.76280,0.01185
1492.83407,0.01157
1490.90535,0.01362
1488.97662,0.01554
1487.04789,0.01343
1485.11917,0.01130
1483.19044,0.01072
1481.26172,0.01103
1479.33299,0.01163
1477.40426,0.01314
1475.47554,0.01621
1473.54681,0.01895
1471.61809,0.01728
1469.68936,0.01484
1467.76063,0.01395
1465.83191,0.01402
1463.90318,0.01391
1461.97445,0.01393
1460.04573,0.01541
1458.11700,0.01943
1456.18828,0.02052
1454.25955,0.01756
1452.33082,0.01570
1450.40210,0.01500
1448.47337,0.01490
1446.54464,0.01425
1444.61592,0.01325
1442.68719,0.01274
1440.75847,0.01297
1438.82974,0.01405
1436.90101,0.01536
1434.97229,0.01482
1433.04356,0.01353
1431.11484,0.01265
1429.18611,0.01166
1427.25738,0.01078
1425.32866,0.01071
1423.39993,0.01124
1421.47120,0.01226
1419.54248,0.01464
1417.61375,0.01695
1415.68503,0.01794
1413.75630,0.02004
1411.82757,0.02338
1409.89885,0.02575
1407.97012,0.02606
1406.04139,0.02484
1404.11267,0.02226
1402.18394,0.02006
1400.25522,0.01944
1398.32649,0.01970
1396.39776,0.01928
1394.46904,0.01734
1392.54031,0.01528
1390.61159,0.01468
1388.68286,0.01533
1386.75413,0.01541
1384.82541,0.01414
1382.89668,0.01330
1380.96795,0.01349
1379.03923,0.01413
1377.11050,0.01498
1375.18178,0.01603
1373.25305,0.01616
1371.32432,0.01538
1369.39560,0.01469
1367.46687,0.01399
1365.53814,0.01372
1363.60942,0.01409
1361.68069,0.01344
1359.75197,0.01166
1357.82324,0.01064
1355.89451,0.01051
1353.96579,0.01062
1352.03706,0.01099
1350.10834,0.01209
1348.17961,0.01394
1346.25088,0.01651
1344.32216,0.01983
1342.39343,0.02389
1340.46470,0.02799
1338.53598,0.02840
1336.60725,0.02427
1334.67853,0.01961
1332.74980,0.01601
1330.82107,0.01351
1328.89235,0.01192
1326.96362,0.01113
1325.03489,0.01108
1323.10617,0.01168
1321.17744,0.01285
1319.24872,0.01409
1317.31999,0.01475
1315.39126,0.01523
1313.46254,0.01582
1311.53381,0.01613
1309.60509,0.01641
1307.67636,0.01696
1305.74763,0.01759
1303.81891,0.01829
1301.89018,0.01922
1299.96145,0.02046
1298.03273,0.02201
1296.10400,0.02361
1294.17528,0.02514
1292.24655,0.02684
1290.31782,0.02880
1288.38910,0.03068
1286.46037,0.03212
1284.53164,0.03335
1282.60292,0.03484
1280.67419,0.03657
1278.74547,0.03827
1276.81674,0.03996
1274.88801,0.04187
1272.95929,0.04412
1271.03056,0.04650
1269.10183,0.04868
1267.17311,0.05063
1265.24438,0.05247
1263.31566,0.05424
1261.38693,0.05582
1259.45820,0.05693
1257.52948,0.05755
1255.60075,0.05817
1253.67203,0.05913
1251.74330,0.06040
1249.81457,0.06180
1247.88585,0.06329
1245.95712,0.06483
1244.02839,0.06614
1242.09967,0.06698
1240.17094,0.06727
1238.24222,0.06699
1236.31349,0.06608
1234.38476,0.06469
1232.45604,0.06307
1230.52731,0.06141
1228.59858,0.05986
1226.66986,0.05846
1224.74113,0.05707
1222.81241,0.05552
1220.88368,0.05376
1218.95495,0.05172
1217.02623,0.04939
1215.09750,0.04702
1213.16878,0.04476
1211.24005,0.04257
1209.31132,0.04051
1207.38260,0.03864
1205.45387,0.03693
1203.52514,0.03533
1201.59642,0.03380
1199.66769,0.03233
1197.73897,0.03090
1195.81024,0.02948
1193.88151,0.02815
1191.95279,0.02698
1190.02406,0.02598
1188.09533,0.02507
1186.16661,0.02429
1184.23788,0.02368
1182.30916,0.02326
1180.38043,0.02311
1178.45170,0.02316
1176.52298,0.02321
1174.59425,0.02305
1172.66553,0.02261
1170.73680,0.02195
1168.80807,0.02116
1166.87935,0.02037
1164.95062,0.01971
1163.02189,0.01918
1161.09317,0.01880
1159.16444,0.01864
1157.23572,0.01869
1155.30699,0.01888
1153.37826,0.01923
1151.44954,0.01976
1149.52081,0.02047
1147.59208,0.02140
1145.66336,0.02263
1143.73463,0.02412
1141.80591,0.02580
1139.87718,0.02779
1137.94845,0.03015
1136.01973,0.03286
1134.09100,0.03578
1132.16228,0.03874
1130.23355,0.04164
1128.30482,0.04440
1126.37610,0.04687
1124.44737,0.04896
1122.51864,0.05064
1120.58992,0.05182
1118.66119,0.05255
1116.73247,0.05289
1114.80374,0.05291
1112.87501,0.05291
1110.94629,0.05334
1109.01756,0.05439
1107.08883,0.05599
1105.16011,0.05800
1103.23138,0.06025
1101.30266,0.06244
1099.37393,0.06432
1097.44520,0.06578
1095.51648,0.06676
1093.58775,0.06714
1091.65903,0.06700
1089.73030,0.06640
1087.80157,0.06545
1085.87285,0.06432
1083.94412,0.06304
1082.01539,0.06152
1080.08667,0.05979
1078.15794,0.05793
1076.22922,0.05597
1074.30049,0.05391
1072.37176,0.05173
1070.44304,0.04948
1068.51431,0.04728
1066.58558,0.04530
1064.65686,0.04358
1062.72813,0.04207
1060.79941,0.04076
1058.87068,0.03971
1056.94195,0.03892
1055.01323,0.03837
1053.08450,0.03809
1051.15578,0.03805
1049.22705,0.03820
1047.29832,0.03836
1045.36960,0.03834
1043.44087,0.03818
1041.51214,0.03791
1039.58342,0.03744
1037.65469,0.03674
1035.72597,0.03593
1033.79724,0.03504
1031.86851,0.03410
1029.93979,0.03347
1028.01106,0.03396
1026.08233,0.03628
1024.15361,0.04015
1022.22488,0.04455
1020.29616,0.04874
1018.36743,0.05209
1016.43870,0.05336
1014.50998,0.05178
1012.58125,0.04834
1010.65253,0.04480
1008.72380,0.04193
1006.79507,0.03965
1004.86635,0.03790
1002.93762,0.03669
1001.00889,0.03575
999.08017,0.03490
997.15144,0.03418
995.22272,0.03360
993.29399,0.03319
991.36526,0.03292
989.43654,0.03265
987.50781,0.03230
985.57908,0.03202
983.65036,0.03193
981.72163,0.03210
979.79291,0.03242
977.86418,0.03278
975.93545,0.03330
974.00673,0.03417
972.07800,0.03520
970.14928,0.03585
968.22055,0.03583
966.29182,0.03523
964.36310,0.03435
962.43437,0.03352
960.50564,0.03282
958.57692,0.03209
956.64819,0.03131
954.71947,0.03066
952.79074,0.03014
950.86201,0.02968
948.93329,0.02940
947.00456,0.02932
945.07583,0.02919
943.14711,0.02898
941.21838,0.02876
939.28966,0.02852
937.36093,0.02831
935.43220,0.02826
933.50348,0.02821
931.57475,0.02804
929.64603,0.02781
927.71730,0.02763
925.78857,0.02747
923.85985,0.02726
921.93112,0.02695
920.00239,0.02659
918.07367,0.02632
916.14494,0.02611
914.21622,0.02587
912.28749,0.02571
910.35876,0.02577
908.43004,0.02609
906.50131,0.02661
904.57258,0.02703
902.64386,0.02713
900.71513,0.02714
898.78641,0.02728
896.85768,0.02733
894.92895,0.02719
893.00023,0.02711
891.07150,0.02713
889.14277,0.02714
887.21405,0.02726
885.28532,0.02766
883.35660,0.02833
881.42787,0.02938
879.49914,0.03100
877.57042,0.03337
875.64169,0.03670
873.71297,0.04068
871.78424,0.04317
869.85551,0.04217
867.92679,0.03896
865.99806,0.03605
864.06933,0.03428
862.14061,0.03344
860.21188,0.03329
858.28316,0.03347
856.35443,0.03361
854.42570,0.03377
852.49698,0.03417
850.56825,0.03482
848.63952,0.03559
846.71080,0.03626
844.78207,0.03646
842.85335,0.03594
840.92462,0.03492
838.99589,0.03383
837.06717,0.03286
835.13844,0.03202
833.20972,0.03135
831.28099,0.03085
829.35226,0.03033
827.42354,0.02983
825.49481,0.02946
823.56608,0.02912
821.63736,0.02874
819.70863,0.02845
817.77991,0.02826
815.85118,0.02806
813.92245,0.02792
811.99373,0.02785
810.06500,0.02781
808.13627,0.02786
806.20755,0.02793
804.27882,0.02788
802.35010,0.02779
800.42137,0.02782
798.49264,0.02791
796.56392,0.02819
794.63519,0.02908
792.70647,0.03001
790.77774,0.02988
788.84901,0.02882
786.92029,0.02761
784.99156,0.02640
783.06283,0.02533
781.13411,0.02487
779.20538,0.02488
777.27666,0.02491
775.34793,0.02507
773.41920,0.02511
771.49048,0.02427
769.56175,0.02293
767.63302,0.02211
765.70430,0.02166
763.77557,0.02110
761.84685,0.02048
759.91812,0.01975
757.98939,0.01900
756.06067,0.01852
754.13194,0.01813
752.20322,0.01766
750.27449,0.01713
748.34576,0.01655
746.41704,0.01595
744.48831,0.01579
742.55958,0.01704
740.63086,0.02004
738.70213,0.02444
736.77341,0.03024
734.84468,0.03741
732.91595,0.04537
730.98723,0.05390
729.05850,0.06300
727.12977,0.07211
725.20105,0.07982
723.27232,0.08441
721.34360,0.08489
719.41487,0.08176
717.48614,0.07682
715.55742,0.07186
713.62869,0.06748
711.69997,0.06373
709.77124,0.06069
707.84251,0.05828
705.91379,0.05617
703.98506,0.05408
702.05633,0.05197
700.12761,0.05003
698.19888,0.04823
696.27016,0.04642
694.34143,0.04475
692.41270,0.04333
690.48398,0.04218
688.55525,0.04124
686.62652,0.04039
684.69780,0.03959
682.76907,0.03896
680.84035,0.03842
678.91162,0.03786
676.98289,0.03742
675.05417,0.03713
673.12544,0.03680
671.19672,0.03631
669.26799,0.03540
667.33926,0.03451
665.41054,0.03450
663.48181,0.03457
661.55308,0.03447
659.62436,0.03439
657.69563,0.03425
655.76691,0.03410
653.83818,0.03401
651.90945,0.03385
649.98073,0.03348
648.05200,0.03317
646.12327,0.03306
644.19455,0.03304
642.26582,0.03306
640.33710,0.03312
638.40837,0.03312
636.47964,0.03328
634.55092,0.03367
632.62219,0.03382
630.69347,0.03327
628.76474,0.03214
626.83601,0.03084
624.90729,0.02961
622.97856,0.02853
621.04983,0.02832
619.12111,0.02955
617.19238,0.03160
615.26366,0.03278
613.33493,0.03150
611.40620,0.02848
609.47748,0.02640
607.54875,0.02620
605.62002,0.02688
603.69130,0.02826
601.76257,0.03004
599.83385,0.03142
