7497.03301,0.84857
7495.10426,0.85245
7493.17552,0.85712
7491.24677,0.86082
7489.31803,0.85903
7487.38928,0.85057
7485.46054,0.84386
7483.53179,0.84261
7481.60305,0.83913
7479.67430,0.83302
7477.74556,0.83233
7475.81681,0.83578
7473.88807,0.83717
7471.95932,0.83796
7470.03057,0.83808
7468.10183,0.83544
7466.17308,0.83528
7464.24434,0.83802
7462.31559,0.83859
7460.38685,0.83940
7458.45810,0.84208
7456.52936,0.84402
7454.60061,0.84689
7452.67187,0.85139
7450.74312,0.85180
7448.81438,0.84394
7446.88563,0.83287
7444.95689,0.82897
7443.02814,0.83315
7441.09940,0.83547
7439.17065,0.83288
7437.24190,0.83218
7435.31316,0.83492
7433.38441,0.83506
7431.45567,0.83171
7429.52692,0.82808
7427.59818,0.82278
7425.66943,0.81744
7423.74069,0.81793
7421.81194,0.82321
7419.88320,0.82545
7417.95445,0.82218
7416.02571,0.81853
7414.09696,0.81564
7412.16822,0.81310
7410.23947,0.81410
7408.31073,0.81876
7406.38198,0.82373
7404.45323,0.82486
7402.52449,0.82103
7400.59574,0.81845
7398.66700,0.82235
7396.73825,0.82724
7394.80951,0.82505
7392.88076,0.81841
7390.95202,0.81446
7389.02327,0.81307
7387.09453,0.81316
7385.16578,0.81768
7383.23704,0.82186
7381.30829,0.81955
7379.37955,0.81699
7377.45080,0.81685
7375.52205,0.81425
7373.59331,0.81027
7371.66456,0.80629
7369.73582,0.80163
7367.80707,0.79892
7365.87833,0.80005
7363.94958,0.80191
7362.02084,0.80049
7360.09209,0.79719
7358.16335,0.79708
7356.23460,0.80253
7354.30586,0.81070
7352.37711,0.81502
7350.44837,0.81145
7348.51962,0.80304
7346.59088,0.79562
7344.66213,0.79232
7342.73338,0.79413
7340.80464,0.79862
7338.87589,0.80096
7336.94715,0.79949
7335.01840,0.79591
7333.08966,0.79128
7331.16091,0.78469
7329.23217,0.77908
7327.30342,0.78070
7325.37468,0.78724
7323.44593,0.79165
7321.51719,0.79325
7319.58844,0.79156
7317.65970,0.78662
7315.73095,0.78669
7313.80221,0.79270
7311.87346,0.79282
7309.94471,0.78690
7308.01597,0.78460
7306.08722,0.78560
7304.15848,0.78630
7302.22973,0.78758
7300.30099,0.79076
7298.37224,0.79622
7296.44350,0.79961
7294.51475,0.79747
7292.58601,0.79505
7290.65726,0.79406
7288.72852,0.79158
7286.79977,0.79003
7284.87103,0.79165
7282.94228,0.79471
7281.01353,0.79575
7279.08479,0.79383
7277.15604,0.79220
7275.22730,0.79078
7273.29855,0.78890
7271.36981,0.78914
7269.44106,0.79232
7267.51232,0.79903
7265.58357,0.80658
7263.65483,0.80912
7261.72608,0.80874
7259.79734,0.80865
7257.86859,0.80562
7255.93985,0.79937
7254.01110,0.79335
7252.08236,0.78902
7250.15361,0.78731
7248.22486,0.79074
7246.29612,0.79636
7244.36737,0.79680
7242.43863,0.79500
7240.50988,0.79550
7238.58114,0.79400
7236.65239,0.78985
7234.72365,0.78518
7232.79490,0.77952
7230.86616,0.77701
7228.93741,0.78264
7227.00867,0.79062
7225.07992,0.79058
7223.15118,0.78374
7221.22243,0.77917
7219.29369,0.77857
7217.36494,0.77694
7215.43619,0.77376
7213.50745,0.77328
7211.57870,0.77628
7209.64996,0.77868
7207.72121,0.77771
7205.79247,0.77556
7203.86372,0.77556
7201.93498,0.77859
7200.00623,0.78208
7198.07749,0.78377
7196.14874,0.78432
7194.22000,0.78419
7192.29125,0.78592
7190.36251,0.79082
7188.43376,0.79367
7186.50501,0.79197
7184.57627,0.79003
7182.64752,0.79076
7180.71878,0.79185
7178.79003,0.79230
7176.86129,0.79308
7174.93254,0.79256
7173.00380,0.79178
7171.07505,0.79243
7169.14631,0.78964
7167.21756,0.78217
7165.28882,0.77770
7163.36007,0.77780
7161.43133,0.77744
7159.50258,0.77784
7157.57384,0.78037
7155.64509,0.78243
7153.71634,0.78367
7151.78760,0.78358
7149.85885,0.78266
7147.93011,0.78383
7146.00136,0.78644
7144.07262,0.78664
7142.14387,0.78418
7140.21513,0.78392
7138.28638,0.78616
7136.35764,0.78557
7134.42889,0.78292
7132.50015,0.78278
7130.57140,0.78391
7128.64266,0.78256
7126.71391,0.78002
7124.78516,0.77950
7122.85642,0.78130
7120.92767,0.78521
7118.99893,0.78800
7117.07018,0.78628
7115.14144,0.78463
7113.21269,0.78397
7111.28395,0.78098
7109.35520,0.78009
7107.42646,0.78338
7105.49771,0.78648
7103.56897,0.78619
7101.64022,0.78330
7099.71148,0.78321
7097.78273,0.78578
7095.85399,0.78531
7093.92524,0.78394
7091.99649,0.78614
7090.06775,0.78959
7088.13900,0.79015
7086.21026,0.78647
7084.28151,0.78245
7082.35277,0.78391
7080.42402,0.78863
7078.49528,0.78969
7076.56653,0.78734
7074.63779,0.78626
7072.70904,0.78703
7070.78030,0.78648
7068.85155,0.78504
7066.92281,0.78701
7064.99406,0.79051
7063.06532,0.79098
7061.13657,0.78880
7059.20782,0.78518
7057.27908,0.78159
7055.35033,0.78067
7053.42159,0.78186
7051.49284,0.78206
7049.56410,0.78078
7047.63535,0.77788
7045.70661,0.77365
7043.77786,0.77369
7041.84912,0.77963
7039.92037,0.78395
7037.99163,0.78202
7036.06288,0.77740
7034.13414,0.77462
7032.20539,0.77351
7030.27664,0.77239
7028.34790,0.77191
7026.41915,0.77346
7024.49041,0.77675
7022.56166,0.77998
7020.63292,0.78235
7018.70417,0.78278
7016.77543,0.78052
7014.84668,0.77888
7012.91794,0.77974
7010.98919,0.78034
7009.06045,0.78041
7007.13170,0.78183
7005.20296,0.78197
7003.27421,0.77881
7001.34547,0.77732
6999.41672,0.77976
6997.48797,0.78127
6995.55923,0.78039
6993.63048,0.77883
6991.70174,0.77740
6989.77299,0.77843
6987.84425,0.78149
6985.91550,0.78371
6983.98676,0.78598
6982.05801,0.78998
6980.12927,0.79370
6978.20052,0.79314
6976.27178,0.78906
6974.34303,0.78676
6972.41429,0.78782
6970.48554,0.79040
6968.55680,0.79290
6966.62805,0.79372
6964.69930,0.79342
6962.77056,0.79539
6960.84181,0.80044
6958.91307,0.80447
6956.98432,0.80436
6955.05558,0.80140
6953.12683,0.79842
6951.19809,0.79760
6949.26934,0.79871
6947.34060,0.79914
6945.41185,0.79883
6943.48311,0.79877
6941.55436,0.79785
6939.62562,0.79700
6937.69687,0.79774
6935.76812,0.79830
6933.83938,0.79794
6931.91063,0.79937
6929.98189,0.80299
6928.05314,0.80425
6926.12440,0.80173
6924.19565,0.80014
6922.26691,0.80121
6920.33816,0.80179
6918.40942,0.80188
6916.48067,0.80292
6914.55193,0.80249
6912.62318,0.80230
6910.69444,0.80666
6908.76569,0.81119
6906.83695,0.81065
6904.90820,0.80838
6902.97945,0.80833
6901.05071,0.80913
6899.12196,0.80715
6897.19322,0.80200
6895.26447,0.79906
6893.33573,0.80068
6891.40698,0.80187
6889.47824,0.80245
6887.54949,0.80497
6885.62075,0.80587
6883.69200,0.80501
6881.76326,0.80583
6879.83451,0.80702
6877.90577,0.80782
6875.97702,0.80891
6874.04828,0.80913
6872.11953,0.80934
6870.19078,0.81063
6868.26204,0.81114
6866.33329,0.80883
6864.40455,0.80418
6862.47580,0.80053
6860.54706,0.80041
6858.61831,0.80245
6856.68957,0.80436
6854.76082,0.80640
6852.83208,0.80891
6850.90333,0.81060
6848.97459,0.81165
6847.04584,0.81288
6845.11710,0.81423
6843.18835,0.81531
6841.25960,0.81470
6839.33086,0.81239
6837.40211,0.81137
6835.47337,0.81332
6833.54462,0.81547
6831.61588,0.81514
6829.68713,0.81444
6827.75839,0.81515
6825.82964,0.81506
6823.90090,0.81358
6821.97215,0.81358
6820.04341,0.81598
6818.11466,0.81825
6816.18592,0.81768
6814.25717,0.81489
6812.32843,0.81465
6810.39968,0.81864
6808.47093,0.82301
6806.54219,0.82612
6804.61344,0.82840
6802.68470,0.82875
6800.75595,0.82700
6798.82721,0.82502
6796.89846,0.82503
6794.96972,0.82657
6793.04097,0.82649
6791.11223,0.82414
6789.18348,0.82227
6787.25474,0.82364
6785.32599,0.82683
6783.39725,0.82768
6781.46850,0.82695
6779.53975,0.82701
6777.61101,0.82585
6775.68226,0.82355
6773.75352,0.82390
6771.82477,0.82568
6769.89603,0.82530
6767.96728,0.82470
6766.03854,0.82476
6764.10979,0.82361
6762.18105,0.82259
6760.25230,0.82215
6758.32356,0.82206
6756.39481,0.82347
6754.46607,0.82552
6752.53732,0.82734
6750.60858,0.82927
6748.67983,0.83093
6746.75108,0.83134
6744.82234,0.82999
6742.89359,0.82783
6740.96485,0.82645
6739.03610,0.82629
6737.10736,0.82597
6735.17861,0.82546
6733.24987,0.82702
6731.32112,0.83005
6729.39238,0.83165
6727.46363,0.83209
6725.53489,0.83186
6723.60614,0.82983
6721.67740,0.82846
6719.74865,0.83088
6717.81991,0.83404
6715.89116,0.83378
6713.96241,0.83178
6712.03367,0.83011
6710.10492,0.82833
6708.17618,0.82917
6706.24743,0.83423
6704.31869,0.83809
6702.38994,0.83680
6700.46120,0.83359
6698.53245,0.83237
6696.60371,0.83385
6694.67496,0.83623
6692.74622,0.83662
6690.81747,0.83516
6688.88873,0.83342
6686.95998,0.83169
6685.03123,0.83255
6683.10249,0.83734
6681.17374,0.84146
6679.24500,0.84086
6677.31625,0.83726
6675.38751,0.83416
6673.45876,0.83365
6671.53002,0.83545
6669.60127,0.83734
6667.67253,0.83799
6665.74378,0.83743
6663.81504,0.83622
6661.88629,0.83542
6659.95755,0.83483
6658.02880,0.83365
6656.10006,0.83291
6654.17131,0.83292
6652.24256,0.83239
6650.31382,0.83238
6648.38507,0.83454
6646.45633,0.83768
6644.52758,0.83938
6642.59884,0.83771
6640.67009,0.83370
6638.74135,0.83160
6636.81260,0.83393
6634.88386,0.83843
6632.95511,0.84162
6631.02637,0.84243
6629.09762,0.84227
6627.16888,0.84325
6625.24013,0.84462
6623.31139,0.84435
6621.38264,0.84274
6619.45389,0.84093
6617.52515,0.83979
6615.59640,0.83917
6613.66766,0.83856
6611.73891,0.83844
6609.81017,0.83922
6607.88142,0.84049
6605.95268,0.84097
6604.02393,0.84113
6602.09519,0.84283
6600.16644,0.84440
6598.23770,0.84418
6596.30895,0.84446
6594.38021,0.84593
6592.45146,0.84695
6590.52271,0.84808
6588.59397,0.84908
6586.66522,0.84790
6584.73648,0.84457
6582.80773,0.84165
6580.87899,0.84081
6578.95024,0.84066
6577.02150,0.84026
6575.09275,0.84083
6573.16401,0.84194
6571.23526,0.84151
6569.30652,0.83989
6567.37777,0.83923
6565.44903,0.84003
6563.52028,0.84117
6561.59154,0.84164
6559.66279,0.84162
6557.73404,0.84170
6555.80530,0.84187
6553.87655,0.84310
6551.94781,0.84598
6550.01906,0.84811
6548.09032,0.84736
6546.16157,0.84550
6544.23283,0.84427
6542.30408,0.84370
6540.37534,0.84438
6538.44659,0.84514
6536.51785,0.84342
6534.58910,0.84033
6532.66036,0.83970
6530.73161,0.84131
6528.80287,0.84203
6526.87412,0.84224
6524.94537,0.84382
6523.01663,0.84710
6521.08788,0.84945
6519.15914,0.84737
6517.23039,0.84368
6515.30165,0.84235
6513.37290,0.84188
6511.44416,0.84185
6509.51541,0.84338
6507.58667,0.84413
6505.65792,0.84242
6503.72918,0.84058
6501.80043,0.84029
6499.87169,0.84082
6497.94294,0.84128
6496.01419,0.84076
6494.08545,0.84002
6492.15670,0.84063
6490.22796,0.84089
6488.29921,0.84053
6486.37047,0.84166
6484.44172,0.84234
6482.51298,0.84121
6480.58423,0.84026
6478.65549,0.84045
6476.72674,0.84233
6474.79800,0.84430
6472.86925,0.84357
6470.94051,0.84111
6469.01176,0.83933
6467.08302,0.83863
6465.15427,0.83885
6463.22552,0.83981
6461.29678,0.84023
6459.36803,0.84056
6457.43929,0.84294
6455.51054,0.84586
6453.58180,0.84715
6451.65305,0.84718
6449.72431,0.84629
6447.79556,0.84533
6445.86682,0.84387
6443.93807,0.84077
6442.00933,0.83887
6440.08058,0.83963
6438.15184,0.84017
6436.22309,0.84018
6434.29434,0.84149
6432.36560,0.84339
6430.43685,0.84368
6428.50811,0.84195
6426.57936,0.84029
6424.65062,0.83958
6422.72187,0.83838
6420.79313,0.83684
6418.86438,0.83666
6416.93564,0.83697
6415.00689,0.83621
6413.07815,0.83655
6411.14940,0.83955
6409.22066,0.84244
6407.29191,0.84292
6405.36317,0.84147
6403.43442,0.83965
6401.50567,0.83856
6399.57693,0.83766
6397.64818,0.83723
6395.71944,0.83873
6393.79069,0.84120
6391.86195,0.84294
6389.93320,0.84381
6388.00446,0.84375
6386.07571,0.84290
6384.14697,0.84237
6382.21822,0.84204
6380.28948,0.84098
6378.36073,0.83977
6376.43199,0.83995
6374.50324,0.84228
6372.57450,0.84478
6370.64575,0.84433
6368.71700,0.84203
6366.78826,0.84111
6364.85951,0.84129
6362.93077,0.84159
6361.00202,0.84245
6359.07328,0.84236
6357.14453,0.84024
6355.21579,0.83791
6353.28704,0.83632
6351.35830,0.83581
6349.42955,0.83641
6347.50081,0.83649
6345.57206,0.83512
6343.64332,0.83348
6341.71457,0.83378
6339.78582,0.83521
6337.85708,0.83467
6335.92833,0.83334
6333.99959,0.83342
6332.07084,0.83335
6330.14210,0.83241
6328.21335,0.83255
6326.28461,0.83457
6324.35586,0.83714
6322.42712,0.83863
6320.49837,0.83766
6318.56963,0.83427
6316.64088,0.83130
6314.71214,0.83112
6312.78339,0.83300
6310.85465,0.83456
6308.92590,0.83412
6306.99715,0.83254
6305.06841,0.83144
6303.13966,0.83063
6301.21092,0.82951
6299.28217,0.82955
6297.35343,0.83223
6295.42468,0.83506
6293.49594,0.83586
6291.56719,0.83658
6289.63845,0.83779
6287.70970,0.83795
6285.78096,0.83793
6283.85221,0.83907
6281.92347,0.83928
6279.99472,0.83615
6278.06598,0.83147
6276.13723,0.82873
6274.20848,0.82962
6272.27974,0.83332
6270.35099,0.83649
6268.42225,0.83589
6266.49350,0.83172
6264.56476,0.82754
6262.63601,0.82617
6260.70727,0.82701
6258.77852,0.82795
6256.84978,0.82808
6254.92103,0.82793
6252.99229,0.82739
6251.06354,0.82585
6249.13480,0.82409
6247.20605,0.82393
6245.27730,0.82618
6243.34856,0.82846
6241.41981,0.82795
6239.49107,0.82597
6237.56232,0.82478
6235.63358,0.82400
6233.70483,0.82274
6231.77609,0.82182
6229.84734,0.82226
6227.91860,0.82280
6225.98985,0.82159
6224.06111,0.82013
6222.13236,0.82030
6220.20362,0.81968
6218.27487,0.81599
6216.34613,0.81153
6214.41738,0.80880
6212.48863,0.80701
6210.55989,0.80483
6208.63114,0.80215
6206.70240,0.79833
6204.77365,0.79293
6202.84491,0.78722
6200.91616,0.78243
6198.98742,0.77900
6197.05867,0.77717
6195.12993,0.77628
6193.20118,0.77545
6191.27244,0.77563
6189.34369,0.77711
6187.41495,0.77789
6185.48620,0.77781
6183.55746,0.77825
6181.62871,0.77949
6179.69996,0.78057
6177.77122,0.78035
6175.84247,0.77938
6173.91373,0.77877
6171.98498,0.77904
6170.05624,0.77959
6168.12749,0.77909
6166.19875,0.77807
6164.27000,0.77833
6162.34126,0.77959
6160.41251,0.77941
6158.48377,0.77673
6156.55502,0.77296
6154.62628,0.76985
6152.69753,0.76786
6150.76878,0.76571
6148.84004,0.76289
6146.91129,0.76079
6144.98255,0.75993
6143.05380,0.75934
6141.12506,0.75879
6139.19631,0.75881
6137.26757,0.75879
6135.33882,0.75842
6133.41008,0.75813
6131.48133,0.75746
6129.55259,0.75537
6127.62384,0.75185
6125.69510,0.74859
6123.76635,0.74619
6121.83761,0.74298
6119.90886,0.73887
6117.98011,0.73560
6116.05137,0.73163
6114.12262,0.72473
6112.19388,0.71713
6110.26513,0.71139
6108.33639,0.70719
6106.40764,0.70255
6104.47890,0.69547
6102.55015,0.68578
6100.62141,0.67475
6098.69266,0.66378
6096.76392,0.65429
6094.83517,0.64698
6092.90643,0.64084
6090.97768,0.63482
6089.04893,0.62827
6087.12019,0.62070
6085.19144,0.61454
6083.26270,0.61145
6081.33395,0.60888
6079.40521,0.60513
6077.47646,0.60062
6075.54772,0.59514
6073.61897,0.58825
6071.69023,0.58008
6069.76148,0.57109
6067.83274,0.56179
6065.90399,0.55280
6063.97525,0.54429
6062.04650,0.53539
6060.11776,0.52659
6058.18901,0.52028
6056.26026,0.51639
6054.33152,0.51268
6052.40277,0.50895
6050.47403,0.50609
6048.54528,0.50331
6046.61654,0.49918
6044.68779,0.49333
6042.75905,0.48697
6040.83030,0.48243
6038.90156,0.48006
6036.97281,0.47829
6035.04407,0.47684
6033.11532,0.47555
6031.18658,0.47263
6029.25783,0.46833
6027.32909,0.46581
6025.40034,0.46541
6023.47159,0.46469
6021.54285,0.46453
6019.61410,0.46689
6017.68536,0.46962
6015.75661,0.47089
6013.82787,0.47331
6011.89912,0.47844
6009.97038,0.48479
6008.04163,0.49198
6006.11289,0.49962
6004.18414,0.50562
6002.25540,0.50980
6000.32665,0.51488
5998.39791,0.52191
5996.46916,0.52897
5994.54041,0.53457
5992.61167,0.54043
5990.68292,0.54828
5988.75418,0.55518
5986.82543,0.55841
5984.89669,0.55996
5982.96794,0.56231
5981.03920,0.56562
5979.11045,0.56863
5977.18171,0.57123
5975.25296,0.57411
5973.32422,0.57673
5971.39547,0.57855
5969.46673,0.57970
5967.53798,0.58030
5965.60924,0.58022
5963.68049,0.57910
5961.75174,0.57747
5959.82300,0.57671
5957.89425,0.57687
5955.96551,0.57619
5954.03676,0.57333
5952.10802,0.56909
5950.17927,0.56512
5948.25053,0.56139
5946.32178,0.55795
5944.39304,0.55624
5942.46429,0.55633
5940.53555,0.55763
5938.60680,0.56010
5936.67806,0.56327
5934.74931,0.56644
5932.82057,0.56970
5930.89182,0.57348
5928.96307,0.57722
5927.03433,0.58034
5925.10558,0.58336
5923.17684,0.58697
5921.24809,0.59105
5919.31935,0.59518
5917.39060,0.59935
5915.46186,0.60324
5913.53311,0.60657
5911.60437,0.61019
5909.67562,0.61358
5907.74688,0.61434
5905.81813,0.61213
5903.88939,0.60960
5901.96064,0.60877
5900.03189,0.60925
5898.10315,0.60989
5896.17440,0.61015
5894.24566,0.61005
5892.31691,0.61018
5890.38817,0.61154
5888.45942,0.61375
5886.53068,0.61502
5884.60193,0.61518
5882.67319,0.61582
5880.74444,0.61730
5878.81570,0.61878
5876.88695,0.62077
5874.95821,0.62341
5873.02946,0.62483
5871.10072,0.62487
5869.17197,0.62604
5867.24322,0.62916
5865.31448,0.63219
5863.38573,0.63416
5861.45699,0.63645
5859.52824,0.63916
5857.59950,0.63965
5855.67075,0.63709
5853.74201,0.63449
5851.81326,0.63380
5849.88452,0.63396
5847.95577,0.63334
5846.02703,0.63121
5844.09828,0.62895
5842.16954,0.62837
5840.24079,0.62865
5838.31205,0.62761
5836.38330,0.62502
5834.45455,0.62215
5832.52581,0.61954
5830.59706,0.61715
5828.66832,0.61474
5826.73957,0.61197
5824.81083,0.60840
5822.88208,0.60324
5820.95334,0.59784
5819.02459,0.59399
5817.09585,0.59042
5815.16710,0.58645
5813.23836,0.58319
5811.30961,0.58076
5809.38087,0.57941
5807.45212,0.57913
5805.52337,0.57839
5803.59463,0.57668
5801.66588,0.57513
5799.73714,0.57420
5797.80839,0.57334
5795.87965,0.57266
5793.95090,0.57269
5792.02216,0.57376
5790.09341,0.57650
5788.16467,0.58071
5786.23592,0.58529
5784.30718,0.58981
5782.37843,0.59442
5780.44969,0.59892
5778.52094,0.60305
5776.59220,0.60675
5774.66345,0.61027
5772.73470,0.61367
5770.80596,0.61611
5768.87721,0.61752
5766.94847,0.61890
5765.01972,0.62056
5763.09098,0.62197
5761.16223,0.62256
5759.23349,0.62279
5757.30474,0.62327
5755.37600,0.62329
5753.44725,0.62265
5751.51851,0.62249
5749.58976,0.62312
5747.66102,0.62434
5745.73227,0.62654
5743.80352,0.62882
5741.87478,0.62985
5739.94603,0.63020
5738.01729,0.63072
5736.08854,0.63132
5734.15980,0.63272
5732.23105,0.63578
5730.30231,0.63936
5728.37356,0.64219
5726.44482,0.64399
5724.51607,0.64440
5722.58733,0.64450
5720.65858,0.64578
5718.72984,0.64737
5716.80109,0.64837
5714.87235,0.64913
5712.94360,0.65021
5711.01485,0.65220
5709.08611,0.65473
5707.15736,0.65665
5705.22862,0.65761
5703.29987,0.65786
5701.37113,0.65851
5699.44238,0.66105
5697.51364,0.66440
5695.58489,0.66577
5693.65615,0.66511
5691.72740,0.66488
5689.79866,0.66638
5687.86991,0.66916
5685.94117,0.67183
5684.01242,0.67288
5682.08368,0.67245
5680.15493,0.67204
5678.22618,0.67250
5676.29744,0.67336
5674.36869,0.67377
5672.43995,0.67423
5670.51120,0.67517
5668.58246,0.67525
5666.65371,0.67496
5664.72497,0.67575
5662.79622,0.67579
5660.86748,0.67401
5658.93873,0.67321
5657.00999,0.67459
5655.08124,0.67586
5653.15250,0.67579
5651.22375,0.67515
5649.29500,0.67486
5647.36626,0.67577
5645.43751,0.67773
5643.50877,0.67991
5641.58002,0.68229
5639.65128,0.68450
5637.72253,0.68597
5635.79379,0.68726
5633.86504,0.68837
5631.93630,0.68905
5630.00755,0.69049
5628.07881,0.69334
5626.15006,0.69634
5624.22132,0.69862
5622.29257,0.70038
5620.36383,0.70175
5618.43508,0.70281
5616.50633,0.70425
5614.57759,0.70630
5612.64884,0.70812
5610.72010,0.70941
5608.79135,0.71033
5606.86261,0.71056
5604.93386,0.71034
5603.00512,0.71032
5601.07637,0.71065
5599.14763,0.71102
5597.21888,0.71073
5595.29014,0.70970
5593.36139,0.70880
5591.43265,0.70793
5589.50390,0.70620
5587.57516,0.70443
5585.64641,0.70394
5583.71766,0.70429
5581.78892,0.70452
5579.86017,0.70361
5577.93143,0.70151
5576.00268,0.69968
5574.07394,0.69861
5572.14519,0.69775
5570.21645,0.69679
5568.28770,0.69569
5566.35896,0.69518
5564.43021,0.69519
5562.50147,0.69452
5560.57272,0.69301
5558.64398,0.69165
5556.71523,0.69103
5554.78648,0.69128
5552.85774,0.69238
5550.92899,0.69349
5549.00025,0.69367
5547.07150,0.69307
5545.14276,0.69226
5543.21401,0.69189
5541.28527,0.69229
5539.35652,0.69335
5537.42778,0.69451
5535.49903,0.69515
5533.57029,0.69504
5531.64154,0.69446
5529.71280,0.69463
5527.78405,0.69606
5525.85531,0.69750
5523.92656,0.69813
5521.99781,0.69846
5520.06907,0.69940
5518.14032,0.70079
5516.21158,0.70130
5514.28283,0.70102
5512.35409,0.70173
5510.42534,0.70344
5508.49660,0.70486
5506.56785,0.70623
5504.63911,0.70775
5502.71036,0.70854
5500.78162,0.70857
5498.85287,0.70874
5496.92413,0.70928
5494.99538,0.70938
5493.06664,0.70864
5491.13789,0.70734
5489.20914,0.70530
5487.28040,0.70289
5485.35165,0.70148
5483.42291,0.70131
5481.49416,0.70131
5479.56542,0.70078
5477.63667,0.69993
5475.70793,0.69937
5473.77918,0.69906
5471.85044,0.69857
5469.92169,0.69851
5467.99295,0.69938
5466.06420,0.70039
5464.13546,0.70087
5462.20671,0.70155
5460.27796,0.70285
5458.34922,0.70421
5456.42047,0.70582
5454.49173,0.70842
5452.56298,0.71190
5450.63424,0.71505
5448.70549,0.71668
5446.77675,0.71696
5444.84800,0.71699
5442.91926,0.71790
5440.99051,0.71986
5439.06177,0.72175
5437.13302,0.72304
5435.20428,0.72425
5433.27553,0.72486
5431.34679,0.72483
5429.41804,0.72558
5427.48929,0.72708
5425.56055,0.72782
5423.63180,0.72756
5421.70306,0.72762
5419.77431,0.72853
5417.84557,0.72932
5415.91682,0.72967
5413.98808,0.72948
5412.05933,0.72886
5410.13059,0.72928
5408.20184,0.73075
5406.27310,0.73130
5404.34435,0.73051
5402.41561,0.72940
5400.48686,0.72844
5398.55811,0.72792
5396.62937,0.72816
5394.70062,0.72869
5392.77188,0.72869
5390.84313,0.72825
5388.91439,0.72805
5386.98564,0.72835
5385.05690,0.72910
5383.12815,0.72971
5381.19941,0.72953
5379.27066,0.72887
5377.34192,0.72815
5375.41317,0.72821
5373.48443,0.72966
5371.55568,0.73111
5369.62694,0.73105
5367.69819,0.73008
5365.76944,0.72940
5363.84070,0.72915
5361.91195,0.72888
5359.98321,0.72828
5358.05446,0.72765
5356.12572,0.72769
5354.19697,0.72806
5352.26823,0.72773
5350.33948,0.72675
5348.41074,0.72616
5346.48199,0.72657
5344.55325,0.72760
5342.62450,0.72839
5340.69576,0.72882
5338.76701,0.72932
5336.83827,0.72969
5334.90952,0.73006
5332.98077,0.73073
5331.05203,0.73097
5329.12328,0.73052
5327.19454,0.73024
5325.26579,0.73088
5323.33705,0.73207
5321.40830,0.73279
5319.47956,0.73302
5317.55081,0.73348
5315.62207,0.73449
5313.69332,0.73559
5311.76458,0.73645
5309.83583,0.73708
5307.90709,0.73692
5305.97834,0.73589
5304.04959,0.73465
5302.12085,0.73323
5300.19210,0.73184
5298.26336,0.73117
5296.33461,0.73145
5294.40587,0.73198
5292.47712,0.73186
5290.54838,0.73119
5288.61963,0.73034
5286.69089,0.72969
5284.76214,0.72945
5282.83340,0.72876
5280.90465,0.72738
5278.97591,0.72646
5277.04716,0.72598
5275.11842,0.72512
5273.18967,0.72391
5271.26092,0.72222
5269.33218,0.72001
5267.40343,0.71793
5265.47469,0.71684
5263.54594,0.71727
5261.61720,0.71818
5259.68845,0.71825
5257.75971,0.71813
5255.83096,0.71883
5253.90222,0.72007
5251.97347,0.72100
5250.04473,0.72148
5248.11598,0.72193
5246.18724,0.72259
5244.25849,0.72370
5242.32975,0.72514
5240.40100,0.72638
5238.47225,0.72714
5236.54351,0.72712
5234.61476,0.72654
5232.68602,0.72627
5230.75727,0.72635
5228.82853,0.72649
5226.89978,0.72687
5224.97104,0.72702
5223.04229,0.72644
5221.11355,0.72571
5219.18480,0.72502
5217.25606,0.72408
5215.32731,0.72357
5213.39857,0.72384
5211.46982,0.72419
5209.54107,0.72440
5207.61233,0.72474
5205.68358,0.72480
5203.75484,0.72432
5201.82609,0.72398
5199.89735,0.72395
5197.96860,0.72375
5196.03986,0.72358
5194.11111,0.72381
5192.18237,0.72409
5190.25362,0.72407
5188.32488,0.72358
5186.39613,0.72304
5184.46739,0.72295
5182.53864,0.72242
5180.60990,0.72133
5178.68115,0.72084
5176.75240,0.72071
5174.82366,0.72020
5172.89491,0.71944
5170.96617,0.71898
5169.03742,0.71919
5167.10868,0.71937
5165.17993,0.71902
5163.25119,0.71867
5161.32244,0.71833
5159.39370,0.71778
5157.46495,0.71738
5155.53621,0.71689
5153.60746,0.71598
5151.67872,0.71498
5149.74997,0.71386
5147.82123,0.71237
5145.89248,0.71084
5143.96373,0.70942
5142.03499,0.70774
5140.10624,0.70591
5138.17750,0.70406
5136.24875,0.70172
5134.32001,0.69926
5132.39126,0.69780
5130.46252,0.69708
5128.53377,0.69527
5126.60503,0.69190
5124.67628,0.68876
5122.74754,0.68674
5120.81879,0.68529
5118.89005,0.68403
5116.96130,0.68251
5115.03255,0.68093
5113.10381,0.68028
5111.17506,0.68071
5109.24632,0.68131
5107.31757,0.68129
5105.38883,0.68059
5103.46008,0.67968
5101.53134,0.67873
5099.60259,0.67781
5097.67385,0.67732
5095.74510,0.67760
5093.81636,0.67830
5091.88761,0.67867
5089.95887,0.67914
5088.03012,0.68111
5086.10138,0.68457
5084.17263,0.68843
5082.24388,0.69213
5080.31514,0.69559
5078.38639,0.69896
5076.45765,0.70260
5074.52890,0.70637
5072.60016,0.70946
5070.67141,0.71174
5068.74267,0.71423
5066.81392,0.71712
5064.88518,0.71942
5062.95643,0.72084
5061.02769,0.72209
5059.09894,0.72356
5057.17020,0.72486
5055.24145,0.72571
5053.31270,0.72665
5051.38396,0.72822
5049.45521,0.72956
5047.52647,0.72953
5045.59772,0.72885
5043.66898,0.72871
5041.74023,0.72897
5039.81149,0.72923
5037.88274,0.72917
5035.95400,0.72877
5034.02525,0.72849
5032.09651,0.72805
5030.16776,0.72723
5028.23902,0.72677
5026.31027,0.72699
5024.38153,0.72701
5022.45278,0.72629
5020.52403,0.72543
5018.59529,0.72518
5016.66654,0.72529
5014.73780,0.72519
5012.80905,0.72490
5010.88031,0.72492
5008.95156,0.72556
5007.02282,0.72646
5005.09407,0.72728
5003.16533,0.72784
5001.23658,0.72783
4999.30784,0.72780
4997.37909,0.72821
4995.45035,0.72825
4993.52160,0.72742
4991.59286,0.72659
4989.66411,0.72652
4987.73536,0.72665
4985.80662,0.72622
4983.87787,0.72589
4981.94913,0.72690
4980.02038,0.72883
4978.09164,0.72980
4976.16289,0.72966
4974.23415,0.73001
4972.30540,0.73108
4970.37666,0.73173
4968.44791,0.73135
4966.51917,0.73048
4964.59042,0.73017
4962.66168,0.73031
4960.73293,0.73003
4958.80418,0.72943
4956.87544,0.72890
4954.94669,0.72840
4953.01795,0.72776
4951.08920,0.72687
4949.16046,0.72593
4947.23171,0.72519
4945.30297,0.72451
4943.37422,0.72361
4941.44548,0.72228
4939.51673,0.72082
4937.58799,0.72036
4935.65924,0.72090
4933.73050,0.72081
4931.80175,0.71973
4929.87301,0.71883
4927.94426,0.71850
4926.01551,0.71857
4924.08677,0.71870
4922.15802,0.71838
4920.22928,0.71760
4918.30053,0.71697
4916.37179,0.71686
4914.44304,0.71692
4912.51430,0.71665
4910.58555,0.71613
4908.65681,0.71582
4906.72806,0.71599
4904.79932,0.71603
4902.87057,0.71518
4900.94183,0.71395
4899.01308,0.71328
4897.08434,0.71319
4895.15559,0.71344
4893.22684,0.71322
4891.29810,0.71193
4889.36935,0.71069
4887.44061,0.71050
4885.51186,0.71073
4883.58312,0.71070
4881.65437,0.71049
4879.72563,0.70996
4877.79688,0.70877
4875.86814,0.70747
4873.93939,0.70697
4872.01065,0.70715
4870.08190,0.70691
4868.15316,0.70587
4866.22441,0.70487
4864.29566,0.70414
4862.36692,0.70353
4860.43817,0.70343
4858.50943,0.70335
4856.58068,0.70248
4854.65194,0.70132
4852.72319,0.70038
4850.79445,0.69987
4848.86570,0.69955
4846.93696,0.69837
4845.00821,0.69630
4843.07947,0.69416
4841.15072,0.69211
4839.22198,0.68960
4837.29323,0.68629
4835.36449,0.68253
4833.43574,0.67895
4831.50699,0.67574
4829.57825,0.67230
4827.64950,0.66843
4825.72076,0.66445
4823.79201,0.65997
4821.86327,0.65486
4819.93452,0.65036
4818.00578,0.64751
4816.07703,0.64563
4814.14829,0.64358
4812.21954,0.64168
4810.29080,0.64019
4808.36205,0.63815
4806.43331,0.63544
4804.50456,0.63321
4802.57582,0.63183
4800.64707,0.63061
4798.71832,0.62927
4796.78958,0.62816
4794.86083,0.62734
4792.93209,0.62679
4791.00334,0.62709
4789.07460,0.62825
4787.14585,0.62925
4785.21711,0.63019
4783.28836,0.63201
4781.35962,0.63450
4779.43087,0.63708
4777.50213,0.63958
4775.57338,0.64151
4773.64464,0.64293
4771.71589,0.64477
4769.78714,0.64723
4767.85840,0.64944
4765.92965,0.65097
4764.00091,0.65189
4762.07216,0.65218
4760.14342,0.65153
4758.21467,0.64972
4756.28593,0.64724
4754.35718,0.64468
4752.42844,0.64161
4750.49969,0.63736
4748.57095,0.63271
4746.64220,0.62851
4744.71346,0.62428
4742.78471,0.61963
4740.85597,0.61463
4738.92722,0.60886
4736.99847,0.60197
4735.06973,0.59413
4733.14098,0.58541
4731.21224,0.57539
4729.28349,0.56393
4727.35475,0.55164
4725.42600,0.53912
4723.49726,0.52713
4721.56851,0.51714
4719.63977,0.51038
4717.71102,0.50679
4715.78228,0.50545
4713.85353,0.50515
4711.92479,0.50438
4709.99604,0.50216
4708.06729,0.49860
4706.13855,0.49393
4704.20980,0.48771
4702.28106,0.47936
4700.35231,0.46929
4698.42357,0.45860
4696.49482,0.44802
4694.56608,0.43821
4692.63733,0.43028
4690.70859,0.42492
4688.77984,0.42223
4686.85110,0.42224
4684.92235,0.42500
4682.99361,0.43022
4681.06486,0.43747
4679.13612,0.44634
4677.20737,0.45629
4675.27862,0.46696
4673.34988,0.47799
4671.42113,0.48822
4669.49239,0.49659
4667.56364,0.50323
4665.63490,0.50833
4663.70615,0.51179
4661.77741,0.51413
4659.84866,0.51582
4657.91992,0.51683
4655.99117,0.51707
4654.06243,0.51643
4652.13368,0.51464
4650.20494,0.51119
4648.27619,0.50583
4646.34745,0.49876
4644.41870,0.49037
4642.48995,0.48173
4640.56121,0.47400
4638.63246,0.46751
4636.70372,0.46286
4634.77497,0.46120
4632.84623,0.46294
4630.91748,0.46772
4628.98874,0.47478
4627.05999,0.48347
4625.13125,0.49388
4623.20250,0.50560
4621.27376,0.51730
4619.34501,0.52814
4617.41627,0.53795
4615.48752,0.54681
4613.55877,0.55481
4611.63003,0.56157
4609.70128,0.56683
4607.77254,0.57074
4605.84379,0.57325
4603.91505,0.57417
4601.98630,0.57325
4600.05756,0.56997
4598.12881,0.56433
4596.20007,0.55731
4594.27132,0.55025
4592.34258,0.54379
4590.41383,0.53819
4588.48509,0.53367
4586.55634,0.52978
4584.62760,0.52533
4582.69885,0.51936
4580.77010,0.51281
4578.84136,0.50888
4576.91261,0.51008
4574.98387,0.51652
4573.05512,0.52693
4571.12638,0.53952
4569.19763,0.55289
4567.26889,0.56613
4565.34014,0.57793
4563.41140,0.58725
4561.48265,0.59438
4559.55391,0.59985
4557.62516,0.60345
4555.69642,0.60509
4553.76767,0.60557
4551.83893,0.60596
4549.91018,0.60640
4547.98143,0.60630
4546.05269,0.60580
4544.12394,0.60557
4542.19520,0.60539
4540.26645,0.60471
4538.33771,0.60398
4536.40896,0.60347
4534.48022,0.60256
4532.55147,0.60097
4530.62273,0.59918
4528.69398,0.59744
4526.76524,0.59552
4524.83649,0.59327
4522.90775,0.59073
4520.97900,0.58808
4519.05025,0.58542
4517.12151,0.58208
4515.19276,0.57793
4513.26402,0.57376
4511.33527,0.56918
4509.40653,0.56344
4507.47778,0.55697
4505.54904,0.55007
4503.62029,0.54188
4501.69155,0.53165
4499.76280,0.52024
4497.83406,0.50865
4495.90531,0.49681
4493.97657,0.48531
4492.04782,0.47597
4490.11908,0.46976
4488.19033,0.46598
4486.26158,0.46384
4484.33284,0.46273
4482.40409,0.46167
4480.47535,0.46008
4478.54660,0.45817
4476.61786,0.45608
4474.68911,0.45361
4472.76037,0.45042
4470.83162,0.44602
4468.90288,0.44025
4466.97413,0.43363
4465.04539,0.42667
4463.11664,0.41948
4461.18790,0.41190
4459.25915,0.40402
4457.33041,0.39675
4455.40166,0.39068
4453.47291,0.38511
4451.54417,0.37926
4449.61542,0.37288
4447.68668,0.36598
4445.75793,0.35879
4443.82919,0.35156
4441.90044,0.34463
4439.97170,0.33838
4438.04295,0.33290
4436.11421,0.32784
4434.18546,0.32282
4432.25672,0.31808
4430.32797,0.31419
4428.39923,0.31150
4426.47048,0.31016
4424.54173,0.30992
4422.61299,0.31100
4420.68424,0.31434
4418.75550,0.31976
4416.82675,0.32579
4414.89801,0.33113
4412.96926,0.33533
4411.04052,0.33837
4409.11177,0.34022
4407.18303,0.34095
4405.25428,0.34127
4403.32554,0.34204
4401.39679,0.34399
4399.46805,0.34752
4397.53930,0.35231
4395.61056,0.35729
4393.68181,0.36143
4391.75306,0.36470
4389.82432,0.36731
4387.89557,0.36881
4385.96683,0.36897
4384.03808,0.36824
4382.10934,0.36674
4380.18059,0.36434
4378.25185,0.36113
4376.32310,0.35713
4374.39436,0.35266
4372.46561,0.34850
4370.53687,0.34469
4368.60812,0.34098
4366.67938,0.33825
4364.75063,0.33723
4362.82189,0.33711
4360.89314,0.33711
4358.96439,0.33744
4357.03565,0.33822
4355.10690,0.33916
4353.17816,0.34016
4351.24941,0.34156
4349.32067,0.34362
4347.39192,0.34605
4345.46318,0.34868
4343.53443,0.35117
4341.60569,0.35284
4339.67694,0.35370
4337.74820,0.35457
4335.81945,0.35577
4333.89071,0.35697
4331.96196,0.35839
4330.03321,0.36038
4328.10447,0.36252
4326.17572,0.36443
4324.24698,0.36624
4322.31823,0.36819
4320.38949,0.37037
4318.46074,0.37257
4316.53200,0.37457
4314.60325,0.37606
4312.67451,0.37676
4310.74576,0.37678
4308.81702,0.37630
4306.88827,0.37500
4304.95953,0.37278
4303.03078,0.37025
4301.10204,0.36746
4299.17329,0.36428
4297.24454,0.36127
4295.31580,0.35876
4293.38705,0.35641
4291.45831,0.35422
4289.52956,0.35275
4287.60082,0.35205
4285.67207,0.35146
4283.74333,0.35056
4281.81458,0.34941
4279.88584,0.34799
4277.95709,0.34626
4276.02835,0.34416
4274.09960,0.34182
4272.17086,0.33972
4270.24211,0.33812
4268.31336,0.33721
4266.38462,0.33742
4264.45587,0.33878
4262.52713,0.34088
4260.59838,0.34328
4258.66964,0.34540
4256.74089,0.34720
4254.81215,0.34895
4252.88340,0.35032
4250.95466,0.35109
4249.02591,0.35200
4247.09717,0.35346
4245.16842,0.35470
4243.23968,0.35527
4241.31093,0.35556
4239.38219,0.35583
4237.45344,0.35574
4235.52469,0.35472
4233.59595,0.35285
4231.66720,0.35092
4229.73846,0.34935
4227.80971,0.34799
4225.88097,0.34693
4223.95222,0.34622
4222.02348,0.34584
4220.09473,0.34601
4218.16599,0.34653
4216.23724,0.34671
4214.30850,0.34646
4212.37975,0.34634
4210.45101,0.34648
4208.52226,0.34673
4206.59352,0.34736
4204.66477,0.34855
4202.73602,0.35011
4200.80728,0.35195
4198.87853,0.35419
4196.94979,0.35662
4195.02104,0.35864
4193.09230,0.35989
4191.16355,0.36035
4189.23481,0.36009
4187.30606,0.35894
4185.37732,0.35655
4183.44857,0.35274
4181.51983,0.34813
4179.59108,0.34432
4177.66234,0.34296
4175.73359,0.34447
4173.80484,0.34800
4171.87610,0.35267
4169.94735,0.35830
4168.01861,0.36473
4166.08986,0.37173
4164.16112,0.37887
4162.23237,0.38521
4160.30363,0.39024
4158.37488,0.39428
4156.44614,0.39765
4154.51739,0.40079
4152.58865,0.40415
4150.65990,0.40741
4148.73116,0.41031
4146.80241,0.41292
4144.87367,0.41472
4142.94492,0.41529
4141.01617,0.41488
4139.08743,0.41371
4137.15868,0.41170
4135.22994,0.40909
4133.30119,0.40656
4131.37245,0.40400
4129.44370,0.40088
4127.51496,0.39749
4125.58621,0.39407
4123.65747,0.39027
4121.72872,0.38608
4119.79998,0.38171
4117.87123,0.37685
4115.94249,0.37125
4114.01374,0.36509
4112.08500,0.35843
4110.15625,0.35128
4108.22750,0.34358
4106.29876,0.33510
4104.37001,0.32597
4102.44127,0.31636
4100.51252,0.30574
4098.58378,0.29373
4096.65503,0.28072
4094.72629,0.26730
4092.79754,0.25503
4090.86880,0.24672
4088.94005,0.24417
4087.01131,0.24674
4085.08256,0.25275
4083.15382,0.26066
4081.22507,0.26958
4079.29632,0.27940
4077.36758,0.28978
4075.43883,0.29993
4073.51009,0.30921
4071.58134,0.31737
4069.65260,0.32465
4067.72385,0.33130
4065.79511,0.33715
4063.86636,0.34214
4061.93762,0.34651
4060.00887,0.35023
4058.08013,0.35333
4056.15138,0.35631
4054.22264,0.35931
4052.29389,0.36194
4050.36515,0.36408
4048.43640,0.36607
4046.50765,0.36845
4044.57891,0.37146
4042.65016,0.37492
4040.72142,0.37855
4038.79267,0.38188
4036.86393,0.38428
4034.93518,0.38572
4033.00644,0.38655
4031.07769,0.38701
4029.14895,0.38733
4027.22020,0.38770
4025.29146,0.38859
4023.36271,0.39029
4021.43397,0.39227
4019.50522,0.39414
4017.57648,0.39596
4015.64773,0.39745
4013.71898,0.39851
4011.79024,0.39972
4009.86149,0.40149
4007.93275,0.40375
4006.00400,0.40656
4004.07526,0.41013
4002.14651,0.41419
4000.21777,0.41826
3998.28902,0.42214
3996.36028,0.42564
3994.43153,0.42846
3992.50279,0.43079
3990.57404,0.43323
3988.64530,0.43594
3986.71655,0.43842
3984.78780,0.44024
3982.85906,0.44157
3980.93031,0.44285
3979.00157,0.44411
3977.07282,0.44521
3975.14408,0.44615
3973.21533,0.44689
3971.28659,0.44742
3969.35784,0.44772
3967.42910,0.44766
3965.50035,0.44716
3963.57161,0.44630
3961.64286,0.44496
3959.71412,0.44304
3957.78537,0.44092
3955.85663,0.43895
3953.92788,0.43683
3951.99913,0.43436
3950.07039,0.43171
3948.14164,0.42896
3946.21290,0.42612
3944.28415,0.42341
3942.35541,0.42116
3940.42666,0.41953
3938.49792,0.41846
3936.56917,0.41779
3934.64043,0.41720
3932.71168,0.41644
3930.78294,0.41574
3928.85419,0.41525
3926.92545,0.41462
3924.99670,0.41375
3923.06795,0.41314
3921.13921,0.41326
3919.21046,0.41404
3917.28172,0.41504
3915.35297,0.41615
3913.42423,0.41759
3911.49548,0.41965
3909.56674,0.42239
3907.63799,0.42540
3905.70925,0.42830
3903.78050,0.43111
3901.85176,0.43382
3899.92301,0.43627
3897.99427,0.43846
3896.06552,0.44032
3894.13678,0.44207
3892.20803,0.44451
3890.27928,0.44773
3888.35054,0.45107
3886.42179,0.45465
3884.49305,0.45838
3882.56430,0.46165
3880.63556,0.46454
3878.70681,0.46708
3876.77807,0.46913
3874.84932,0.47109
3872.92058,0.47316
3870.99183,0.47535
3869.06309,0.47742
3867.13434,0.47895
3865.20560,0.48012
3863.27685,0.48110
3861.34811,0.48197
3859.41936,0.48283
3857.49061,0.48375
3855.56187,0.48502
3853.63312,0.48668
3851.70438,0.48798
3849.77563,0.48914
3847.84689,0.49094
3845.91814,0.49292
3843.98940,0.49414
3842.06065,0.49441
3840.13191,0.49405
3838.20316,0.49318
3836.27442,0.49162
3834.34567,0.48982
3832.41693,0.48879
3830.48818,0.48873
3828.55943,0.48919
3826.63069,0.48992
3824.70194,0.49079
3822.77320,0.49131
3820.84445,0.49057
3818.91571,0.48824
3816.98696,0.48474
3815.05822,0.48034
3813.12947,0.47573
3811.20073,0.47163
3809.27198,0.46848
3807.34324,0.46668
3805.41449,0.46696
3803.48575,0.47014
3801.55700,0.47638
3799.62826,0.48400
3797.69951,0.49136
3795.77076,0.49833
3793.84202,0.50433
3791.91327,0.50904
3789.98453,0.51264
3788.05578,0.51512
3786.12704,0.51648
3784.19829,0.51690
3782.26955,0.51650
3780.34080,0.51505
3778.41206,0.51236
3776.48331,0.50873
3774.55457,0.50464
3772.62582,0.50061
3770.69708,0.49689
3768.76833,0.49318
3766.83959,0.48906
3764.91084,0.48434
3762.98209,0.47953
3761.05335,0.47489
3759.12460,0.47067
3757.19586,0.46850
3755.26711,0.47009
3753.33837,0.47574
3751.40962,0.48464
3749.48088,0.49443
3747.55213,0.50242
3745.62339,0.50827
3743.69464,0.51145
3741.76590,0.51087
3739.83715,0.50754
3737.90841,0.50254
3735.97966,0.49667
3734.05091,0.49170
3732.12217,0.48957
3730.19342,0.49107
3728.26468,0.49560
3726.33593,0.50195
3724.40719,0.50837
3722.47844,0.51314
3720.54970,0.51584
3718.62095,0.51691
3716.69221,0.51676
3714.76346,0.51546
3712.83472,0.51329
3710.90597,0.51027
3708.97723,0.50613
3707.04848,0.50104
3705.11974,0.49529
3703.19099,0.48875
3701.26224,0.48119
3699.33350,0.47274
3697.40475,0.46325
3695.47601,0.45207
3693.54726,0.43906
3691.61852,0.42545
3689.68977,0.41383
3687.76103,0.40764
3685.83228,0.40858
3683.90354,0.41594
3681.97479,0.42842
3680.04605,0.44389
3678.11730,0.46006
3676.18856,0.47644
3674.25981,0.49130
3672.33107,0.50252
3670.40232,0.51128
3668.47357,0.51754
3666.54483,0.52089
3664.61608,0.52272
3662.68734,0.52374
3660.75859,0.52395
3658.82985,0.52338
3656.90110,0.52184
3654.97236,0.51941
3653.04361,0.51685
3651.11487,0.51434
3649.18612,0.51138
3647.25738,0.50792
3645.32863,0.50422
3643.39989,0.50046
3641.47114,0.49689
3639.54239,0.49357
3637.61365,0.49043
3635.68490,0.48759
3633.75616,0.48495
3631.82741,0.48215
3629.89867,0.47884
3627.96992,0.47491
3626.04118,0.47102
3624.11243,0.46745
3622.18369,0.46382
3620.25494,0.45983
3618.32620,0.45559
3616.39745,0.45162
3614.46871,0.44785
3612.53996,0.44378
3610.61122,0.43929
3608.68247,0.43442
3606.75372,0.42943
3604.82498,0.42455
3602.89623,0.41943
3600.96749,0.41378
3599.03874,0.40780
3597.11000,0.40154
3595.18125,0.39482
3593.25251,0.38766
3591.32376,0.38027
3589.39502,0.37242
3587.46627,0.36407
3585.53753,0.35592
3583.60878,0.34825
3581.68004,0.34072
3579.75129,0.33316
3577.82254,0.32576
3575.89380,0.31872
3573.96505,0.31213
3572.03631,0.30627
3570.10756,0.30115
3568.17882,0.29620
3566.25007,0.29139
3564.32133,0.28746
3562.39258,0.28439
3560.46384,0.28134
3558.53509,0.27814
3556.60635,0.27535
3554.67760,0.27322
3552.74886,0.27155
3550.82011,0.27024
3548.89137,0.26933
3546.96262,0.26890
3545.03387,0.26895
3543.10513,0.26936
3541.17638,0.27004
3539.24764,0.27103
3537.31889,0.27230
3535.39015,0.27371
3533.46140,0.27552
3531.53266,0.27802
3529.60391,0.28101
3527.67517,0.28392
3525.74642,0.28659
3523.81768,0.28931
3521.88893,0.29213
3519.96019,0.29507
3518.03144,0.29819
3516.10270,0.30129
3514.17395,0.30438
3512.24520,0.30746
3510.31646,0.31033
3508.38771,0.31310
3506.45897,0.31596
3504.53022,0.31879
3502.60148,0.32121
3500.67273,0.32311
3498.74399,0.32485
3496.81524,0.32651
3494.88650,0.32789
3492.95775,0.32925
3491.02901,0.33072
3489.10026,0.33188
3487.17152,0.33228
3485.24277,0.33188
3483.31402,0.33123
3481.38528,0.33068
3479.45653,0.32996
3477.52779,0.32878
3475.59904,0.32696
3473.67030,0.32449
3471.74155,0.32146
3469.81281,0.31786
3467.88406,0.31373
3465.95532,0.30900
3464.02657,0.30351
3462.09783,0.29746
3460.16908,0.29099
3458.24034,0.28404
3456.31159,0.27679
3454.38285,0.26920
3452.45410,0.26096
3450.52535,0.25183
3448.59661,0.24203
3446.66786,0.23237
3444.73912,0.22317
3442.81037,0.21423
3440.88163,0.20549
3438.95288,0.19686
3437.02414,0.18856
3435.09539,0.18125
3433.16665,0.17526
3431.23790,0.17076
3429.30916,0.16794
3427.38041,0.16673
3425.45167,0.16668
3423.52292,0.16709
3421.59418,0.16740
3419.66543,0.16748
3417.73668,0.16733
3415.80794,0.16721
3413.87919,0.16787
3411.95045,0.17036
3410.02170,0.17582
3408.09296,0.18518
3406.16421,0.19844
3404.23547,0.21435
3402.30672,0.23125
3400.37798,0.24776
3398.44923,0.26293
3396.52049,0.27623
3394.59174,0.28750
3392.66300,0.29687
3390.73425,0.30455
3388.80550,0.31096
3386.87676,0.31626
3384.94801,0.32060
3383.01927,0.32457
3381.09052,0.32848
3379.16178,0.33195
3377.23303,0.33476
3375.30429,0.33685
3373.37554,0.33830
3371.44680,0.33934
3369.51805,0.33996
3367.58931,0.33992
3365.66056,0.33937
3363.73182,0.33873
3361.80307,0.33803
3359.87433,0.33692
3357.94558,0.33510
3356.01683,0.33251
3354.08809,0.32935
3352.15934,0.32593
3350.23060,0.32227
3348.30185,0.31807
3346.37311,0.31333
3344.44436,0.30830
3342.51562,0.30338
3340.58687,0.29891
3338.65813,0.29472
3336.72938,0.29067
3334.80064,0.28697
3332.87189,0.28403
3330.94315,0.28228
3329.01440,0.28204
3327.08566,0.28345
3325.15691,0.28675
3323.22816,0.29204
3321.29942,0.29846
3319.37067,0.30464
3317.44193,0.30968
3315.51318,0.31339
3313.58444,0.31613
3311.65569,0.31784
3309.72695,0.31826
3307.79820,0.31772
3305.86946,0.31657
3303.94071,0.31475
3302.01197,0.31250
3300.08322,0.31039
3298.15448,0.30869
3296.22573,0.30735
3294.29698,0.30622
3292.36824,0.30521
3290.43949,0.30481
3288.51075,0.30577
3286.58200,0.30830
3284.65326,0.31170
3282.72451,0.31525
3280.79577,0.31864
3278.86702,0.32136
3276.93828,0.32318
3275.00953,0.32472
3273.08079,0.32626
3271.15204,0.32745
3269.22330,0.32821
3267.29455,0.32885
3265.36581,0.32931
3263.43706,0.32911
3261.50831,0.32847
3259.57957,0.32825
3257.65082,0.32851
3255.72208,0.32841
3253.79333,0.32761
3251.86459,0.32655
3249.93584,0.32558
3248.00710,0.32455
3246.07835,0.32335
3244.14961,0.32217
3242.22086,0.32098
3240.29212,0.31949
3238.36337,0.31760
3236.43463,0.31565
3234.50588,0.31416
3232.57713,0.31314
3230.64839,0.31198
3228.71964,0.31049
3226.79090,0.30928
3224.86215,0.30877
3222.93341,0.30876
3221.00466,0.30922
3219.07592,0.31045
3217.14717,0.31256
3215.21843,0.31505
3213.28968,0.31728
3211.36094,0.31897
3209.43219,0.32009
3207.50345,0.32063
3205.57470,0.32052
3203.64596,0.31983
3201.71721,0.31890
3199.78846,0.31794
3197.85972,0.31678
3195.93097,0.31527
3194.00223,0.31361
3192.07348,0.31206
3190.14474,0.31082
3188.21599,0.30987
3186.28725,0.30900
3184.35850,0.30813
3182.42976,0.30725
3180.50101,0.30646
3178.57227,0.30560
3176.64352,0.30437
3174.71478,0.30313
3172.78603,0.30220
3170.85729,0.30125
3168.92854,0.30014
3166.99979,0.29905
3165.07105,0.29778
3163.14230,0.29614
3161.21356,0.29440
3159.28481,0.29268
3157.35607,0.29065
3155.42732,0.28837
3153.49858,0.28624
3151.56983,0.28401
3149.64109,0.28131
3147.71234,0.27832
3145.78360,0.27517
3143.85485,0.27180
3141.92611,0.26816
3139.99736,0.26404
3138.06861,0.25929
3136.13987,0.25392
3134.21112,0.24802
3132.28238,0.24186
3130.35363,0.23611
3128.42489,0.23175
3126.49614,0.22967
3124.56740,0.22986
3122.63865,0.23134
3120.70991,0.23283
3118.78116,0.23317
3116.85242,0.23162
3114.92367,0.22794
3112.99493,0.22255
3111.06618,0.21633
3109.13744,0.20983
3107.20869,0.20317
3105.27994,0.19697
3103.35120,0.19242
3101.42245,0.19059
3099.49371,0.19174
3097.56496,0.19469
3095.63622,0.19746
3093.70747,0.19842
3091.77873,0.19643
3089.84998,0.19148
3087.92124,0.18493
3085.99249,0.17826
3084.06375,0.17234
3082.13500,0.16790
3080.20626,0.16546
3078.27751,0.16457
3076.34877,0.16410
3074.42002,0.16335
3072.49127,0.16202
3070.56253,0.15997
3068.63378,0.15793
3066.70504,0.15677
3064.77629,0.15657
3062.84755,0.15670
3060.91880,0.15629
3058.99006,0.15476
3057.06131,0.15264
3055.13257,0.15169
3053.20382,0.15409
3051.27508,0.16106
3049.34633,0.17209
3047.41759,0.18532
3045.48884,0.19812
3043.56009,0.20823
3041.63135,0.21473
3039.70260,0.21797
3037.77386,0.21893
3035.84511,0.21824
3033.91637,0.21593
3031.98762,0.21197
3030.05888,0.20685
3028.13013,0.20096
3026.20139,0.19410
3024.27264,0.18608
3022.34390,0.17724
3020.41515,0.16796
3018.48641,0.15835
3016.55766,0.14867
3014.62892,0.13950
3012.70017,0.13120
3010.77142,0.12344
3008.84268,0.11571
3006.91393,0.10790
3004.98519,0.10009
3003.05644,0.09257
3001.12770,0.08556
2999.19895,0.07895
2997.27021,0.07263
2995.34146,0.06659
2993.41272,0.06072
2991.48397,0.05500
2989.55523,0.04964
2987.62648,0.04486
2985.69774,0.04089
2983.76899,0.03793
2981.84025,0.03599
2979.91150,0.03491
2977.98275,0.03434
2976.05401,0.03389
2974.12526,0.03356
2972.19652,0.03347
2970.26777,0.03361
2968.33903,0.03386
2966.41028,0.03403
2964.48154,0.03426
2962.55279,0.03482
2960.62405,0.03592
2958.69530,0.03760
2956.76656,0.03986
2954.83781,0.04282
2952.90907,0.04636
2950.98032,0.05029
2949.05157,0.05467
2947.12283,0.05934
2945.19408,0.06371
2943.26534,0.06728
2941.33659,0.07006
2939.40785,0.07249
2937.47910,0.07469
2935.55036,0.07631
2933.62161,0.07741
2931.69287,0.07831
2929.76412,0.07894
2927.83538,0.07920
2925.90663,0.07912
2923.97789,0.07870
2922.04914,0.07827
2920.12040,0.07810
2918.19165,0.07761
2916.26290,0.07608
2914.33416,0.07314
2912.40541,0.06887
2910.47667,0.06381
2908.54792,0.05866
2906.61918,0.05429
2904.69043,0.05155
2902.76169,0.05106
2900.83294,0.05329
2898.90420,0.05808
2896.97545,0.06427
2895.04671,0.07073
2893.11796,0.07702
2891.18922,0.08271
2889.26047,0.08763
2887.33172,0.09207
2885.40298,0.09598
2883.47423,0.09933
2881.54549,0.10255
2879.61674,0.10580
2877.68800,0.10872
2875.75925,0.11102
2873.83051,0.11278
2871.90176,0.11419
2869.97302,0.11533
2868.04427,0.11611
2866.11553,0.11662
2864.18678,0.11722
2862.25804,0.11804
2860.32929,0.11894
2858.40055,0.11996
2856.47180,0.12158
2854.54305,0.12406
2852.61431,0.12725
2850.68556,0.13167
2848.75682,0.13828
2846.82807,0.14665
2844.89933,0.15507
2842.97058,0.16236
2841.04184,0.16877
2839.11309,0.17459
2837.18435,0.17966
2835.25560,0.18403
2833.32686,0.18819
2831.39811,0.19285
2829.46937,0.19848
2827.54062,0.20492
2825.61188,0.21180
2823.68313,0.21887
2821.75438,0.22579
2819.82564,0.23186
2817.89689,0.23649
2815.96815,0.23973
2814.03940,0.24194
2812.11066,0.24323
2810.18191,0.24364
2808.25317,0.24377
2806.32442,0.24454
2804.39568,0.24651
2802.46693,0.24953
2800.53819,0.25308
2798.60944,0.25669
2796.68070,0.25992
2794.75195,0.26221
2792.82320,0.26336
2790.89446,0.26383
2788.96571,0.26424
2787.03697,0.26478
2785.10822,0.26529
2783.17948,0.26558
2781.25073,0.26582
2779.32199,0.26624
2777.39324,0.26680
2775.46450,0.26737
2773.53575,0.26797
2771.60701,0.26901
2769.67826,0.27116
2767.74952,0.27467
2765.82077,0.27907
2763.89203,0.28367
2761.96328,0.28807
2760.03453,0.29224
2758.10579,0.29610
2756.17704,0.29938
2754.24830,0.30187
2752.31955,0.30353
2750.39081,0.30439
2748.46206,0.30454
2746.53332,0.30419
2744.60457,0.30366
2742.67583,0.30338
2740.74708,0.30409
2738.81834,0.30641
2736.88959,0.31032
2734.96085,0.31528
2733.03210,0.32079
2731.10336,0.32639
2729.17461,0.33164
2727.24586,0.33620
2725.31712,0.33998
2723.38837,0.34295
2721.45963,0.34486
2719.53088,0.34552
2717.60214,0.34527
2715.67339,0.34468
2713.74465,0.34427
2711.81590,0.34482
2709.88716,0.34697
2707.95841,0.35055
2706.02967,0.35460
2704.10092,0.35819
2702.17218,0.36104
2700.24343,0.36328
2698.31468,0.36501
2696.38594,0.36636
2694.45719,0.36733
2692.52845,0.36793
2690.59970,0.36817
2688.67096,0.36801
2686.74221,0.36750
2684.81347,0.36703
2682.88472,0.36705
2680.95598,0.36744
2679.02723,0.36783
2677.09849,0.36812
2675.16974,0.36814
2673.24100,0.36755
2671.31225,0.36644
2669.38351,0.36530
2667.45476,0.36448
2665.52601,0.36377
2663.59727,0.36276
2661.66852,0.36164
2659.73978,0.36067
2657.81103,0.35945
2655.88229,0.35753
2653.95354,0.35516
2652.02480,0.35262
2650.09605,0.34979
2648.16731,0.34669
2646.23856,0.34342
2644.30982,0.34001
2642.38107,0.33661
2640.45233,0.33318
2638.52358,0.32929
2636.59484,0.32475
2634.66609,0.31999
2632.73734,0.31582
2630.80860,0.31302
2628.87985,0.31201
2626.95111,0.31275
2625.02236,0.31453
2623.09362,0.31669
2621.16487,0.31897
2619.23613,0.32129
2617.30738,0.32363
2615.37864,0.32599
2613.44989,0.32808
2611.52115,0.32952
2609.59240,0.33023
2607.66366,0.33045
2605.73491,0.33050
2603.80616,0.33042
2601.87742,0.32993
2599.94867,0.32882
2598.01993,0.32689
2596.09118,0.32396
2594.16244,0.32017
2592.23369,0.31575
2590.30495,0.31095
2588.37620,0.30616
2586.44746,0.30171
2584.51871,0.29768
2582.58997,0.29418
2580.66122,0.29171
2578.73248,0.29053
2576.80373,0.29041
2574.87499,0.29112
2572.94624,0.29232
2571.01749,0.29358
2569.08875,0.29461
2567.16000,0.29496
2565.23126,0.29428
2563.30251,0.29285
2561.37377,0.29113
2559.44502,0.28939
2557.51628,0.28773
2555.58753,0.28593
2553.65879,0.28388
2551.73004,0.28205
2549.80130,0.28077
2547.87255,0.27979
2545.94381,0.27884
2544.01506,0.27796
2542.08631,0.27727
2540.15757,0.27683
2538.22882,0.27679
2536.30008,0.27740
2534.37133,0.27865
2532.44259,0.28032
2530.51384,0.28244
2528.58510,0.28505
2526.65635,0.28797
2524.72761,0.29108
2522.79886,0.29430
2520.87012,0.29752
2518.94137,0.30076
2517.01263,0.30380
2515.08388,0.30655
2513.15514,0.30930
2511.22639,0.31231
2509.29764,0.31559
2507.36890,0.31910
2505.44015,0.32260
2503.51141,0.32569
2501.58266,0.32812
2499.65392,0.32982
2497.72517,0.33100
2495.79643,0.33197
2493.86768,0.33295
2491.93894,0.33393
2490.01019,0.33475
2488.08145,0.33547
2486.15270,0.33650
2484.22396,0.33837
2482.29521,0.34120
2480.36647,0.34461
2478.43772,0.34825
2476.50897,0.35197
2474.58023,0.35543
2472.65148,0.35838
2470.72274,0.36070
2468.79399,0.36231
2466.86525,0.36317
2464.93650,0.36339
2463.00776,0.36339
2461.07901,0.36347
2459.15027,0.36335
2457.22152,0.36268
2455.29278,0.36164
2453.36403,0.36044
2451.43529,0.35913
2449.50654,0.35766
2447.57779,0.35595
2445.64905,0.35366
2443.72030,0.35029
2441.79156,0.34554
2439.86281,0.33941
2437.93407,0.33225
2436.00532,0.32452
2434.07658,0.31678
2432.14783,0.30977
2430.21909,0.30379
2428.29034,0.29840
2426.36160,0.29313
2424.43285,0.28771
2422.50411,0.28200
2420.57536,0.27618
2418.64662,0.27047
2416.71787,0.26492
2414.78912,0.25964
2412.86038,0.25493
2410.93163,0.25093
2409.00289,0.24740
2407.07414,0.24396
2405.14540,0.24054
2403.21665,0.23714
2401.28791,0.23380
2399.35916,0.23059
2397.43042,0.22767
2395.50167,0.22520
2393.57293,0.22320
2391.64418,0.22156
2389.71544,0.22030
2387.78669,0.21946
2385.85795,0.21906
2383.92920,0.21902
2382.00045,0.21915
2380.07171,0.21938
2378.14296,0.21991
2376.21422,0.22094
2374.28547,0.22261
2372.35673,0.22519
2370.42798,0.22881
2368.49924,0.23331
2366.57049,0.23847
2364.64175,0.24425
2362.71300,0.25071
2360.78426,0.25781
2358.85551,0.26521
2356.92677,0.27253
2354.99802,0.27970
2353.06927,0.28671
2351.14053,0.29344
2349.21178,0.29979
2347.28304,0.30583
2345.35429,0.31165
2343.42555,0.31719
2341.49680,0.32240
2339.56806,0.32724
2337.63931,0.33132
2335.71057,0.33426
2333.78182,0.33605
2331.85308,0.33675
2329.92433,0.33620
2327.99559,0.33474
2326.06684,0.33362
2324.13810,0.33440
2322.20935,0.33785
2320.28060,0.34334
2318.35186,0.34931
2316.42311,0.35430
2314.49437,0.35756
2312.56562,0.35900
2310.63688,0.35885
2308.70813,0.35732
2306.77939,0.35484
2304.85064,0.35164
2302.92190,0.34748
2300.99315,0.34231
2299.06441,0.33618
2297.13566,0.32901
2295.20692,0.32112
2293.27817,0.31295
2291.34943,0.30482
2289.42068,0.29740
2287.49193,0.29149
2285.56319,0.28740
2283.63444,0.28528
2281.70570,0.28524
2279.77695,0.28704
2277.84821,0.29017
2275.91946,0.29413
2273.99072,0.29833
2272.06197,0.30196
2270.13323,0.30436
2268.20448,0.30545
2266.27574,0.30557
2264.34699,0.30498
2262.41825,0.30372
2260.48950,0.30201
2258.56075,0.29988
2256.63201,0.29710
2254.70326,0.29381
2252.77452,0.29035
2250.84577,0.28683
2248.91703,0.28346
2246.98828,0.28063
2245.05954,0.27863
2243.13079,0.27743
2241.20205,0.27684
2239.27330,0.27664
2237.34456,0.27643
2235.41581,0.27589
2233.48707,0.27514
2231.55832,0.27453
2229.62958,0.27419
2227.70083,0.27412
2225.77208,0.27434
2223.84334,0.27478
2221.91459,0.27526
2219.98585,0.27548
2218.05710,0.27512
2216.12836,0.27409
2214.19961,0.27259
2212.27087,0.27107
2210.34212,0.27036
2208.41338,0.27124
2206.48463,0.27384
2204.55589,0.27760
2202.62714,0.28160
2200.69840,0.28505
2198.76965,0.28758
2196.84090,0.28931
2194.91216,0.29061
2192.98341,0.29189
2191.05467,0.29345
2189.12592,0.29556
2187.19718,0.29839
2185.26843,0.30161
2183.33969,0.30460
2181.41094,0.30701
2179.48220,0.30879
2177.55345,0.30978
2175.62471,0.30991
2173.69596,0.30931
2171.76722,0.30805
2169.83847,0.30616
2167.90973,0.30376
2165.98098,0.30107
2164.05223,0.29826
2162.12349,0.29533
2160.19474,0.29230
2158.26600,0.28920
2156.33725,0.28599
2154.40851,0.28275
2152.47976,0.27976
2150.55102,0.27729
2148.62227,0.27542
2146.69353,0.27389
2144.76478,0.27236
2142.83604,0.27068
2140.90729,0.26901
2138.97855,0.26761
2137.04980,0.26647
2135.12106,0.26537
2133.19231,0.26417
2131.26356,0.26284
2129.33482,0.26130
2127.40607,0.25967
2125.47733,0.25812
2123.54858,0.25651
2121.61984,0.25466
2119.69109,0.25266
2117.76235,0.25083
2115.83360,0.24946
2113.90486,0.24868
2111.97611,0.24845
2110.04737,0.24848
2108.11862,0.24841
2106.18988,0.24823
2104.26113,0.24802
2102.33238,0.24779
2100.40364,0.24769
2098.47489,0.24786
2096.54615,0.24827
2094.61740,0.24890
2092.68866,0.24989
2090.75991,0.25101
2088.83117,0.25197
2086.90242,0.25303
2084.97368,0.25448
2083.04493,0.25610
2081.11619,0.25769
2079.18744,0.25932
2077.25870,0.26090
2075.32995,0.26222
2073.40121,0.26313
2071.47246,0.26348
2069.54371,0.26316
2067.61497,0.26228
2065.68622,0.26130
2063.75748,0.26063
2061.82873,0.26048
2059.89999,0.26097
2057.97124,0.26216
2056.04250,0.26393
2054.11375,0.26628
2052.18501,0.26915
2050.25626,0.27214
2048.32752,0.27471
2046.39877,0.27628
2044.47003,0.27648
2042.54128,0.27530
2040.61254,0.27301
2038.68379,0.27005
2036.75504,0.26684
2034.82630,0.26362
2032.89755,0.26066
2030.96881,0.25849
2029.04006,0.25775
2027.11132,0.25838
2025.18257,0.25969
2023.25383,0.26084
2021.32508,0.26114
2019.39634,0.26061
2017.46759,0.25983
2015.53885,0.25941
2013.61010,0.25973
2011.68136,0.26072
2009.75261,0.26196
2007.82386,0.26283
2005.89512,0.26275
2003.96637,0.26144
2002.03763,0.25906
2000.10888,0.25593
1998.18014,0.25242
1996.25139,0.24890
1994.32265,0.24543
1992.39390,0.24208
1990.46516,0.23924
1988.53641,0.23727
1986.60767,0.23604
1984.67892,0.23492
1982.75018,0.23328
1980.82143,0.23072
1978.89269,0.22714
1976.96394,0.22267
1975.03519,0.21739
1973.10645,0.21145
1971.17770,0.20487
1969.24896,0.19745
1967.32021,0.18908
1965.39147,0.17996
1963.46272,0.17053
1961.53398,0.16129
1959.60523,0.15262
1957.67649,0.14476
1955.74774,0.13807
1953.81900,0.13345
1951.89025,0.13217
1949.96151,0.13499
1948.03276,0.14142
1946.10402,0.15015
1944.17527,0.15997
1942.24652,0.16999
1940.31778,0.17967
1938.38903,0.18886
1936.46029,0.19760
1934.53154,0.20584
1932.60280,0.21352
1930.67405,0.22065
1928.74531,0.22740
1926.81656,0.23385
1924.88782,0.23977
1922.95907,0.24503
1921.03033,0.24971
1919.10158,0.25361
1917.17284,0.25652
1915.24409,0.25861
1913.31534,0.26008
1911.38660,0.26093
1909.45785,0.26104
1907.52911,0.26031
1905.60036,0.25869
1903.67162,0.25628
1901.74287,0.25341
1899.81413,0.25064
1897.88538,0.24823
1895.95664,0.24600
1894.02789,0.24376
1892.09915,0.24136
1890.17040,0.23866
1888.24166,0.23570
1886.31291,0.23280
1884.38417,0.23052
1882.45542,0.22942
1880.52667,0.22956
1878.59793,0.23036
1876.66918,0.23090
1874.74044,0.23044
1872.81169,0.22881
1870.88295,0.22614
1868.95420,0.22262
1867.02546,0.21867
1865.09671,0.21481
1863.16797,0.21116
1861.23922,0.20760
1859.31048,0.20405
1857.38173,0.20035
1855.45299,0.19609
1853.52424,0.19098
1851.59549,0.18501
1849.66675,0.17824
1847.73800,0.17094
1845.80926,0.16332
1843.88051,0.15559
1841.95177,0.14846
1840.02302,0.14219
1838.09428,0.13632
1836.16553,0.13068
1834.23679,0.12540
1832.30804,0.12056
1830.37930,0.11597
1828.45055,0.11179
1826.52181,0.10858
1824.59306,0.10664
1822.66432,0.10582
1820.73557,0.10564
1818.80682,0.10562
1816.87808,0.10553
1814.94933,0.10515
1813.02059,0.10434
1811.09184,0.10317
1809.16310,0.10190
1807.23435,0.10052
1805.30561,0.09895
1803.37686,0.09734
1801.44812,0.09591
1799.51937,0.09465
1797.59063,0.09348
1795.66188,0.09239
1793.73314,0.09125
1791.80439,0.08977
1789.87565,0.08790
1787.94690,0.08573
1786.01815,0.08331
1784.08941,0.08078
1782.16066,0.07832
1780.23192,0.07583
1778.30317,0.07326
1776.37443,0.07082
1774.44568,0.06838
1772.51694,0.06561
1770.58819,0.06256
1768.65945,0.05941
1766.73070,0.05610
1764.80196,0.05269
1762.87321,0.04918
1760.94447,0.04562
1759.01572,0.04204
1757.08697,0.03827
1755.15823,0.03455
1753.22948,0.03108
1751.30074,0.02773
1749.37199,0.02467
1747.44325,0.02209
1745.51450,0.01989
1743.58576,0.01806
1741.65701,0.01675
1739.72827,0.01605
1737.79952,0.01584
1735.87078,0.01604
1733.94203,0.01677
1732.01329,0.01789
1730.08454,0.01935
1728.15580,0.02123
1726.22705,0.02327
1724.29830,0.02537
1722.36956,0.02755
1720.44081,0.02963
1718.51207,0.03147
1716.58332,0.03276
1714.65458,0.03317
1712.72583,0.03266
1710.79709,0.03143
1708.86834,0.02993
1706.93960,0.02880
1705.01085,0.02848
1703.08211,0.02897
1701.15336,0.03003
1699.22462,0.03146
1697.29587,0.03310
1695.36713,0.03495
1693.43838,0.03700
1691.50963,0.03924
1689.58089,0.04131
1687.65214,0.04272
1685.72340,0.04358
1683.79465,0.04419
1681.86591,0.04474
1679.93716,0.04541
1678.00842,0.04598
1676.07967,0.04637
1674.15093,0.04750
1672.22218,0.05046
1670.29344,0.05539
1668.36469,0.06160
1666.43595,0.06794
1664.50720,0.07413
1662.57845,0.08025
1660.64971,0.08575
1658.72096,0.09020
1656.79222,0.09373
1654.86347,0.09684
1652.93473,0.09986
1651.00598,0.10226
1649.07724,0.10420
1647.14849,0.10631
1645.21975,0.10839
1643.29100,0.11023
1641.36226,0.11197
1639.43351,0.11366
1637.50477,0.11544
1635.57602,0.11749
1633.64728,0.11969
1631.71853,0.12177
1629.78978,0.12347
1627.86104,0.12467
1625.93229,0.12528
1624.00355,0.12498
1622.07480,0.12311
1620.14606,0.11893
1618.21731,0.11203
1616.28857,0.10402
1614.35982,0.09946
1612.43108,0.09994
1610.50233,0.10397
1608.57359,0.11019
1606.64484,0.11743
1604.71610,0.12472
1602.78735,0.13136
1600.85861,0.13681
1598.92986,0.14028
1597.00111,0.14109
1595.07237,0.13949
1593.14362,0.13644
1591.21488,0.13242
1589.28613,0.12662
1587.35739,0.11782
1585.42864,0.10564
1583.49990,0.09125
1581.57115,0.07757
1579.64241,0.06816
1577.71366,0.06530
1575.78492,0.06985
1573.85617,0.07958
1571.92743,0.09104
1569.99868,0.10282
1568.06993,0.11287
1566.14119,0.11994
1564.21244,0.12486
1562.28370,0.12829
1560.35495,0.13041
1558.42621,0.13127
1556.49746,0.13160
1554.56872,0.13230
1552.63997,0.13343
1550.71123,0.13461
1548.78248,0.13536
1546.85374,0.13533
1544.92499,0.13458
1542.99625,0.13306
1541.06750,0.13005
1539.13876,0.12504
1537.21001,0.11910
1535.28126,0.11259
1533.35252,0.10519
1531.42377,0.09875
1529.49503,0.09495
1527.56628,0.09337
1525.63754,0.09324
1523.70879,0.09391
1521.78005,0.09456
1519.85130,0.09410
1517.92256,0.09158
1515.99381,0.08635
1514.06507,0.07834
1512.13632,0.06775
1510.20758,0.05531
1508.27883,0.04258
1506.35008,0.03255
1504.42134,0.03017
1502.49259,0.03665
1500.56385,0.05014
1498.63510,0.06729
1496.70636,0.08385
1494.77761,0.09598
1492.84887,0.10167
1490.92012,0.10136
1488.99138,0.09638
1487.06263,0.08847
1485.13389,0.07917
1483.20514,0.06936
1481.27640,0.05943
1479.34765,0.05017
1477.41891,0.04237
1475.49016,0.03609
1473.56141,0.03106
1471.63267,0.02759
1469.70392,0.02601
1467.77518,0.02558
1465.84643,0.02560
1463.91769,0.02619
1461.98894,0.02746
1460.06020,0.02908
1458.13145,0.03080
1456.20271,0.03243
1454.27396,0.03405
1452.34522,0.03627
1450.41647,0.03932
1448.48773,0.04274
1446.55898,0.04587
1444.63024,0.04829
1442.70149,0.05013
1440.77274,0.05157
1438.84400,0.05253
1436.91525,0.05281
1434.98651,0.05218
1433.05776,0.05054
1431.12902,0.04770
1429.20027,0.04369
1427.27153,0.03916
1425.34278,0.03490
1423.41404,0.03129
1421.48529,0.02847
1419.55655,0.02598
1417.62780,0.02319
1415.69906,0.02048
1413.77031,0.01862
1411.84156,0.01793
1409.91282,0.01822
1407.98407,0.01921
1406.05533,0.02054
1404.12658,0.02193
1402.19784,0.02317
1400.26909,0.02411
1398.34035,0.02458
1396.41160,0.02458
1394.48286,0.02408
1392.55411,0.02321
1390.62537,0.02269
1388.69662,0.02290
1386.76788,0.02343
1384.83913,0.02394
1382.91039,0.02445
1380.98164,0.02491
1379.05289,0.02539
1377.12415,0.02613
1375.19540,0.02714
1373.26666,0.02813
1371.33791,0.02892
1369.40917,0.02936
1367.48042,0.02922
1365.55168,0.02845
1363.62293,0.02715
1361.69419,0.02565
1359.76544,0.02449
1357.83670,0.02409
1355.90795,0.02463
1353.97921,0.02619
1352.05046,0.02839
1350.12172,0.03035
1348.19297,0.03133
1346.26422,0.03128
1344.33548,0.03055
1342.40673,0.02921
1340.47799,0.02740
1338.54924,0.02552
1336.62050,0.02387
1334.69175,0.02265
1332.76301,0.02179
1330.83426,0.02108
1328.90552,0.02038
1326.97677,0.01964
1325.04803,0.01885
1323.11928,0.01821
1321.19054,0.01772
1319.26179,0.01724
1317.33304,0.01665
1315.40430,0.01596
1313.47555,0.01540
1311.54681,0.01511
1309.61806,0.01488
1307.68932,0.01455
1305.76057,0.01424
1303.83183,0.01421
1301.90308,0.01463
1299.97434,0.01523
1298.04559,0.01578
1296.11685,0.01650
1294.18810,0.01761
1292.25936,0.01883
1290.33061,0.02004
1288.40187,0.02149
1286.47312,0.02335
1284.54437,0.02555
1282.61563,0.02809
1280.68688,0.03071
1278.75814,0.03315
1276.82939,0.03546
1274.90065,0.03750
1272.97190,0.03878
1271.04316,0.03930
1269.11441,0.03952
1267.18567,0.03953
1265.25692,0.03914
1263.32818,0.03833
1261.39943,0.03736
1259.47069,0.03641
1257.54194,0.03564
1255.61320,0.03532
1253.68445,0.03567
1251.75570,0.03653
1249.82696,0.03752
1247.89821,0.03801
1245.96947,0.03764
1244.04072,0.03674
1242.11198,0.03578
1240.18323,0.03506
1238.25449,0.03460
1236.32574,0.03425
1234.39700,0.03388
1232.46825,0.03383
1230.53951,0.03444
1228.61076,0.03527
1226.68202,0.03574
1224.75327,0.03599
1222.82452,0.03662
1220.89578,0.03840
1218.96703,0.04174
1217.03829,0.04593
1215.10954,0.04985
1213.18080,0.05300
1211.25205,0.05545
1209.32331,0.05743
1207.39456,0.05915
1205.46582,0.06081
1203.53707,0.06263
1201.60833,0.06498
1199.67958,0.06815
1197.75084,0.07173
1195.82209,0.07499
1193.89335,0.07768
1191.96460,0.07948
1190.03585,0.07978
1188.10711,0.07837
1186.17836,0.07532
1184.24962,0.07067
1182.32087,0.06486
1180.39213,0.05861
1178.46338,0.05290
1176.53464,0.04854
1174.60589,0.04588
1172.67715,0.04499
1170.74840,0.04549
1168.81966,0.04653
1166.89091,0.04713
1164.96217,0.04673
1163.03342,0.04524
1161.10467,0.04283
1159.17593,0.04001
1157.24718,0.03704
1155.31844,0.03378
1153.38969,0.03035
1151.46095,0.02701
1149.53220,0.02401
1147.60346,0.02174
1145.67471,0.02035
1143.74597,0.01942
1141.81722,0.01852
1139.88848,0.01762
1137.95973,0.01714
1136.03099,0.01746
1134.10224,0.01858
1132.17350,0.02050
1130.24475,0.02303
1128.31600,0.02539
1126.38726,0.02700
1124.45851,0.02773
1122.52977,0.02763
1120.60102,0.02691
1118.67228,0.02599
1116.74353,0.02525
1114.81479,0.02482
1112.88604,0.02461
1110.95730,0.02461
1109.02855,0.02504
1107.09981,0.02613
1105.17106,0.02775
1103.24232,0.02942
1101.31357,0.03055
1099.38483,0.03086
1097.45608,0.03058
1095.52733,0.02993
1093.59859,0.02906
1091.66984,0.02831
1089.74110,0.02789
1087.81235,0.02806
1085.88361,0.02885
1083.95486,0.03007
1082.02612,0.03200
1080.09737,0.03485
1078.16863,0.03849
1076.23988,0.04299
1074.31114,0.04824
1072.38239,0.05347
1070.45365,0.05806
1068.52490,0.06186
1066.59615,0.06444
1064.66741,0.06551
1062.73866,0.06543
1060.80992,0.06442
1058.88117,0.06206
1056.95243,0.05803
1055.02368,0.05259
1053.09494,0.04641
1051.16619,0.04031
1049.23745,0.03521
1047.30870,0.03168
1045.37996,0.02972
1043.45121,0.02930
1041.52247,0.03007
1039.59372,0.03114
1037.66498,0.03202
1035.73623,0.03259
1033.80748,0.03266
1031.87874,0.03231
1029.94999,0.03149
1028.02125,0.02999
1026.09250,0.02814
1024.16376,0.02683
1022.23501,0.02645
1020.30627,0.02681
1018.37752,0.02813
1016.44878,0.03182
1014.52003,0.03952
1012.59129,0.05120
1010.66254,0.06549
1008.73380,0.08073
1006.80505,0.09462
1004.87631,0.10522
1002.94756,0.11265
1001.01881,0.11776
999.09007,0.12069
997.16132,0.12132
995.23258,0.11968
993.30383,0.11592
991.37509,0.11057
989.44634,0.10475
987.51760,0.09928
985.58885,0.09386
983.66011,0.08793
981.73136,0.08185
979.80262,0.07663
977.87387,0.07307
975.94513,0.07131
974.01638,0.07112
972.08763,0.07241
970.15889,0.07531
968.23014,0.07948
966.30140,0.08388
964.37265,0.08773
962.44391,0.09016
960.51516,0.08980
958.58642,0.08611
956.65767,0.08016
954.72893,0.07354
952.80018,0.06736
950.87144,0.06253
948.94269,0.06022
947.01395,0.06103
945.08520,0.06326
943.15646,0.06402
941.22771,0.06248
939.29896,0.06036
937.37022,0.05951
935.44147,0.06030
933.51273,0.06234
931.58398,0.06561
929.65524,0.07007
927.72649,0.07543
925.79775,0.08144
923.86900,0.08732
921.94026,0.09187
920.01151,0.09470
918.08277,0.09620
916.15402,0.09668
914.22528,0.09616
912.29653,0.09425
910.36779,0.09098
908.43904,0.08822
906.51029,0.08771
904.58155,0.08889
902.65280,0.09071
900.72406,0.09307
898.79531,0.09602
896.86657,0.09912
894.93782,0.10180
893.00908,0.10384
891.08033,0.10455
889.15159,0.10271
887.22284,0.09760
885.29410,0.08896
883.36535,0.07713
881.43661,0.06391
879.50786,0.05199
877.57911,0.04287
875.65037,0.03656
873.72162,0.03348
871.79288,0.03573
869.86413,0.04539
867.93539,0.06055
866.00664,0.07528
864.07790,0.08473
862.14915,0.08778
860.22041,0.08569
858.29166,0.08062
856.36292,0.07499
854.43417,0.07090
852.50543,0.06899
850.57668,0.06844
848.64794,0.06880
846.71919,0.07020
844.79044,0.07288
842.86170,0.07723
840.93295,0.08308
839.00421,0.08960
837.07546,0.09567
835.14672,0.10035
833.21797,0.10367
831.28923,0.10618
829.36048,0.10777
827.43174,0.10811
825.50299,0.10754
823.57425,0.10665
821.64550,0.10609
819.71676,0.10662
817.78801,0.10781
815.85926,0.10851
813.93052,0.10860
812.00177,0.10882
810.07303,0.10972
808.14428,0.11147
806.21554,0.11397
804.28679,0.11646
802.35805,0.11668
800.42930,0.11102
798.50056,0.09857
796.57181,0.08554
794.64307,0.08105
792.71432,0.08814
790.78558,0.10189
788.85683,0.11577
786.92809,0.12660
784.99934,0.13357
783.07059,0.13635
781.14185,0.13513
779.21310,0.13077
777.28436,0.12511
775.35561,0.12071
773.42687,0.11922
771.49812,0.12038
769.56938,0.12285
767.64063,0.12538
765.71189,0.12730
763.78314,0.12818
761.85440,0.12782
759.92565,0.12628
757.99691,0.12366
756.06816,0.12013
754.13942,0.11586
752.21067,0.11048
750.28192,0.10301
748.35318,0.09261
746.42443,0.07902
744.49569,0.06330
742.56694,0.04751
740.63820,0.03356
738.70945,0.02356
736.78071,0.01880
734.85196,0.01829
732.92322,0.02027
730.99447,0.02359
729.06573,0.02710
727.13698,0.02998
725.20824,0.03253
723.27949,0.03612
721.35074,0.04331
719.42200,0.05586
717.49325,0.07194
715.56451,0.08740
713.63576,0.09892
711.70702,0.10530
709.77827,0.10762
707.84953,0.10838
705.92078,0.11039
703.99204,0.11642
702.06329,0.12791
700.13455,0.14344
698.20580,0.15954
696.27706,0.17292
694.34831,0.18195
692.41957,0.18703
690.49082,0.18933
688.56207,0.18909
686.63333,0.18631
684.70458,0.18184
682.77584,0.17720
680.84709,0.17483
678.91835,0.17702
676.98960,0.18298
675.06086,0.18960
673.13211,0.19487
671.20337,0.19848
669.27462,0.20125
667.34588,0.20418
665.41713,0.20704
663.48839,0.20938
661.55964,0.21100
659.63090,0.21179
657.70215,0.21219
655.77340,0.21276
653.84466,0.21394
651.91591,0.21575
649.98717,0.21770
648.05842,0.21947
646.12968,0.22005
644.20093,0.21898
642.27219,0.21803
640.34344,0.21812
638.41470,0.21673
636.48595,0.20839
634.55721,0.19107
632.62846,0.17782
630.69972,0.18444
628.77097,0.20404
626.84222,0.21986
624.91348,0.22777
622.98473,0.23132
621.05599,0.23310
619.12724,0.23447
617.19850,0.23594
615.26975,0.23783
613.34101,0.24012
611.41226,0.24220
609.48352,0.24303
607.55477,0.24198
605.62603,0.24059
603.69728,0.24088
601.76854,0.24179
599.83979,0.24130
