7497.03301,0.83556
7495.10426,0.84138
7493.17552,0.85526
7491.24677,0.86411
7489.31803,0.85946
7487.38928,0.84841
7485.46054,0.84110
7483.53179,0.84097
7481.60305,0.84634
7479.67430,0.84792
7477.74556,0.84141
7475.81681,0.83623
7473.88807,0.83815
7471.95932,0.84103
7470.03057,0.83901
7468.10183,0.83624
7466.17308,0.83765
7464.24434,0.84034
7462.31559,0.84170
7460.38685,0.84155
7458.45810,0.83691
7456.52936,0.82867
7454.60061,0.82672
7452.67187,0.83334
7450.74312,0.83644
7448.81438,0.83307
7446.88563,0.83060
7444.95689,0.82871
7443.02814,0.82682
7441.09940,0.82892
7439.17065,0.83356
7437.24190,0.83435
7435.31316,0.83013
7433.38441,0.82573
7431.45567,0.82354
7429.52692,0.82397
7427.59818,0.82767
7425.66943,0.83164
7423.74069,0.83264
7421.81194,0.83252
7419.88320,0.83256
7417.95445,0.82930
7416.02571,0.82406
7414.09696,0.82309
7412.16822,0.82437
7410.23947,0.82352
7408.31073,0.82185
7406.38198,0.81977
7404.45323,0.81896
7402.52449,0.82040
7400.59574,0.82049
7398.66700,0.81940
7396.73825,0.81855
7394.80951,0.81699
7392.88076,0.81579
7390.95202,0.81510
7389.02327,0.81506
7387.09453,0.81638
7385.16578,0.81627
7383.23704,0.81510
7381.30829,0.81794
7379.37955,0.82184
7377.45080,0.81818
7375.52205,0.80865
7373.59331,0.80176
7371.66456,0.79976
7369.73582,0.80089
7367.80707,0.80279
7365.87833,0.80283
7363.94958,0.80247
7362.02084,0.80352
7360.09209,0.80422
7358.16335,0.80428
7356.23460,0.80602
7354.30586,0.80845
7352.37711,0.80632
7350.44837,0.79975
7348.51962,0.79522
7346.59088,0.79513
7344.66213,0.79660
7342.73338,0.79812
7340.80464,0.80054
7338.87589,0.80301
7336.94715,0.80178
7335.01840,0.79604
7333.08966,0.79236
7331.16091,0.79506
7329.23217,0.79713
7327.30342,0.79267
7325.37468,0.78531
7323.44593,0.77970
7321.51719,0.78043
7319.58844,0.78805
7317.65970,0.79567
7315.73095,0.79844
7313.80221,0.79821
7311.87346,0.79831
7309.94471,0.79827
7308.01597,0.79583
7306.08722,0.79225
7304.15848,0.78928
7302.22973,0.78645
7300.30099,0.78592
7298.37224,0.79195
7296.44350,0.79937
7294.51475,0.79878
7292.58601,0.79501
7290.65726,0.79686
7288.72852,0.80020
7286.79977,0.79763
7284.87103,0.79163
7282.94228,0.78918
7281.01353,0.79073
7279.08479,0.79399
7277.15604,0.79792
7275.22730,0.79872
7273.29855,0.79484
7271.36981,0.79075
7269.44106,0.79139
7267.51232,0.79745
7265.58357,0.80232
7263.65483,0.79986
7261.72608,0.79344
7259.79734,0.78896
7257.86859,0.78803
7255.93985,0.78830
7254.01110,0.78591
7252.08236,0.78189
7250.15361,0.78292
7248.22486,0.79002
7246.29612,0.79481
7244.36737,0.79288
7242.43863,0.78842
7240.50988,0.78491
7238.58114,0.78300
7236.65239,0.78187
7234.72365,0.77928
7232.79490,0.77649
7230.86616,0.77739
7228.93741,0.78005
7227.00867,0.78128
7225.07992,0.78228
7223.15118,0.78206
7221.22243,0.77888
7219.29369,0.77449
7217.36494,0.77137
7215.43619,0.77029
7213.50745,0.77021
7211.57870,0.77149
7209.64996,0.77518
7207.72121,0.77829
7205.79247,0.77808
7203.86372,0.77871
7201.93498,0.78272
7200.00623,0.78630
7198.07749,0.78834
7196.14874,0.78839
7194.22000,0.78302
7192.29125,0.77485
7190.36251,0.77094
7188.43376,0.77149
7186.50501,0.77397
7184.57627,0.77895
7182.64752,0.78353
7180.71878,0.78261
7178.79003,0.77731
7176.86129,0.77420
7174.93254,0.77676
7173.00380,0.78165
7171.07505,0.78475
7169.14631,0.78579
7167.21756,0.78642
7165.28882,0.78645
7163.36007,0.78436
7161.43133,0.78143
7159.50258,0.77985
7157.57384,0.77877
7155.64509,0.77869
7153.71634,0.78254
7151.78760,0.78732
7149.85885,0.78823
7147.93011,0.78721
7146.00136,0.78730
7144.07262,0.78915
7142.14387,0.79062
7140.21513,0.78857
7138.28638,0.78608
7136.35764,0.78768
7134.42889,0.78977
7132.50015,0.78935
7130.57140,0.78968
7128.64266,0.79035
7126.71391,0.78939
7124.78516,0.78925
7122.85642,0.79141
7120.92767,0.79361
7118.99893,0.79388
7117.07018,0.79250
7115.14144,0.78896
7113.21269,0.78427
7111.28395,0.78191
7109.35520,0.78245
7107.42646,0.78333
7105.49771,0.78246
7103.56897,0.78034
7101.64022,0.77906
7099.71148,0.78028
7097.78273,0.78321
7095.85399,0.78506
7093.92524,0.78497
7091.99649,0.78404
7090.06775,0.78348
7088.13900,0.78454
7086.21026,0.78702
7084.28151,0.78678
7082.35277,0.78233
7080.42402,0.77966
7078.49528,0.78135
7076.56653,0.78407
7074.63779,0.78641
7072.70904,0.78772
7070.78030,0.78766
7068.85155,0.78752
7066.92281,0.78715
7064.99406,0.78661
7063.06532,0.78652
7061.13657,0.78426
7059.20782,0.77871
7057.27908,0.77408
7055.35033,0.77403
7053.42159,0.77771
7051.49284,0.78144
7049.56410,0.78243
7047.63535,0.78050
7045.70661,0.77753
7043.77786,0.77577
7041.84912,0.77541
7039.92037,0.77507
7037.99163,0.77474
7036.06288,0.77559
7034.13414,0.77651
7032.20539,0.77618
7030.27664,0.77560
7028.34790,0.77505
7026.41915,0.77520
7024.49041,0.77689
7022.56166,0.77809
7020.63292,0.77837
7018.70417,0.77862
7016.77543,0.77720
7014.84668,0.77488
7012.91794,0.77412
7010.98919,0.77423
7009.06045,0.77443
7007.13170,0.77575
7005.20296,0.77745
7003.27421,0.77752
7001.34547,0.77717
6999.41672,0.77934
6997.48797,0.78371
6995.55923,0.78627
6993.63048,0.78513
6991.70174,0.78319
6989.77299,0.78250
6987.84425,0.78395
6985.91550,0.78902
6983.98676,0.79536
6982.05801,0.79826
6980.12927,0.79848
6978.20052,0.79960
6976.27178,0.79918
6974.34303,0.79462
6972.41429,0.79101
6970.48554,0.79380
6968.55680,0.79983
6966.62805,0.80131
6964.69930,0.79834
6962.77056,0.79577
6960.84181,0.79446
6958.91307,0.79484
6956.98432,0.79665
6955.05558,0.79859
6953.12683,0.80174
6951.19809,0.80651
6949.26934,0.81070
6947.34060,0.81162
6945.41185,0.80875
6943.48311,0.80483
6941.55436,0.80253
6939.62562,0.80152
6937.69687,0.79902
6935.76812,0.79463
6933.83938,0.79343
6931.91063,0.79653
6929.98189,0.79958
6928.05314,0.80191
6926.12440,0.80341
6924.19565,0.80342
6922.26691,0.80218
6920.33816,0.79856
6918.40942,0.79596
6916.48067,0.79844
6914.55193,0.80233
6912.62318,0.80329
6910.69444,0.80128
6908.76569,0.79843
6906.83695,0.79856
6904.90820,0.80175
6902.97945,0.80324
6901.05071,0.80247
6899.12196,0.80214
6897.19322,0.80198
6895.26447,0.80103
6893.33573,0.80036
6891.40698,0.80185
6889.47824,0.80465
6887.54949,0.80539
6885.62075,0.80455
6883.69200,0.80578
6881.76326,0.80811
6879.83451,0.80828
6877.90577,0.80582
6875.97702,0.80186
6874.04828,0.80039
6872.11953,0.80298
6870.19078,0.80569
6868.26204,0.80784
6866.33329,0.80967
6864.40455,0.80951
6862.47580,0.80917
6860.54706,0.80870
6858.61831,0.80688
6856.68957,0.80774
6854.76082,0.81067
6852.83208,0.80997
6850.90333,0.80808
6848.97459,0.80916
6847.04584,0.81011
6845.11710,0.80923
6843.18835,0.80955
6841.25960,0.81226
6839.33086,0.81524
6837.40211,0.81528
6835.47337,0.81269
6833.54462,0.81230
6831.61588,0.81452
6829.68713,0.81566
6827.75839,0.81564
6825.82964,0.81602
6823.90090,0.81625
6821.97215,0.81574
6820.04341,0.81700
6818.11466,0.82093
6816.18592,0.82463
6814.25717,0.82567
6812.32843,0.82351
6810.39968,0.82104
6808.47093,0.82115
6806.54219,0.82431
6804.61344,0.82888
6802.68470,0.83002
6800.75595,0.82787
6798.82721,0.82786
6796.89846,0.82949
6794.96972,0.82810
6793.04097,0.82391
6791.11223,0.82074
6789.18348,0.81967
6787.25474,0.81983
6785.32599,0.82152
6783.39725,0.82484
6781.46850,0.82701
6779.53975,0.82567
6777.61101,0.82406
6775.68226,0.82478
6773.75352,0.82569
6771.82477,0.82594
6769.89603,0.82557
6767.96728,0.82322
6766.03854,0.82022
6764.10979,0.81991
6762.18105,0.82178
6760.25230,0.82296
6758.32356,0.82387
6756.39481,0.82607
6754.46607,0.82732
6752.53732,0.82500
6750.60858,0.82115
6748.67983,0.81965
6746.75108,0.82092
6744.82234,0.82277
6742.89359,0.82552
6740.96485,0.82895
6739.03610,0.82932
6737.10736,0.82739
6735.17861,0.82713
6733.24987,0.82773
6731.32112,0.82720
6729.39238,0.82613
6727.46363,0.82531
6725.53489,0.82563
6723.60614,0.82789
6721.67740,0.83031
6719.74865,0.83075
6717.81991,0.83041
6715.89116,0.83114
6713.96241,0.83250
6712.03367,0.83392
6710.10492,0.83573
6708.17618,0.83632
6706.24743,0.83398
6704.31869,0.83161
6702.38994,0.83175
6700.46120,0.83225
6698.53245,0.83219
6696.60371,0.83244
6694.67496,0.83151
6692.74622,0.83000
6690.81747,0.83009
6688.88873,0.83034
6686.95998,0.83077
6685.03123,0.83395
6683.10249,0.83839
6681.17374,0.84059
6679.24500,0.84034
6677.31625,0.83935
6675.38751,0.83799
6673.45876,0.83482
6671.53002,0.83090
6669.60127,0.82987
6667.67253,0.83205
6665.74378,0.83534
6663.81504,0.83800
6661.88629,0.83893
6659.95755,0.83890
6658.02880,0.83823
6656.10006,0.83635
6654.17131,0.83456
6652.24256,0.83499
6650.31382,0.83713
6648.38507,0.83812
6646.45633,0.83701
6644.52758,0.83548
6642.59884,0.83499
6640.67009,0.83578
6638.74135,0.83657
6636.81260,0.83671
6634.88386,0.83742
6632.95511,0.83806
6631.02637,0.83764
6629.09762,0.83851
6627.16888,0.84077
6625.24013,0.84110
6623.31139,0.84015
6621.38264,0.84005
6619.45389,0.84006
6617.52515,0.84111
6615.59640,0.84445
6613.66766,0.84712
6611.73891,0.84650
6609.81017,0.84398
6607.88142,0.84134
6605.95268,0.83899
6604.02393,0.83684
6602.09519,0.83568
6600.16644,0.83753
6598.23770,0.84194
6596.30895,0.84420
6594.38021,0.84288
6592.45146,0.84162
6590.52271,0.84073
6588.59397,0.83960
6586.66522,0.84118
6584.73648,0.84368
6582.80773,0.84242
6580.87899,0.84050
6578.95024,0.84136
6577.02150,0.84183
6575.09275,0.84095
6573.16401,0.84029
6571.23526,0.83964
6569.30652,0.83983
6567.37777,0.84192
6565.44903,0.84512
6563.52028,0.84737
6561.59154,0.84791
6559.66279,0.84788
6557.73404,0.84732
6555.80530,0.84713
6553.87655,0.84817
6551.94781,0.84780
6550.01906,0.84535
6548.09032,0.84350
6546.16157,0.84249
6544.23283,0.84126
6542.30408,0.83953
6540.37534,0.83762
6538.44659,0.83855
6536.51785,0.84273
6534.58910,0.84507
6532.66036,0.84389
6530.73161,0.84165
6528.80287,0.84021
6526.87412,0.84065
6524.94537,0.84213
6523.01663,0.84252
6521.08788,0.84103
6519.15914,0.83916
6517.23039,0.83915
6515.30165,0.84053
6513.37290,0.84134
6511.44416,0.84291
6509.51541,0.84643
6507.58667,0.84832
6505.65792,0.84629
6503.72918,0.84403
6501.80043,0.84452
6499.87169,0.84531
6497.94294,0.84422
6496.01419,0.84309
6494.08545,0.84336
6492.15670,0.84397
6490.22796,0.84429
6488.29921,0.84482
6486.37047,0.84387
6484.44172,0.84019
6482.51298,0.83749
6480.58423,0.83864
6478.65549,0.84115
6476.72674,0.84190
6474.79800,0.84094
6472.86925,0.84037
6470.94051,0.84201
6469.01176,0.84483
6467.08302,0.84520
6465.15427,0.84360
6463.22552,0.84362
6461.29678,0.84427
6459.36803,0.84397
6457.43929,0.84429
6455.51054,0.84559
6453.58180,0.84618
6451.65305,0.84513
6449.72431,0.84391
6447.79556,0.84378
6445.86682,0.84308
6443.93807,0.84106
6442.00933,0.83976
6440.08058,0.83936
6438.15184,0.83867
6436.22309,0.83844
6434.29434,0.83841
6432.36560,0.83769
6430.43685,0.83871
6428.50811,0.84219
6426.57936,0.84438
6424.65062,0.84491
6422.72187,0.84564
6420.79313,0.84504
6418.86438,0.84286
6416.93564,0.84162
6415.00689,0.84254
6413.07815,0.84450
6411.14940,0.84509
6409.22066,0.84385
6407.29191,0.84218
6405.36317,0.84006
6403.43442,0.83752
6401.50567,0.83651
6399.57693,0.83794
6397.64818,0.83986
6395.71944,0.84091
6393.79069,0.84243
6391.86195,0.84436
6389.93320,0.84426
6388.00446,0.84180
6386.07571,0.83936
6384.14697,0.83813
6382.21822,0.83794
6380.28948,0.83925
6378.36073,0.84124
6376.43199,0.84202
6374.50324,0.84174
6372.57450,0.84147
6370.64575,0.84085
6368.71700,0.83920
6366.78826,0.83816
6364.85951,0.83948
6362.93077,0.84088
6361.00202,0.84090
6359.07328,0.84211
6357.14453,0.84437
6355.21579,0.84481
6353.28704,0.84339
6351.35830,0.84082
6349.42955,0.83823
6347.50081,0.83825
6345.57206,0.84055
6343.64332,0.84193
6341.71457,0.84072
6339.78582,0.83834
6337.85708,0.83765
6335.92833,0.83832
6333.99959,0.83759
6332.07084,0.83542
6330.14210,0.83297
6328.21335,0.83083
6326.28461,0.83038
6324.35586,0.83178
6322.42712,0.83406
6320.49837,0.83634
6318.56963,0.83706
6316.64088,0.83669
6314.71214,0.83670
6312.78339,0.83729
6310.85465,0.83923
6308.92590,0.84149
6306.99715,0.84126
6305.06841,0.83877
6303.13966,0.83681
6301.21092,0.83666
6299.28217,0.83667
6297.35343,0.83492
6295.42468,0.83324
6293.49594,0.83400
6291.56719,0.83471
6289.63845,0.83367
6287.70970,0.83364
6285.78096,0.83408
6283.85221,0.83258
6281.92347,0.83026
6279.99472,0.82908
6278.06598,0.82988
6276.13723,0.83140
6274.20848,0.83185
6272.27974,0.83120
6270.35099,0.82924
6268.42225,0.82651
6266.49350,0.82480
6264.56476,0.82433
6262.63601,0.82531
6260.70727,0.82738
6258.77852,0.82808
6256.84978,0.82754
6254.92103,0.82826
6252.99229,0.82908
6251.06354,0.82681
6249.13480,0.82334
6247.20605,0.82252
6245.27730,0.82265
6243.34856,0.82197
6241.41981,0.82221
6239.49107,0.82238
6237.56232,0.82112
6235.63358,0.82015
6233.70483,0.82112
6231.77609,0.82379
6229.84734,0.82562
6227.91860,0.82470
6225.98985,0.82215
6224.06111,0.81886
6222.13236,0.81564
6220.20362,0.81423
6218.27487,0.81408
6216.34613,0.81278
6214.41738,0.80928
6212.48863,0.80457
6210.55989,0.80083
6208.63114,0.79869
6206.70240,0.79640
6204.77365,0.79267
6202.84491,0.78785
6200.91616,0.78308
6198.98742,0.77940
6197.05867,0.77702
6195.12993,0.77554
6193.20118,0.77493
6191.27244,0.77578
6189.34369,0.77759
6187.41495,0.77813
6185.48620,0.77763
6183.55746,0.77908
6181.62871,0.78219
6179.69996,0.78372
6177.77122,0.78336
6175.84247,0.78297
6173.91373,0.78280
6171.98498,0.78187
6170.05624,0.78109
6168.12749,0.78197
6166.19875,0.78242
6164.27000,0.78037
6162.34126,0.77699
6160.41251,0.77331
6158.48377,0.77014
6156.55502,0.76880
6154.62628,0.76891
6152.69753,0.76823
6150.76878,0.76603
6148.84004,0.76423
6146.91129,0.76400
6144.98255,0.76428
6143.05380,0.76341
6141.12506,0.76069
6139.19631,0.75722
6137.26757,0.75508
6135.33882,0.75520
6133.41008,0.75571
6131.48133,0.75425
6129.55259,0.75181
6127.62384,0.75066
6125.69510,0.75031
6123.76635,0.74820
6121.83761,0.74419
6119.90886,0.74050
6117.98011,0.73652
6116.05137,0.73084
6114.12262,0.72519
6112.19388,0.71949
6110.26513,0.71236
6108.33639,0.70529
6106.40764,0.69874
6104.47890,0.69133
6102.55015,0.68275
6100.62141,0.67389
6098.69266,0.66615
6096.76392,0.65946
6094.83517,0.65242
6092.90643,0.64493
6090.97768,0.63776
6089.04893,0.63062
6087.12019,0.62371
6085.19144,0.61840
6083.26270,0.61429
6081.33395,0.60942
6079.40521,0.60381
6077.47646,0.59960
6075.54772,0.59603
6073.61897,0.58932
6071.69023,0.57905
6069.76148,0.56889
6067.83274,0.56041
6065.90399,0.55109
6063.97525,0.54041
6062.04650,0.53141
6060.11776,0.52502
6058.18901,0.52006
6056.26026,0.51553
6054.33152,0.51070
6052.40277,0.50653
6050.47403,0.50371
6048.54528,0.50088
6046.61654,0.49679
6044.68779,0.49153
6042.75905,0.48667
6040.83030,0.48368
6038.90156,0.48195
6036.97281,0.48093
6035.04407,0.48058
6033.11532,0.47914
6031.18658,0.47523
6029.25783,0.47101
6027.32909,0.46899
6025.40034,0.46857
6023.47159,0.46814
6021.54285,0.46745
6019.61410,0.46780
6017.68536,0.47040
6015.75661,0.47403
6013.82787,0.47690
6011.89912,0.48020
6009.97038,0.48537
6008.04163,0.49131
6006.11289,0.49726
6004.18414,0.50315
6002.25540,0.50881
6000.32665,0.51484
5998.39791,0.52150
5996.46916,0.52861
5994.54041,0.53621
5992.61167,0.54406
5990.68292,0.55098
5988.75418,0.55522
5986.82543,0.55723
5984.89669,0.55941
5982.96794,0.56234
5981.03920,0.56525
5979.11045,0.56795
5977.18171,0.57000
5975.25296,0.57196
5973.32422,0.57510
5971.39547,0.57783
5969.46673,0.57873
5967.53798,0.57953
5965.60924,0.58063
5963.68049,0.58049
5961.75174,0.57954
5959.82300,0.57909
5957.89425,0.57824
5955.96551,0.57560
5954.03676,0.57174
5952.10802,0.56802
5950.17927,0.56460
5948.25053,0.56116
5946.32178,0.55875
5944.39304,0.55789
5942.46429,0.55732
5940.53555,0.55737
5938.60680,0.55973
5936.67806,0.56366
5934.74931,0.56681
5932.82057,0.56889
5930.89182,0.57173
5928.96307,0.57631
5927.03433,0.58157
5925.10558,0.58583
5923.17684,0.58947
5921.24809,0.59389
5919.31935,0.59815
5917.39060,0.60105
5915.46186,0.60319
5913.53311,0.60608
5911.60437,0.60992
5909.67562,0.61218
5907.74688,0.61244
5905.81813,0.61275
5903.88939,0.61350
5901.96064,0.61434
5900.03189,0.61494
5898.10315,0.61487
5896.17440,0.61383
5894.24566,0.61215
5892.31691,0.61130
5890.38817,0.61148
5888.45942,0.61154
5886.53068,0.61182
5884.60193,0.61346
5882.67319,0.61559
5880.74444,0.61677
5878.81570,0.61805
5876.88695,0.62077
5874.95821,0.62341
5873.02946,0.62408
5871.10072,0.62438
5869.17197,0.62581
5867.24322,0.62757
5865.31448,0.62962
5863.38573,0.63182
5861.45699,0.63352
5859.52824,0.63482
5857.59950,0.63588
5855.67075,0.63674
5853.74201,0.63720
5851.81326,0.63677
5849.88452,0.63595
5847.95577,0.63564
5846.02703,0.63481
5844.09828,0.63290
5842.16954,0.63082
5840.24079,0.62816
5838.31205,0.62542
5836.38330,0.62381
5834.45455,0.62171
5832.52581,0.61895
5830.59706,0.61746
5828.66832,0.61593
5826.73957,0.61205
5824.81083,0.60665
5822.88208,0.60193
5820.95334,0.59877
5819.02459,0.59532
5817.09585,0.59029
5815.16710,0.58579
5813.23836,0.58310
5811.30961,0.58104
5809.38087,0.57870
5807.45212,0.57696
5805.52337,0.57706
5803.59463,0.57761
5801.66588,0.57678
5799.73714,0.57518
5797.80839,0.57395
5795.87965,0.57354
5793.95090,0.57459
5792.02216,0.57735
5790.09341,0.58051
5788.16467,0.58308
5786.23592,0.58595
5784.30718,0.58972
5782.37843,0.59326
5780.44969,0.59590
5778.52094,0.59945
5776.59220,0.60483
5774.66345,0.60999
5772.73470,0.61300
5770.80596,0.61398
5768.87721,0.61450
5766.94847,0.61559
5765.01972,0.61682
5763.09098,0.61745
5761.16223,0.61800
5759.23349,0.61946
5757.30474,0.62123
5755.37600,0.62247
5753.44725,0.62344
5751.51851,0.62449
5749.58976,0.62562
5747.66102,0.62612
5745.73227,0.62537
5743.80352,0.62453
5741.87478,0.62562
5739.94603,0.62822
5738.01729,0.63063
5736.08854,0.63268
5734.15980,0.63425
5732.23105,0.63555
5730.30231,0.63755
5728.37356,0.64010
5726.44482,0.64188
5724.51607,0.64267
5722.58733,0.64386
5720.65858,0.64543
5718.72984,0.64624
5716.80109,0.64711
5714.87235,0.64895
5712.94360,0.65106
5711.01485,0.65323
5709.08611,0.65547
5707.15736,0.65680
5705.22862,0.65777
5703.29987,0.65927
5701.37113,0.66068
5699.44238,0.66220
5697.51364,0.66373
5695.58489,0.66422
5693.65615,0.66416
5691.72740,0.66498
5689.79866,0.66643
5687.86991,0.66679
5685.94117,0.66647
5684.01242,0.66763
5682.08368,0.67018
5680.15493,0.67200
5678.22618,0.67194
5676.29744,0.67143
5674.36869,0.67249
5672.43995,0.67465
5670.51120,0.67599
5668.58246,0.67636
5666.65371,0.67641
5664.72497,0.67575
5662.79622,0.67463
5660.86748,0.67417
5658.93873,0.67456
5657.00999,0.67493
5655.08124,0.67517
5653.15250,0.67588
5651.22375,0.67660
5649.29500,0.67652
5647.36626,0.67612
5645.43751,0.67643
5643.50877,0.67785
5641.58002,0.68005
5639.65128,0.68239
5637.72253,0.68470
5635.79379,0.68674
5633.86504,0.68856
5631.93630,0.69113
5630.00755,0.69408
5628.07881,0.69639
5626.15006,0.69862
5624.22132,0.70069
5622.29257,0.70190
5620.36383,0.70305
5618.43508,0.70446
5616.50633,0.70552
5614.57759,0.70610
5612.64884,0.70664
5610.72010,0.70774
5608.79135,0.70929
5606.86261,0.71023
5604.93386,0.71041
5603.00512,0.71070
5601.07637,0.71071
5599.14763,0.70943
5597.21888,0.70744
5595.29014,0.70615
5593.36139,0.70571
5591.43265,0.70534
5589.50390,0.70480
5587.57516,0.70428
5585.64641,0.70361
5583.71766,0.70266
5581.78892,0.70163
5579.86017,0.70057
5577.93143,0.69940
5576.00268,0.69862
5574.07394,0.69845
5572.14519,0.69805
5570.21645,0.69680
5568.28770,0.69553
5566.35896,0.69508
5564.43021,0.69452
5562.50147,0.69331
5560.57272,0.69239
5558.64398,0.69165
5556.71523,0.69056
5554.78648,0.69003
5552.85774,0.69067
5550.92899,0.69138
5549.00025,0.69127
5547.07150,0.69127
5545.14276,0.69204
5543.21401,0.69258
5541.28527,0.69253
5539.35652,0.69285
5537.42778,0.69327
5535.49903,0.69331
5533.57029,0.69366
5531.64154,0.69455
5529.71280,0.69561
5527.78405,0.69644
5525.85531,0.69696
5523.92656,0.69748
5521.99781,0.69799
5520.06907,0.69907
5518.14032,0.70128
5516.21158,0.70340
5514.28283,0.70441
5512.35409,0.70462
5510.42534,0.70427
5508.49660,0.70409
5506.56785,0.70499
5504.63911,0.70674
5502.71036,0.70856
5500.78162,0.70956
5498.85287,0.70998
5496.92413,0.71060
5494.99538,0.71078
5493.06664,0.70969
5491.13789,0.70744
5489.20914,0.70474
5487.28040,0.70261
5485.35165,0.70131
5483.42291,0.70036
5481.49416,0.69955
5479.56542,0.69887
5477.63667,0.69873
5475.70793,0.69942
5473.77918,0.70014
5471.85044,0.70046
5469.92169,0.70117
5467.99295,0.70211
5466.06420,0.70258
5464.13546,0.70300
5462.20671,0.70389
5460.27796,0.70553
5458.34922,0.70801
5456.42047,0.71024
5454.49173,0.71159
5452.56298,0.71317
5450.63424,0.71511
5448.70549,0.71637
5446.77675,0.71702
5444.84800,0.71740
5442.91926,0.71784
5440.99051,0.71955
5439.06177,0.72238
5437.13302,0.72454
5435.20428,0.72570
5433.27553,0.72619
5431.34679,0.72608
5429.41804,0.72619
5427.48929,0.72695
5425.56055,0.72784
5423.63180,0.72837
5421.70306,0.72847
5419.77431,0.72857
5417.84557,0.72869
5415.91682,0.72857
5413.98808,0.72881
5412.05933,0.72939
5410.13059,0.72920
5408.20184,0.72839
5406.27310,0.72793
5404.34435,0.72790
5402.41561,0.72801
5400.48686,0.72807
5398.55811,0.72796
5396.62937,0.72833
5394.70062,0.72976
5392.77188,0.73118
5390.84313,0.73135
5388.91439,0.73071
5386.98564,0.73033
5385.05690,0.73055
5383.12815,0.73089
5381.19941,0.73075
5379.27066,0.72988
5377.34192,0.72872
5375.41317,0.72818
5373.48443,0.72864
5371.55568,0.72938
5369.62694,0.72991
5367.69819,0.73065
5365.76944,0.73096
5363.84070,0.72991
5361.91195,0.72844
5359.98321,0.72771
5358.05446,0.72767
5356.12572,0.72797
5354.19697,0.72824
5352.26823,0.72837
5350.33948,0.72810
5348.41074,0.72699
5346.48199,0.72576
5344.55325,0.72557
5342.62450,0.72596
5340.69576,0.72610
5338.76701,0.72675
5336.83827,0.72876
5334.90952,0.73092
5332.98077,0.73171
5331.05203,0.73136
5329.12328,0.73095
5327.19454,0.73142
5325.26579,0.73306
5323.33705,0.73492
5321.40830,0.73559
5319.47956,0.73508
5317.55081,0.73498
5315.62207,0.73602
5313.69332,0.73714
5311.76458,0.73720
5309.83583,0.73633
5307.90709,0.73581
5305.97834,0.73592
5304.04959,0.73548
5302.12085,0.73449
5300.19210,0.73418
5298.26336,0.73475
5296.33461,0.73485
5294.40587,0.73359
5292.47712,0.73193
5290.54838,0.73072
5288.61963,0.72965
5286.69089,0.72900
5284.76214,0.72862
5282.83340,0.72756
5280.90465,0.72641
5278.97591,0.72591
5277.04716,0.72532
5275.11842,0.72424
5273.18967,0.72297
5271.26092,0.72146
5269.33218,0.71982
5267.40343,0.71862
5265.47469,0.71829
5263.54594,0.71848
5261.61720,0.71871
5259.68845,0.71887
5257.75971,0.71894
5255.83096,0.71915
5253.90222,0.71960
5251.97347,0.72018
5250.04473,0.72154
5248.11598,0.72359
5246.18724,0.72468
5244.25849,0.72438
5242.32975,0.72402
5240.40100,0.72401
5238.47225,0.72386
5236.54351,0.72404
5234.61476,0.72492
5232.68602,0.72562
5230.75727,0.72558
5228.82853,0.72519
5226.89978,0.72490
5224.97104,0.72524
5223.04229,0.72621
5221.11355,0.72664
5219.18480,0.72570
5217.25606,0.72412
5215.32731,0.72353
5213.39857,0.72404
5211.46982,0.72451
5209.54107,0.72470
5207.61233,0.72434
5205.68358,0.72337
5203.75484,0.72306
5201.82609,0.72372
5199.89735,0.72408
5197.96860,0.72366
5196.03986,0.72324
5194.11111,0.72318
5192.18237,0.72297
5190.25362,0.72225
5188.32488,0.72145
5186.39613,0.72146
5184.46739,0.72220
5182.53864,0.72271
5180.60990,0.72258
5178.68115,0.72180
5176.75240,0.72086
5174.82366,0.72030
5172.89491,0.71961
5170.96617,0.71868
5169.03742,0.71846
5167.10868,0.71899
5165.17993,0.71908
5163.25119,0.71819
5161.32244,0.71721
5159.39370,0.71702
5157.46495,0.71742
5155.53621,0.71751
5153.60746,0.71692
5151.67872,0.71576
5149.74997,0.71370
5147.82123,0.71120
5145.89248,0.70943
5143.96373,0.70827
5142.03499,0.70680
5140.10624,0.70487
5138.17750,0.70308
5136.24875,0.70186
5134.32001,0.70088
5132.39126,0.69943
5130.46252,0.69724
5128.53377,0.69433
5126.60503,0.69117
5124.67628,0.68882
5122.74754,0.68703
5120.81879,0.68468
5118.89005,0.68250
5116.96130,0.68156
5115.03255,0.68113
5113.10381,0.68037
5111.17506,0.67970
5109.24632,0.67945
5107.31757,0.67919
5105.38883,0.67877
5103.46008,0.67872
5101.53134,0.67883
5099.60259,0.67836
5097.67385,0.67760
5095.74510,0.67757
5093.81636,0.67837
5091.88761,0.67902
5089.95887,0.67929
5088.03012,0.68005
5086.10138,0.68223
5084.17263,0.68624
5082.24388,0.69105
5080.31514,0.69537
5078.38639,0.69919
5076.45765,0.70234
5074.52890,0.70501
5072.60016,0.70828
5070.67141,0.71225
5068.74267,0.71591
5066.81392,0.71849
5064.88518,0.72039
5062.95643,0.72228
5061.02769,0.72397
5059.09894,0.72495
5057.17020,0.72532
5055.24145,0.72602
5053.31270,0.72760
5051.38396,0.72867
5049.45521,0.72871
5047.52647,0.72892
5045.59772,0.72931
5043.66898,0.72938
5041.74023,0.72937
5039.81149,0.72920
5037.88274,0.72862
5035.95400,0.72805
5034.02525,0.72789
5032.09651,0.72786
5030.16776,0.72770
5028.23902,0.72738
5026.31027,0.72694
5024.38153,0.72656
5022.45278,0.72633
5020.52403,0.72609
5018.59529,0.72558
5016.66654,0.72518
5014.73780,0.72516
5012.80905,0.72535
5010.88031,0.72586
5008.95156,0.72641
5007.02282,0.72644
5005.09407,0.72609
5003.16533,0.72591
5001.23658,0.72611
4999.30784,0.72624
4997.37909,0.72592
4995.45035,0.72551
4993.52160,0.72539
4991.59286,0.72563
4989.66411,0.72620
4987.73536,0.72695
4985.80662,0.72784
4983.87787,0.72878
4981.94913,0.72931
4980.02038,0.72933
4978.09164,0.72917
4976.16289,0.72925
4974.23415,0.73013
4972.30540,0.73154
4970.37666,0.73212
4968.44791,0.73155
4966.51917,0.73107
4964.59042,0.73113
4962.66168,0.73099
4960.73293,0.73020
4958.80418,0.72928
4956.87544,0.72874
4954.94669,0.72795
4953.01795,0.72668
4951.08920,0.72561
4949.16046,0.72457
4947.23171,0.72325
4945.30297,0.72187
4943.37422,0.72052
4941.44548,0.71973
4939.51673,0.71972
4937.58799,0.71964
4935.65924,0.71917
4933.73050,0.71871
4931.80175,0.71859
4929.87301,0.71880
4927.94426,0.71884
4926.01551,0.71862
4924.08677,0.71842
4922.15802,0.71813
4920.22928,0.71785
4918.30053,0.71767
4916.37179,0.71726
4914.44304,0.71657
4912.51430,0.71611
4910.58555,0.71621
4908.65681,0.71652
4906.72806,0.71652
4904.79932,0.71608
4902.87057,0.71545
4900.94183,0.71452
4899.01308,0.71323
4897.08434,0.71265
4895.15559,0.71322
4893.22684,0.71368
4891.29810,0.71342
4889.36935,0.71319
4887.44061,0.71333
4885.51186,0.71320
4883.58312,0.71214
4881.65437,0.71073
4879.72563,0.70989
4877.79688,0.70940
4875.86814,0.70853
4873.93939,0.70742
4872.01065,0.70673
4870.08190,0.70636
4868.15316,0.70566
4866.22441,0.70467
4864.29566,0.70393
4862.36692,0.70345
4860.43817,0.70319
4858.50943,0.70300
4856.58068,0.70242
4854.65194,0.70154
4852.72319,0.70076
4850.79445,0.69989
4848.86570,0.69873
4846.93696,0.69768
4845.00821,0.69697
4843.07947,0.69590
4841.15072,0.69358
4839.22198,0.69010
4837.29323,0.68645
4835.36449,0.68323
4833.43574,0.67980
4831.50699,0.67572
4829.57825,0.67159
4827.64950,0.66770
4825.72076,0.66363
4823.79201,0.65958
4821.86327,0.65575
4819.93452,0.65184
4818.00578,0.64806
4816.07703,0.64489
4814.14829,0.64230
4812.21954,0.64004
4810.29080,0.63792
4808.36205,0.63621
4806.43331,0.63492
4804.50456,0.63320
4802.57582,0.63122
4800.64707,0.62953
4798.71832,0.62791
4796.78958,0.62648
4794.86083,0.62568
4792.93209,0.62572
4791.00334,0.62647
4789.07460,0.62746
4787.14585,0.62860
4785.21711,0.63031
4783.28836,0.63250
4781.35962,0.63473
4779.43087,0.63711
4777.50213,0.63945
4775.57338,0.64105
4773.64464,0.64203
4771.71589,0.64349
4769.78714,0.64624
4767.85840,0.64932
4765.92965,0.65106
4764.00091,0.65144
4762.07216,0.65135
4760.14342,0.65090
4758.21467,0.64985
4756.28593,0.64806
4754.35718,0.64543
4752.42844,0.64192
4750.49969,0.63764
4748.57095,0.63310
4746.64220,0.62863
4744.71346,0.62376
4742.78471,0.61831
4740.85597,0.61280
4738.92722,0.60709
4736.99847,0.60047
4735.06973,0.59310
4733.14098,0.58501
4731.21224,0.57546
4729.28349,0.56429
4727.35475,0.55211
4725.42600,0.53972
4723.49726,0.52801
4721.56851,0.51802
4719.63977,0.51088
4717.71102,0.50688
4715.78228,0.50485
4713.85353,0.50357
4711.92479,0.50250
4709.99604,0.50104
4708.06729,0.49857
4706.13855,0.49458
4704.20980,0.48840
4702.28106,0.47978
4700.35231,0.46939
4698.42357,0.45840
4696.49482,0.44780
4694.56608,0.43811
4692.63733,0.42984
4690.70859,0.42403
4688.77984,0.42177
4686.85110,0.42285
4684.92235,0.42590
4682.99361,0.43057
4681.06486,0.43740
4679.13612,0.44623
4677.20737,0.45638
4675.27862,0.46717
4673.34988,0.47788
4671.42113,0.48771
4669.49239,0.49608
4667.56364,0.50273
4665.63490,0.50761
4663.70615,0.51107
4661.77741,0.51365
4659.84866,0.51551
4657.91992,0.51628
4655.99117,0.51611
4654.06243,0.51578
4652.13368,0.51493
4650.20494,0.51232
4648.27619,0.50742
4646.34745,0.50038
4644.41870,0.49197
4642.48995,0.48330
4640.56121,0.47506
4638.63246,0.46787
4636.70372,0.46305
4634.77497,0.46179
4632.84623,0.46391
4630.91748,0.46865
4628.98874,0.47569
4627.05999,0.48455
4625.13125,0.49449
4623.20250,0.50531
4621.27376,0.51685
4619.34501,0.52822
4617.41627,0.53851
4615.48752,0.54722
4613.55877,0.55447
4611.63003,0.56089
4609.70128,0.56630
4607.77254,0.57015
4605.84379,0.57246
4603.91505,0.57323
4601.98630,0.57248
4600.05756,0.57014
4598.12881,0.56567
4596.20007,0.55877
4594.27132,0.55047
4592.34258,0.54286
4590.41383,0.53745
4588.48509,0.53372
4586.55634,0.53008
4584.62760,0.52548
4582.69885,0.51970
4580.77010,0.51365
4578.84136,0.50979
4576.91261,0.51057
4574.98387,0.51663
4573.05512,0.52676
4571.12638,0.53920
4569.19763,0.55250
4567.26889,0.56540
4565.34014,0.57693
4563.41140,0.58675
4561.48265,0.59454
4559.55391,0.59986
4557.62516,0.60310
4555.69642,0.60520
4553.76767,0.60646
4551.83893,0.60675
4549.91018,0.60652
4547.98143,0.60637
4546.05269,0.60617
4544.12394,0.60561
4542.19520,0.60486
4540.26645,0.60409
4538.33771,0.60326
4536.40896,0.60238
4534.48022,0.60142
4532.55147,0.60043
4530.62273,0.59922
4528.69398,0.59733
4526.76524,0.59496
4524.83649,0.59283
4522.90775,0.59081
4520.97900,0.58833
4519.05025,0.58519
4517.12151,0.58150
4515.19276,0.57755
4513.26402,0.57339
4511.33527,0.56869
4509.40653,0.56334
4507.47778,0.55711
4505.54904,0.54958
4503.62029,0.54098
4501.69155,0.53162
4499.76280,0.52099
4497.83406,0.50894
4495.90531,0.49646
4493.97657,0.48490
4492.04782,0.47550
4490.11908,0.46910
4488.19033,0.46545
4486.26158,0.46340
4484.33284,0.46205
4482.40409,0.46119
4480.47535,0.46048
4478.54660,0.45910
4476.61786,0.45674
4474.68911,0.45387
4472.76037,0.45062
4470.83162,0.44635
4468.90288,0.44070
4466.97413,0.43408
4465.04539,0.42664
4463.11664,0.41837
4461.18790,0.41012
4459.25915,0.40282
4457.33041,0.39638
4455.40166,0.39022
4453.47291,0.38426
4451.54417,0.37860
4449.61542,0.37274
4447.68668,0.36618
4445.75793,0.35911
4443.82919,0.35195
4441.90044,0.34493
4439.97170,0.33822
4438.04295,0.33221
4436.11421,0.32733
4434.18546,0.32330
4432.25672,0.31951
4430.32797,0.31581
4428.39923,0.31242
4426.47048,0.31004
4424.54173,0.30950
4422.61299,0.31096
4420.68424,0.31434
4418.75550,0.31952
4416.82675,0.32558
4414.89801,0.33133
4412.96926,0.33602
4411.04052,0.33926
4409.11177,0.34097
4407.18303,0.34160
4405.25428,0.34205
4403.32554,0.34313
4401.39679,0.34512
4399.46805,0.34826
4397.53930,0.35238
4395.61056,0.35660
4393.68181,0.36026
4391.75306,0.36334
4389.82432,0.36603
4387.89557,0.36800
4385.96683,0.36891
4384.03808,0.36898
4382.10934,0.36787
4380.18059,0.36500
4378.25185,0.36112
4376.32310,0.35699
4374.39436,0.35252
4372.46561,0.34805
4370.53687,0.34419
4368.60812,0.34108
4366.67938,0.33880
4364.75063,0.33752
4362.82189,0.33728
4360.89314,0.33775
4358.96439,0.33831
4357.03565,0.33860
4355.10690,0.33899
4353.17816,0.34008
4351.24941,0.34169
4349.32067,0.34345
4347.39192,0.34540
4345.46318,0.34764
4343.53443,0.34991
4341.60569,0.35184
4339.67694,0.35336
4337.74820,0.35465
4335.81945,0.35580
4333.89071,0.35698
4331.96196,0.35853
4330.03321,0.36071
4328.10447,0.36306
4326.17572,0.36485
4324.24698,0.36617
4322.31823,0.36793
4320.38949,0.37052
4318.46074,0.37309
4316.53200,0.37496
4314.60325,0.37633
4312.67451,0.37734
4310.74576,0.37775
4308.81702,0.37741
4306.88827,0.37602
4304.95953,0.37349
4303.03078,0.37040
4301.10204,0.36725
4299.17329,0.36426
4297.24454,0.36161
4295.31580,0.35898
4293.38705,0.35634
4291.45831,0.35451
4289.52956,0.35377
4287.60082,0.35332
4285.67207,0.35258
4283.74333,0.35160
4281.81458,0.35043
4279.88584,0.34894
4277.95709,0.34691
4276.02835,0.34446
4274.09960,0.34211
4272.17086,0.34003
4270.24211,0.33828
4268.31336,0.33736
4266.38462,0.33768
4264.45587,0.33887
4262.52713,0.34042
4260.59838,0.34229
4258.66964,0.34443
4256.74089,0.34661
4254.81215,0.34867
4252.88340,0.35032
4250.95466,0.35150
4249.02591,0.35264
4247.09717,0.35378
4245.16842,0.35456
4243.23968,0.35502
4241.31093,0.35520
4239.38219,0.35506
4237.45344,0.35461
4235.52469,0.35374
4233.59595,0.35261
4231.66720,0.35141
4229.73846,0.35007
4227.80971,0.34875
4225.88097,0.34779
4223.95222,0.34711
4222.02348,0.34658
4220.09473,0.34642
4218.16599,0.34675
4216.23724,0.34710
4214.30850,0.34709
4212.37975,0.34691
4210.45101,0.34678
4208.52226,0.34675
4206.59352,0.34699
4204.66477,0.34772
4202.73602,0.34909
4200.80728,0.35111
4198.87853,0.35344
4196.94979,0.35573
4195.02104,0.35780
4193.09230,0.35944
4191.16355,0.36035
4189.23481,0.36022
4187.30606,0.35913
4185.37732,0.35707
4183.44857,0.35348
4181.51983,0.34884
4179.59108,0.34510
4177.66234,0.34368
4175.73359,0.34461
4173.80484,0.34765
4171.87610,0.35251
4169.94735,0.35850
4168.01861,0.36520
4166.08986,0.37223
4164.16112,0.37887
4162.23237,0.38490
4160.30363,0.39034
4158.37488,0.39485
4156.44614,0.39843
4154.51739,0.40157
4152.58865,0.40466
4150.65990,0.40777
4148.73116,0.41047
4146.80241,0.41252
4144.87367,0.41408
4142.94492,0.41501
4141.01617,0.41512
4139.08743,0.41426
4137.15868,0.41227
4135.22994,0.40954
4133.30119,0.40668
4131.37245,0.40381
4129.44370,0.40079
4127.51496,0.39760
4125.58621,0.39426
4123.65747,0.39061
4121.72872,0.38636
4119.79998,0.38171
4117.87123,0.37697
4115.94249,0.37193
4114.01374,0.36605
4112.08500,0.35907
4110.15625,0.35142
4108.22750,0.34354
4106.29876,0.33526
4104.37001,0.32634
4102.44127,0.31648
4100.51252,0.30539
4098.58378,0.29306
4096.65503,0.27978
4094.72629,0.26643
4092.79754,0.25475
4090.86880,0.24691
4088.94005,0.24432
4087.01131,0.24659
4085.08256,0.25220
4083.15382,0.25995
4081.22507,0.26927
4079.29632,0.27951
4077.36758,0.28979
4075.43883,0.29963
4073.51009,0.30878
4071.58134,0.31707
4069.65260,0.32464
4067.72385,0.33141
4065.79511,0.33716
4063.86636,0.34220
4061.93762,0.34673
4060.00887,0.35052
4058.08013,0.35374
4056.15138,0.35666
4054.22264,0.35908
4052.29389,0.36111
4050.36515,0.36345
4048.43640,0.36637
4046.50765,0.36946
4044.57891,0.37262
4042.65016,0.37603
4040.72142,0.37931
4038.79267,0.38204
4036.86393,0.38414
4034.93518,0.38539
4033.00644,0.38595
4031.07769,0.38648
4029.14895,0.38714
4027.22020,0.38769
4025.29146,0.38849
4023.36271,0.39010
4021.43397,0.39247
4019.50522,0.39486
4017.57648,0.39655
4015.64773,0.39749
4013.71898,0.39827
4011.79024,0.39954
4009.86149,0.40126
4007.93275,0.40319
4006.00400,0.40581
4004.07526,0.40947
4002.14651,0.41349
4000.21777,0.41727
3998.28902,0.42106
3996.36028,0.42485
3994.43153,0.42816
3992.50279,0.43107
3990.57404,0.43384
3988.64530,0.43642
3986.71655,0.43866
3984.78780,0.44038
3982.85906,0.44161
3980.93031,0.44283
3979.00157,0.44426
3977.07282,0.44547
3975.14408,0.44615
3973.21533,0.44658
3971.28659,0.44701
3969.35784,0.44737
3967.42910,0.44747
3965.50035,0.44693
3963.57161,0.44559
3961.64286,0.44380
3959.71412,0.44197
3957.78537,0.44032
3955.85663,0.43877
3953.92788,0.43682
3951.99913,0.43425
3950.07039,0.43148
3948.14164,0.42864
3946.21290,0.42564
3944.28415,0.42293
3942.35541,0.42111
3940.42666,0.42000
3938.49792,0.41901
3936.56917,0.41817
3934.64043,0.41772
3932.71168,0.41727
3930.78294,0.41624
3928.85419,0.41498
3926.92545,0.41408
3924.99670,0.41347
3923.06795,0.41296
3921.13921,0.41276
3919.21046,0.41302
3917.28172,0.41380
3915.35297,0.41514
3913.42423,0.41702
3911.49548,0.41948
3909.56674,0.42229
3907.63799,0.42499
3905.70925,0.42778
3903.78050,0.43089
3901.85176,0.43386
3899.92301,0.43649
3897.99427,0.43894
3896.06552,0.44110
3894.13678,0.44299
3892.20803,0.44508
3890.27928,0.44778
3888.35054,0.45096
3886.42179,0.45460
3884.49305,0.45850
3882.56430,0.46197
3880.63556,0.46492
3878.70681,0.46743
3876.77807,0.46954
3874.84932,0.47165
3872.92058,0.47371
3870.99183,0.47547
3869.06309,0.47708
3867.13434,0.47861
3865.20560,0.48003
3863.27685,0.48131
3861.34811,0.48228
3859.41936,0.48287
3857.49061,0.48341
3855.56187,0.48451
3853.63312,0.48627
3851.70438,0.48807
3849.77563,0.48971
3847.84689,0.49150
3845.91814,0.49325
3843.98940,0.49443
3842.06065,0.49474
3840.13191,0.49431
3838.20316,0.49325
3836.27442,0.49164
3834.34567,0.48996
3832.41693,0.48871
3830.48818,0.48815
3828.55943,0.48855
3826.63069,0.48966
3824.70194,0.49064
3822.77320,0.49088
3820.84445,0.48990
3818.91571,0.48748
3816.98696,0.48407
3815.05822,0.48003
3813.12947,0.47572
3811.20073,0.47165
3809.27198,0.46847
3807.34324,0.46698
3805.41449,0.46762
3803.48575,0.47069
3801.55700,0.47648
3799.62826,0.48348
3797.69951,0.49030
3795.77076,0.49721
3793.84202,0.50361
3791.91327,0.50871
3789.98453,0.51254
3788.05578,0.51521
3786.12704,0.51669
3784.19829,0.51704
3782.26955,0.51643
3780.34080,0.51498
3778.41206,0.51255
3776.48331,0.50929
3774.55457,0.50560
3772.62582,0.50167
3770.69708,0.49769
3768.76833,0.49366
3766.83959,0.48934
3764.91084,0.48462
3762.98209,0.47960
3761.05335,0.47453
3759.12460,0.47044
3757.19586,0.46892
3755.26711,0.47066
3753.33837,0.47593
3751.40962,0.48452
3749.48088,0.49414
3747.55213,0.50215
3745.62339,0.50818
3743.69464,0.51140
3741.76590,0.51085
3739.83715,0.50765
3737.90841,0.50270
3735.97966,0.49684
3734.05091,0.49194
3732.12217,0.48987
3730.19342,0.49131
3728.26468,0.49566
3726.33593,0.50176
3724.40719,0.50799
3722.47844,0.51294
3720.54970,0.51610
3718.62095,0.51743
3716.69221,0.51727
3714.76346,0.51603
3712.83472,0.51378
3710.90597,0.51043
3708.97723,0.50623
3707.04848,0.50131
3705.11974,0.49554
3703.19099,0.48879
3701.26224,0.48111
3699.33350,0.47277
3697.40475,0.46333
3695.47601,0.45192
3693.54726,0.43859
3691.61852,0.42491
3689.68977,0.41374
3687.76103,0.40822
3685.83228,0.40963
3683.90354,0.41721
3681.97479,0.42958
3680.04605,0.44493
3678.11730,0.46154
3676.18856,0.47851
3674.25981,0.49318
3672.33107,0.50362
3670.40232,0.51187
3668.47357,0.51838
3666.54483,0.52230
3664.61608,0.52455
3662.68734,0.52590
3660.75859,0.52633
3658.82985,0.52583
3656.90110,0.52455
3654.97236,0.52248
3653.04361,0.52001
3651.11487,0.51738
3649.18612,0.51413
3647.25738,0.51034
3645.32863,0.50671
3643.39989,0.50319
3641.47114,0.49966
3639.54239,0.49625
3637.61365,0.49302
3635.68490,0.48996
3633.75616,0.48687
3631.82741,0.48381
3629.89867,0.48075
3627.96992,0.47725
3626.04118,0.47352
3624.11243,0.46981
3622.18369,0.46593
3620.25494,0.46187
3618.32620,0.45775
3616.39745,0.45362
3614.46871,0.44945
3612.53996,0.44522
3610.61122,0.44074
3608.68247,0.43590
3606.75372,0.43096
3604.82498,0.42594
3602.89623,0.42054
3600.96749,0.41476
3599.03874,0.40851
3597.11000,0.40170
3595.18125,0.39466
3593.25251,0.38765
3591.32376,0.38058
3589.39502,0.37302
3587.46627,0.36481
3585.53753,0.35657
3583.60878,0.34864
3581.68004,0.34101
3579.75129,0.33379
3577.82254,0.32674
3575.89380,0.31961
3573.96505,0.31280
3572.03631,0.30685
3570.10756,0.30168
3568.17882,0.29677
3566.25007,0.29190
3564.32133,0.28747
3562.39258,0.28370
3560.46384,0.28058
3558.53509,0.27806
3556.60635,0.27586
3554.67760,0.27378
3552.74886,0.27202
3550.82011,0.27080
3548.89137,0.26999
3546.96262,0.26948
3545.03387,0.26948
3543.10513,0.27009
3541.17638,0.27107
3539.24764,0.27212
3537.31889,0.27330
3535.39015,0.27485
3533.46140,0.27675
3531.53266,0.27887
3529.60391,0.28115
3527.67517,0.28361
3525.74642,0.28645
3523.81768,0.28966
3521.88893,0.29268
3519.96019,0.29544
3518.03144,0.29843
3516.10270,0.30178
3514.17395,0.30523
3512.24520,0.30828
3510.31646,0.31078
3508.38771,0.31323
3506.45897,0.31606
3504.53022,0.31896
3502.60148,0.32147
3500.67273,0.32358
3498.74399,0.32550
3496.81524,0.32713
3494.88650,0.32843
3492.95775,0.32966
3491.02901,0.33075
3489.10026,0.33166
3487.17152,0.33255
3485.24277,0.33302
3483.31402,0.33268
3481.38528,0.33183
3479.45653,0.33081
3477.52779,0.32952
3475.59904,0.32753
3473.67030,0.32488
3471.74155,0.32200
3469.81281,0.31860
3467.88406,0.31424
3465.95532,0.30932
3464.02657,0.30403
3462.09783,0.29796
3460.16908,0.29118
3458.24034,0.28403
3456.31159,0.27648
3454.38285,0.26839
3452.45410,0.25985
3450.52535,0.25104
3448.59661,0.24202
3446.66786,0.23294
3444.73912,0.22394
3442.81037,0.21494
3440.88163,0.20599
3438.95288,0.19733
3437.02414,0.18925
3435.09539,0.18208
3433.16665,0.17597
3431.23790,0.17108
3429.30916,0.16795
3427.38041,0.16672
3425.45167,0.16650
3423.52292,0.16654
3421.59418,0.16690
3419.66543,0.16743
3417.73668,0.16765
3415.80794,0.16760
3413.87919,0.16812
3411.95045,0.17056
3410.02170,0.17602
3408.09296,0.18512
3406.16421,0.19810
3404.23547,0.21412
3402.30672,0.23134
3400.37798,0.24792
3398.44923,0.26276
3396.52049,0.27566
3394.59174,0.28688
3392.66300,0.29633
3390.73425,0.30390
3388.80550,0.31014
3386.87676,0.31571
3384.94801,0.32064
3383.01927,0.32487
3381.09052,0.32871
3379.16178,0.33226
3377.23303,0.33520
3375.30429,0.33744
3373.37554,0.33918
3371.44680,0.34052
3369.51805,0.34135
3367.58931,0.34134
3365.66056,0.34058
3363.73182,0.33951
3361.80307,0.33831
3359.87433,0.33692
3357.94558,0.33511
3356.01683,0.33277
3354.08809,0.33002
3352.15934,0.32676
3350.23060,0.32287
3348.30185,0.31852
3346.37311,0.31391
3344.44436,0.30908
3342.51562,0.30423
3340.58687,0.29974
3338.65813,0.29553
3336.72938,0.29141
3334.80064,0.28767
3332.87189,0.28476
3330.94315,0.28291
3329.01440,0.28237
3327.08566,0.28360
3325.15691,0.28702
3323.22816,0.29229
3321.29942,0.29846
3319.37067,0.30453
3317.44193,0.30991
3315.51318,0.31420
3313.58444,0.31692
3311.65569,0.31808
3309.72695,0.31818
3307.79820,0.31773
3305.86946,0.31693
3303.94071,0.31548
3302.01197,0.31316
3300.08322,0.31074
3298.15448,0.30892
3296.22573,0.30738
3294.29698,0.30598
3292.36824,0.30503
3290.43949,0.30490
3288.51075,0.30599
3286.58200,0.30830
3284.65326,0.31141
3282.72451,0.31497
3280.79577,0.31842
3278.86702,0.32143
3276.93828,0.32394
3275.00953,0.32577
3273.08079,0.32689
3271.15204,0.32757
3269.22330,0.32809
3267.29455,0.32878
3265.36581,0.32930
3263.43706,0.32906
3261.50831,0.32843
3259.57957,0.32803
3257.65082,0.32778
3255.72208,0.32738
3253.79333,0.32701
3251.86459,0.32668
3249.93584,0.32595
3248.00710,0.32485
3246.07835,0.32372
3244.14961,0.32251
3242.22086,0.32131
3240.29212,0.32017
3238.36337,0.31859
3236.43463,0.31656
3234.50588,0.31467
3232.57713,0.31294
3230.64839,0.31143
3228.71964,0.31036
3226.79090,0.30966
3224.86215,0.30915
3222.93341,0.30876
3221.00466,0.30892
3219.07592,0.31031
3217.14717,0.31288
3215.21843,0.31567
3213.28968,0.31773
3211.36094,0.31921
3209.43219,0.32049
3207.50345,0.32134
3205.57470,0.32159
3203.64596,0.32113
3201.71721,0.31987
3199.78846,0.31821
3197.85972,0.31672
3195.93097,0.31540
3194.00223,0.31402
3192.07348,0.31266
3190.14474,0.31150
3188.21599,0.31049
3186.28725,0.30945
3184.35850,0.30844
3182.42976,0.30784
3180.50101,0.30742
3178.57227,0.30662
3176.64352,0.30566
3174.71478,0.30478
3172.78603,0.30362
3170.85729,0.30214
3168.92854,0.30067
3166.99979,0.29941
3165.07105,0.29802
3163.14230,0.29626
3161.21356,0.29450
3159.28481,0.29282
3157.35607,0.29086
3155.42732,0.28859
3153.49858,0.28627
3151.56983,0.28381
3149.64109,0.28103
3147.71234,0.27813
3145.78360,0.27524
3143.85485,0.27208
3141.92611,0.26843
3139.99736,0.26413
3138.06861,0.25921
3136.13987,0.25388
3134.21112,0.24820
3132.28238,0.24203
3130.35363,0.23582
3128.42489,0.23104
3126.49614,0.22905
3124.56740,0.22962
3122.63865,0.23133
3120.70991,0.23270
3118.78116,0.23268
3116.85242,0.23086
3114.92367,0.22734
3112.99493,0.22235
3111.06618,0.21624
3109.13744,0.20943
3107.20869,0.20252
3105.27994,0.19648
3103.35120,0.19231
3101.42245,0.19066
3099.49371,0.19166
3097.56496,0.19450
3095.63622,0.19741
3093.70747,0.19849
3091.77873,0.19645
3089.84998,0.19133
3087.92124,0.18451
3085.99249,0.17751
3084.06375,0.17150
3082.13500,0.16725
3080.20626,0.16507
3078.27751,0.16441
3076.34877,0.16404
3074.42002,0.16308
3072.49127,0.16138
3070.56253,0.15918
3068.63378,0.15716
3066.70504,0.15622
3064.77629,0.15662
3062.84755,0.15736
3060.91880,0.15701
3058.99006,0.15518
3057.06131,0.15296
3055.13257,0.15209
3053.20382,0.15444
3051.27508,0.16126
3049.34633,0.17214
3047.41759,0.18523
3045.48884,0.19820
3043.56009,0.20865
3041.63135,0.21522
3039.70260,0.21847
3037.77386,0.21935
3035.84511,0.21825
3033.91637,0.21556
3031.98762,0.21164
3030.05888,0.20666
3028.13013,0.20088
3026.20139,0.19429
3024.27264,0.18657
3022.34390,0.17770
3020.41515,0.16814
3018.48641,0.15846
3016.55766,0.14903
3014.62892,0.13999
3012.70017,0.13135
3010.77142,0.12313
3008.84268,0.11527
3006.91393,0.10755
3004.98519,0.09981
3003.05644,0.09239
3001.12770,0.08554
2999.19895,0.07908
2997.27021,0.07295
2995.34146,0.06705
2993.41272,0.06111
2991.48397,0.05516
2989.55523,0.04957
2987.62648,0.04467
2985.69774,0.04077
2983.76899,0.03803
2981.84025,0.03624
2979.91150,0.03514
2977.98275,0.03451
2976.05401,0.03388
2974.12526,0.03311
2972.19652,0.03262
2970.26777,0.03272
2968.33903,0.03307
2966.41028,0.03335
2964.48154,0.03385
2962.55279,0.03470
2960.62405,0.03581
2958.69530,0.03738
2956.76656,0.03964
2954.83781,0.04269
2952.90907,0.04655
2950.98032,0.05085
2949.05157,0.05524
2947.12283,0.05969
2945.19408,0.06388
2943.26534,0.06743
2941.33659,0.07048
2939.40785,0.07313
2937.47910,0.07524
2935.55036,0.07673
2933.62161,0.07765
2931.69287,0.07821
2929.76412,0.07861
2927.83538,0.07893
2925.90663,0.07899
2923.97789,0.07861
2922.04914,0.07802
2920.12040,0.07756
2918.19165,0.07707
2916.26290,0.07586
2914.33416,0.07341
2912.40541,0.06947
2910.47667,0.06420
2908.54792,0.05870
2906.61918,0.05427
2904.69043,0.05164
2902.76169,0.05140
2900.83294,0.05387
2898.90420,0.05852
2896.97545,0.06455
2895.04671,0.07110
2893.11796,0.07723
2891.18922,0.08260
2889.26047,0.08744
2887.33172,0.09199
2885.40298,0.09618
2883.47423,0.09981
2881.54549,0.10301
2879.61674,0.10607
2877.68800,0.10877
2875.75925,0.11085
2873.83051,0.11252
2871.90176,0.11387
2869.97302,0.11491
2868.04427,0.11578
2866.11553,0.11654
2864.18678,0.11719
2862.25804,0.11788
2860.32929,0.11888
2858.40055,0.12026
2856.47180,0.12180
2854.54305,0.12382
2852.61431,0.12704
2850.68556,0.13187
2848.75682,0.13850
2846.82807,0.14659
2844.89933,0.15509
2842.97058,0.16287
2841.04184,0.16936
2839.11309,0.17468
2837.18435,0.17934
2835.25560,0.18383
2833.32686,0.18843
2831.39811,0.19320
2829.46937,0.19843
2827.54062,0.20457
2825.61188,0.21156
2823.68313,0.21872
2821.75438,0.22543
2819.82564,0.23143
2817.89689,0.23621
2815.96815,0.23948
2814.03940,0.24167
2812.11066,0.24312
2810.18191,0.24373
2808.25317,0.24394
2806.32442,0.24482
2804.39568,0.24696
2802.46693,0.24994
2800.53819,0.25319
2798.60944,0.25638
2796.68070,0.25924
2794.75195,0.26160
2792.82320,0.26337
2790.89446,0.26442
2788.96571,0.26473
2787.03697,0.26478
2785.10822,0.26495
2783.17948,0.26522
2781.25073,0.26558
2779.32199,0.26605
2777.39324,0.26666
2775.46450,0.26739
2773.53575,0.26823
2771.60701,0.26953
2769.67826,0.27167
2767.74952,0.27483
2765.82077,0.27897
2763.89203,0.28362
2761.96328,0.28814
2760.03453,0.29232
2758.10579,0.29612
2756.17704,0.29924
2754.24830,0.30158
2752.31955,0.30338
2750.39081,0.30459
2748.46206,0.30488
2746.53332,0.30427
2744.60457,0.30338
2742.67583,0.30312
2740.74708,0.30414
2738.81834,0.30664
2736.88959,0.31060
2734.96085,0.31559
2733.03210,0.32097
2731.10336,0.32641
2729.17461,0.33165
2727.24586,0.33637
2725.31712,0.34026
2723.38837,0.34305
2721.45963,0.34467
2719.53088,0.34519
2717.60214,0.34492
2715.67339,0.34438
2713.74465,0.34416
2711.81590,0.34492
2709.88716,0.34711
2707.95841,0.35049
2706.02967,0.35431
2704.10092,0.35796
2702.17218,0.36106
2700.24343,0.36334
2698.31468,0.36481
2696.38594,0.36595
2694.45719,0.36710
2692.52845,0.36810
2690.59970,0.36874
2688.67096,0.36873
2686.74221,0.36807
2684.81347,0.36737
2682.88472,0.36736
2680.95598,0.36794
2679.02723,0.36839
2677.09849,0.36839
2675.16974,0.36802
2673.24100,0.36732
2671.31225,0.36639
2669.38351,0.36539
2667.45476,0.36433
2665.52601,0.36330
2663.59727,0.36249
2661.66852,0.36184
2659.73978,0.36109
2657.81103,0.35987
2655.88229,0.35808
2653.95354,0.35588
2652.02480,0.35334
2650.09605,0.35052
2648.16731,0.34739
2646.23856,0.34384
2644.30982,0.34023
2642.38107,0.33700
2640.45233,0.33386
2638.52358,0.33008
2636.59484,0.32540
2634.66609,0.32044
2632.73734,0.31621
2630.80860,0.31346
2628.87985,0.31250
2626.95111,0.31311
2625.02236,0.31470
2623.09362,0.31674
2621.16487,0.31895
2619.23613,0.32129
2617.30738,0.32376
2615.37864,0.32617
2613.44989,0.32825
2611.52115,0.32975
2609.59240,0.33062
2607.66366,0.33109
2605.73491,0.33129
2603.80616,0.33097
2601.87742,0.33005
2599.94867,0.32872
2598.01993,0.32685
2596.09118,0.32402
2594.16244,0.32018
2592.23369,0.31575
2590.30495,0.31108
2588.37620,0.30631
2586.44746,0.30171
2584.51871,0.29759
2582.58997,0.29421
2580.66122,0.29183
2578.73248,0.29063
2576.80373,0.29059
2574.87499,0.29139
2572.94624,0.29251
2571.01749,0.29353
2569.08875,0.29412
2567.16000,0.29407
2565.23126,0.29345
2563.30251,0.29242
2561.37377,0.29105
2559.44502,0.28934
2557.51628,0.28732
2555.58753,0.28521
2553.65879,0.28346
2551.73004,0.28219
2549.80130,0.28103
2547.87255,0.27982
2545.94381,0.27867
2544.01506,0.27774
2542.08631,0.27716
2540.15757,0.27698
2538.22882,0.27718
2536.30008,0.27777
2534.37133,0.27879
2532.44259,0.28040
2530.51384,0.28263
2528.58510,0.28525
2526.65635,0.28817
2524.72761,0.29137
2522.79886,0.29464
2520.87012,0.29777
2518.94137,0.30077
2517.01263,0.30383
2515.08388,0.30699
2513.15514,0.31004
2511.22639,0.31308
2509.29764,0.31639
2507.36890,0.31983
2505.44015,0.32304
2503.51141,0.32574
2501.58266,0.32785
2499.65392,0.32951
2497.72517,0.33084
2495.79643,0.33186
2493.86768,0.33279
2491.93894,0.33372
2490.01019,0.33444
2488.08145,0.33509
2486.15270,0.33626
2484.22396,0.33830
2482.29521,0.34117
2480.36647,0.34460
2478.43772,0.34823
2476.50897,0.35188
2474.58023,0.35528
2472.65148,0.35806
2470.72274,0.36014
2468.79399,0.36161
2466.86525,0.36257
2464.93650,0.36321
2463.00776,0.36360
2461.07901,0.36373
2459.15027,0.36351
2457.22152,0.36288
2455.29278,0.36186
2453.36403,0.36061
2451.43529,0.35927
2449.50654,0.35785
2447.57779,0.35621
2445.64905,0.35395
2443.72030,0.35055
2441.79156,0.34583
2439.86281,0.33980
2437.93407,0.33265
2436.00532,0.32483
2434.07658,0.31718
2432.14783,0.31029
2430.21909,0.30406
2428.29034,0.29829
2426.36160,0.29290
2424.43285,0.28771
2422.50411,0.28231
2420.57536,0.27646
2418.64662,0.27040
2416.71787,0.26470
2414.78912,0.25971
2412.86038,0.25534
2410.93163,0.25130
2409.00289,0.24757
2407.07414,0.24416
2405.14540,0.24071
2403.21665,0.23709
2401.28791,0.23353
2399.35916,0.23032
2397.43042,0.22768
2395.50167,0.22556
2393.57293,0.22377
2391.64418,0.22205
2389.71544,0.22046
2387.78669,0.21935
2385.85795,0.21894
2383.92920,0.21895
2382.00045,0.21907
2380.07171,0.21930
2378.14296,0.21990
2376.21422,0.22102
2374.28547,0.22272
2372.35673,0.22516
2370.42798,0.22849
2368.49924,0.23266
2366.57049,0.23776
2364.64175,0.24372
2362.71300,0.25027
2360.78426,0.25733
2358.85551,0.26477
2356.92677,0.27223
2354.99802,0.27949
2353.06927,0.28650
2351.14053,0.29317
2349.21178,0.29951
2347.28304,0.30571
2345.35429,0.31186
2343.42555,0.31769
2341.49680,0.32282
2339.56806,0.32709
2337.63931,0.33076
2335.71057,0.33404
2333.78182,0.33644
2331.85308,0.33723
2329.92433,0.33635
2327.99559,0.33455
2326.06684,0.33324
2324.13810,0.33399
2322.20935,0.33756
2320.28060,0.34323
2318.35186,0.34930
2316.42311,0.35426
2314.49437,0.35750
2312.56562,0.35898
2310.63688,0.35878
2308.70813,0.35724
2306.77939,0.35474
2304.85064,0.35136
2302.92190,0.34705
2300.99315,0.34181
2299.06441,0.33569
2297.13566,0.32876
2295.20692,0.32102
2293.27817,0.31284
2291.34943,0.30500
2289.42068,0.29799
2287.49193,0.29193
2285.56319,0.28730
2283.63444,0.28489
2281.70570,0.28493
2279.77695,0.28695
2277.84821,0.29031
2275.91946,0.29451
2273.99072,0.29889
2272.06197,0.30256
2270.13323,0.30491
2268.20448,0.30598
2266.27574,0.30604
2264.34699,0.30532
2262.41825,0.30409
2260.48950,0.30252
2258.56075,0.30034
2256.63201,0.29731
2254.70326,0.29379
2252.77452,0.29018
2250.84577,0.28672
2248.91703,0.28361
2246.98828,0.28094
2245.05954,0.27881
2243.13079,0.27743
2241.20205,0.27679
2239.27330,0.27650
2237.34456,0.27617
2235.41581,0.27568
2233.48707,0.27506
2231.55832,0.27440
2229.62958,0.27384
2227.70083,0.27367
2225.77208,0.27394
2223.84334,0.27435
2221.91459,0.27470
2219.98585,0.27488
2218.05710,0.27479
2216.12836,0.27406
2214.19961,0.27255
2212.27087,0.27088
2210.34212,0.27011
2208.41338,0.27116
2206.48463,0.27422
2204.55589,0.27822
2202.62714,0.28193
2200.69840,0.28499
2198.76965,0.28746
2196.84090,0.28934
2194.91216,0.29071
2192.98341,0.29191
2191.05467,0.29333
2189.12592,0.29528
2187.19718,0.29797
2185.26843,0.30135
2183.33969,0.30473
2181.41094,0.30734
2179.48220,0.30904
2177.55345,0.31005
2175.62471,0.31032
2173.69596,0.30974
2171.76722,0.30842
2169.83847,0.30648
2167.90973,0.30404
2165.98098,0.30120
2164.05223,0.29818
2162.12349,0.29520
2160.19474,0.29218
2158.26600,0.28898
2156.33725,0.28573
2154.40851,0.28261
2152.47976,0.27978
2150.55102,0.27743
2148.62227,0.27555
2146.69353,0.27395
2144.76478,0.27239
2142.83604,0.27077
2140.90729,0.26906
2138.97855,0.26751
2137.04980,0.26631
2135.12106,0.26519
2133.19231,0.26398
2131.26356,0.26284
2129.33482,0.26165
2127.40607,0.26013
2125.47733,0.25841
2123.54858,0.25666
2121.61984,0.25481
2119.69109,0.25292
2117.76235,0.25115
2115.83360,0.24961
2113.90486,0.24859
2111.97611,0.24825
2110.04737,0.24828
2108.11862,0.24832
2106.18988,0.24837
2104.26113,0.24846
2102.33238,0.24852
2100.40364,0.24854
2098.47489,0.24853
2096.54615,0.24866
2094.61740,0.24918
2092.68866,0.25010
2090.75991,0.25117
2088.83117,0.25222
2086.90242,0.25338
2084.97368,0.25474
2083.04493,0.25626
2081.11619,0.25791
2079.18744,0.25959
2077.25870,0.26117
2075.32995,0.26239
2073.40121,0.26310
2071.47246,0.26334
2069.54371,0.26308
2067.61497,0.26244
2065.68622,0.26171
2063.75748,0.26110
2061.82873,0.26075
2059.89999,0.26101
2057.97124,0.26213
2056.04250,0.26402
2054.11375,0.26654
2052.18501,0.26948
2050.25626,0.27240
2048.32752,0.27480
2046.39877,0.27616
2044.47003,0.27627
2042.54128,0.27527
2040.61254,0.27317
2038.68379,0.27003
2036.75504,0.26635
2034.82630,0.26282
2032.89755,0.25996
2030.96881,0.25819
2029.04006,0.25781
2027.11132,0.25858
2025.18257,0.25981
2023.25383,0.26086
2021.32508,0.26123
2019.39634,0.26082
2017.46759,0.25999
2015.53885,0.25943
2013.61010,0.25975
2011.68136,0.26089
2009.75261,0.26218
2007.82386,0.26292
2005.89512,0.26266
2003.96637,0.26125
2002.03763,0.25898
2000.10888,0.25615
1998.18014,0.25287
1996.25139,0.24928
1994.32265,0.24561
1992.39390,0.24204
1990.46516,0.23904
1988.53641,0.23716
1986.60767,0.23621
1984.67892,0.23526
1982.75018,0.23355
1980.82143,0.23090
1978.89269,0.22732
1976.96394,0.22291
1975.03519,0.21778
1973.10645,0.21193
1971.17770,0.20532
1969.24896,0.19784
1967.32021,0.18939
1965.39147,0.18015
1963.46272,0.17071
1961.53398,0.16164
1959.60523,0.15307
1957.67649,0.14503
1955.74774,0.13803
1953.81900,0.13322
1951.89025,0.13183
1949.96151,0.13450
1948.03276,0.14091
1946.10402,0.14975
1944.17527,0.15962
1942.24652,0.16966
1940.31778,0.17933
1938.38903,0.18847
1936.46029,0.19713
1934.53154,0.20528
1932.60280,0.21297
1930.67405,0.22035
1928.74531,0.22737
1926.81656,0.23394
1924.88782,0.23995
1922.95907,0.24523
1921.03033,0.24972
1919.10158,0.25348
1917.17284,0.25649
1915.24409,0.25866
1913.31534,0.26005
1911.38660,0.26082
1909.45785,0.26089
1907.52911,0.26001
1905.60036,0.25834
1903.67162,0.25623
1901.74287,0.25375
1899.81413,0.25100
1897.88538,0.24827
1895.95664,0.24583
1894.02789,0.24371
1892.09915,0.24158
1890.17040,0.23912
1888.24166,0.23625
1886.31291,0.23322
1884.38417,0.23071
1882.45542,0.22942
1880.52667,0.22940
1878.59793,0.23008
1876.66918,0.23066
1874.74044,0.23042
1872.81169,0.22886
1870.88295,0.22611
1868.95420,0.22264
1867.02546,0.21895
1865.09671,0.21524
1863.16797,0.21148
1861.23922,0.20771
1859.31048,0.20400
1857.38173,0.20018
1855.45299,0.19603
1853.52424,0.19116
1851.59549,0.18522
1849.66675,0.17834
1847.73800,0.17097
1845.80926,0.16340
1843.88051,0.15579
1841.95177,0.14873
1840.02302,0.14241
1838.09428,0.13639
1836.16553,0.13067
1834.23679,0.12538
1832.30804,0.12039
1830.37930,0.11560
1828.45055,0.11139
1826.52181,0.10822
1824.59306,0.10619
1822.66432,0.10536
1820.73557,0.10547
1818.80682,0.10581
1816.87808,0.10583
1814.94933,0.10544
1813.02059,0.10475
1811.09184,0.10368
1809.16310,0.10216
1807.23435,0.10048
1805.30561,0.09894
1803.37686,0.09758
1801.44812,0.09630
1799.51937,0.09506
1797.59063,0.09385
1795.66188,0.09259
1793.73314,0.09119
1791.80439,0.08960
1789.87565,0.08781
1787.94690,0.08576
1786.01815,0.08338
1784.08941,0.08081
1782.16066,0.07824
1780.23192,0.07571
1778.30317,0.07319
1776.37443,0.07070
1774.44568,0.06810
1772.51694,0.06524
1770.58819,0.06226
1768.65945,0.05914
1766.73070,0.05576
1764.80196,0.05235
1762.87321,0.04889
1760.94447,0.04519
1759.01572,0.04141
1757.08697,0.03765
1755.15823,0.03413
1753.22948,0.03092
1751.30074,0.02773
1749.37199,0.02465
1747.44325,0.02203
1745.51450,0.01983
1743.58576,0.01807
1741.65701,0.01682
1739.72827,0.01611
1737.79952,0.01592
1735.87078,0.01614
1733.94203,0.01678
1732.01329,0.01789
1730.08454,0.01950
1728.15580,0.02152
1726.22705,0.02369
1724.29830,0.02589
1722.36956,0.02799
1720.44081,0.02997
1718.51207,0.03187
1716.58332,0.03328
1714.65458,0.03362
1712.72583,0.03296
1710.79709,0.03184
1708.86834,0.03061
1706.93960,0.02945
1705.01085,0.02877
1703.08211,0.02892
1701.15336,0.02985
1699.22462,0.03124
1697.29587,0.03286
1695.36713,0.03490
1693.43838,0.03732
1691.50963,0.03960
1689.58089,0.04143
1687.65214,0.04279
1685.72340,0.04374
1683.79465,0.04449
1681.86591,0.04529
1679.93716,0.04601
1678.00842,0.04633
1676.07967,0.04655
1674.15093,0.04766
1672.22218,0.05051
1670.29344,0.05535
1668.36469,0.06162
1666.43595,0.06810
1664.50720,0.07442
1662.57845,0.08054
1660.64971,0.08587
1658.72096,0.09015
1656.79222,0.09361
1654.86347,0.09663
1652.93473,0.09940
1651.00598,0.10167
1649.07724,0.10375
1647.14849,0.10603
1645.21975,0.10822
1643.29100,0.11014
1641.36226,0.11197
1639.43351,0.11378
1637.50477,0.11564
1635.57602,0.11774
1633.64728,0.11978
1631.71853,0.12153
1629.78978,0.12310
1627.86104,0.12434
1625.93229,0.12509
1624.00355,0.12510
1622.07480,0.12345
1620.14606,0.11931
1618.21731,0.11240
1616.28857,0.10418
1614.35982,0.09920
1612.43108,0.09963
1610.50233,0.10411
1608.57359,0.11068
1606.64484,0.11777
1604.71610,0.12472
1602.78735,0.13121
1600.85861,0.13657
1598.92986,0.13998
1597.00111,0.14095
1595.07237,0.13954
1593.14362,0.13646
1591.21488,0.13214
1589.28613,0.12605
1587.35739,0.11727
1585.42864,0.10547
1583.49990,0.09157
1581.57115,0.07806
1579.64241,0.06843
1577.71366,0.06529
1575.78492,0.06974
1573.85617,0.07947
1571.92743,0.09098
1569.99868,0.10289
1568.06993,0.11311
1566.14119,0.12033
1564.21244,0.12514
1562.28370,0.12831
1560.35495,0.13035
1558.42621,0.13141
1556.49746,0.13196
1554.56872,0.13275
1552.63997,0.13374
1550.71123,0.13468
1548.78248,0.13535
1546.85374,0.13535
1544.92499,0.13454
1542.99625,0.13296
1541.06750,0.13020
1539.13876,0.12555
1537.21001,0.11957
1535.28126,0.11275
1533.35252,0.10516
1531.42377,0.09866
1529.49503,0.09466
1527.56628,0.09297
1525.63754,0.09316
1523.70879,0.09426
1521.78005,0.09510
1519.85130,0.09453
1517.92256,0.09184
1515.99381,0.08650
1514.06507,0.07835
1512.13632,0.06764
1510.20758,0.05517
1508.27883,0.04237
1506.35008,0.03236
1504.42134,0.03028
1502.49259,0.03695
1500.56385,0.05036
1498.63510,0.06734
1496.70636,0.08380
1494.77761,0.09591
1492.84887,0.10171
1490.92012,0.10149
1488.99138,0.09632
1487.06263,0.08820
1485.13389,0.07889
1483.20514,0.06908
1481.27640,0.05915
1479.34765,0.04999
1477.41891,0.04227
1475.49016,0.03598
1473.56141,0.03115
1471.63267,0.02807
1469.70392,0.02657
1467.77518,0.02584
1465.84643,0.02557
1463.91769,0.02604
1461.98894,0.02724
1460.06020,0.02889
1458.13145,0.03087
1456.20271,0.03279
1454.27396,0.03438
1452.34522,0.03632
1450.41647,0.03921
1448.48773,0.04279
1446.55898,0.04615
1444.63024,0.04871
1442.70149,0.05051
1440.77274,0.05164
1438.84400,0.05225
1436.91525,0.05246
1434.98651,0.05205
1433.05776,0.05060
1431.12902,0.04785
1429.20027,0.04389
1427.27153,0.03939
1425.34278,0.03508
1423.41404,0.03149
1421.48529,0.02866
1419.55655,0.02592
1417.62780,0.02302
1415.69906,0.02055
1413.77031,0.01885
1411.84156,0.01811
1409.91282,0.01832
1407.98407,0.01923
1406.05533,0.02055
1404.12658,0.02207
1402.19784,0.02352
1400.26909,0.02467
1398.34035,0.02528
1396.41160,0.02512
1394.48286,0.02439
1392.55411,0.02350
1390.62537,0.02287
1388.69662,0.02279
1386.76788,0.02318
1384.83913,0.02373
1382.91039,0.02425
1380.98164,0.02468
1379.05289,0.02512
1377.12415,0.02584
1375.19540,0.02692
1373.26666,0.02818
1371.33791,0.02924
1369.40917,0.02967
1367.48042,0.02927
1365.55168,0.02822
1363.62293,0.02693
1361.69419,0.02567
1359.76544,0.02465
1357.83670,0.02422
1355.90795,0.02486
1353.97921,0.02657
1352.05046,0.02865
1350.12172,0.03036
1348.19297,0.03137
1346.26422,0.03150
1344.33548,0.03072
1342.40673,0.02925
1340.47799,0.02750
1338.54924,0.02578
1336.62050,0.02416
1334.69175,0.02275
1332.76301,0.02176
1330.83426,0.02115
1328.90552,0.02050
1326.97677,0.01972
1325.04803,0.01911
1323.11928,0.01861
1321.19054,0.01800
1319.26179,0.01728
1317.33304,0.01657
1315.40430,0.01596
1313.47555,0.01550
1311.54681,0.01502
1309.61806,0.01452
1307.68932,0.01420
1305.76057,0.01401
1303.83183,0.01400
1301.90308,0.01429
1299.97434,0.01485
1298.04559,0.01565
1296.11685,0.01652
1294.18810,0.01719
1292.25936,0.01791
1290.33061,0.01912
1288.40187,0.02088
1286.47312,0.02307
1284.54437,0.02555
1282.61563,0.02823
1280.68688,0.03101
1278.75814,0.03365
1276.82939,0.03598
1274.90065,0.03780
1272.97190,0.03895
1271.04316,0.03950
1269.11441,0.03964
1267.18567,0.03952
1265.25692,0.03909
1263.32818,0.03829
1261.39943,0.03732
1259.47069,0.03652
1257.54194,0.03604
1255.61320,0.03581
1253.68445,0.03583
1251.75570,0.03626
1249.82696,0.03698
1247.89821,0.03752
1245.96947,0.03744
1244.04072,0.03680
1242.11198,0.03591
1240.18323,0.03505
1238.25449,0.03441
1236.32574,0.03405
1234.39700,0.03396
1232.46825,0.03417
1230.53951,0.03475
1228.61076,0.03557
1226.68202,0.03624
1224.75327,0.03652
1222.82452,0.03691
1220.89578,0.03845
1218.96703,0.04156
1217.03829,0.04560
1215.10954,0.04954
1213.18080,0.05271
1211.25205,0.05507
1209.32331,0.05699
1207.39456,0.05881
1205.46582,0.06056
1203.53707,0.06243
1201.60833,0.06501
1199.67958,0.06834
1197.75084,0.07185
1195.82209,0.07508
1193.89335,0.07768
1191.96460,0.07931
1190.03585,0.07954
1188.10711,0.07809
1186.17836,0.07512
1184.24962,0.07077
1182.32087,0.06515
1180.39213,0.05879
1178.46338,0.05276
1176.53464,0.04826
1174.60589,0.04586
1172.67715,0.04513
1170.74840,0.04545
1168.81966,0.04635
1166.89091,0.04704
1164.96217,0.04673
1163.03342,0.04518
1161.10467,0.04272
1159.17593,0.03977
1157.24718,0.03656
1155.31844,0.03340
1153.38969,0.03038
1151.46095,0.02729
1149.53220,0.02440
1147.60346,0.02229
1145.67471,0.02083
1143.74597,0.01951
1141.81722,0.01825
1139.88848,0.01737
1137.95973,0.01700
1136.03099,0.01728
1134.10224,0.01857
1132.17350,0.02090
1130.24475,0.02362
1128.31600,0.02594
1126.38726,0.02742
1124.45851,0.02793
1122.52977,0.02756
1120.60102,0.02658
1118.67228,0.02553
1116.74353,0.02500
1114.81479,0.02503
1112.88604,0.02519
1110.95730,0.02538
1109.02855,0.02591
1107.09981,0.02707
1105.17106,0.02867
1103.24232,0.03000
1101.31357,0.03064
1099.38483,0.03066
1097.45608,0.03022
1095.52733,0.02969
1093.59859,0.02933
1091.66984,0.02898
1089.74110,0.02865
1087.81235,0.02867
1085.88361,0.02915
1083.95486,0.03000
1082.02612,0.03144
1080.09737,0.03403
1078.16863,0.03807
1076.23988,0.04302
1074.31114,0.04804
1072.38239,0.05287
1070.45365,0.05738
1068.52490,0.06106
1066.59615,0.06344
1064.66741,0.06475
1062.73866,0.06541
1060.80992,0.06505
1058.88117,0.06289
1056.95243,0.05880
1055.02368,0.05340
1053.09494,0.04740
1051.16619,0.04147
1049.23745,0.03619
1047.30870,0.03220
1045.37996,0.03005
1043.45121,0.02963
1041.52247,0.03021
1039.59372,0.03094
1037.66498,0.03158
1035.73623,0.03224
1033.80748,0.03263
1031.87874,0.03239
1029.94999,0.03134
1028.02125,0.02939
1026.09250,0.02718
1024.16376,0.02593
1022.23501,0.02593
1020.30627,0.02664
1018.37752,0.02828
1016.44878,0.03220
1014.52003,0.03985
1012.59129,0.05151
1010.66254,0.06594
1008.73380,0.08103
1006.80505,0.09451
1004.87631,0.10479
1002.94756,0.11194
1001.01881,0.11684
999.09007,0.11981
997.16132,0.12078
995.23258,0.11970
993.30383,0.11643
991.37509,0.11111
989.44634,0.10475
987.51760,0.09866
985.58885,0.09303
983.66011,0.08730
981.73136,0.08162
979.80262,0.07670
977.87387,0.07300
975.94513,0.07094
974.01638,0.07073
972.08763,0.07206
970.15889,0.07482
968.23014,0.07907
966.30140,0.08407
964.37265,0.08831
962.44391,0.09044
960.51516,0.08971
958.58642,0.08611
956.65767,0.08048
954.72893,0.07398
952.80018,0.06767
950.87144,0.06272
948.94269,0.06049
947.01395,0.06109
945.08520,0.06265
943.15646,0.06320
941.22771,0.06207
939.29896,0.06020
937.37022,0.05927
935.44147,0.05997
933.51273,0.06202
931.58398,0.06535
929.65524,0.07007
927.72649,0.07587
925.79775,0.08201
923.86900,0.08768
921.94026,0.09215
920.01151,0.09493
918.08277,0.09615
916.15402,0.09625
914.22528,0.09543
912.29653,0.09349
910.36779,0.09041
908.43904,0.08749
906.51029,0.08658
904.58155,0.08788
902.65280,0.09018
900.72406,0.09279
898.79531,0.09573
896.86657,0.09895
894.93782,0.10200
893.00908,0.10412
891.08033,0.10465
889.15159,0.10293
887.22284,0.09784
885.29410,0.08884
883.36535,0.07699
881.43661,0.06430
879.50786,0.05285
877.57911,0.04378
875.65037,0.03714
873.72162,0.03352
871.79288,0.03539
869.86413,0.04524
867.93539,0.06087
866.00664,0.07585
864.07790,0.08527
862.14915,0.08817
860.22041,0.08581
858.29166,0.08056
856.36292,0.07518
854.43417,0.07154
852.50543,0.06982
850.57668,0.06929
848.64794,0.06964
846.71919,0.07078
844.79044,0.07286
842.86170,0.07678
840.93295,0.08282
839.00421,0.08975
837.07546,0.09605
835.14672,0.10085
833.21797,0.10428
831.28923,0.10691
829.36048,0.10842
827.43174,0.10825
825.50299,0.10728
823.57425,0.10687
821.64550,0.10732
819.71676,0.10816
817.78801,0.10889
815.85926,0.10941
813.93052,0.11001
812.00177,0.11072
810.07303,0.11116
808.14428,0.11176
806.21554,0.11335
804.28679,0.11550
802.35805,0.11576
800.42930,0.11041
798.50056,0.09843
796.57181,0.08583
794.64307,0.08172
792.71432,0.08908
790.78558,0.10304
788.85683,0.11710
786.92809,0.12779
784.99934,0.13415
783.07059,0.13608
781.14185,0.13431
779.21310,0.13010
777.28436,0.12488
775.35561,0.12077
773.42687,0.11952
771.49812,0.12074
769.56938,0.12293
767.64063,0.12527
765.71189,0.12714
763.78314,0.12782
761.85440,0.12715
759.92565,0.12561
757.99691,0.12337
756.06816,0.11987
754.13942,0.11497
752.21067,0.10912
750.28192,0.10179
748.35318,0.09187
746.42443,0.07908
744.49569,0.06398
742.56694,0.04791
740.63820,0.03356
738.70945,0.02387
736.78071,0.01957
734.85196,0.01912
732.92322,0.02108
730.99447,0.02428
729.06573,0.02748
727.13698,0.03024
725.20824,0.03268
723.27949,0.03597
721.35074,0.04311
719.42200,0.05552
717.49325,0.07095
715.56451,0.08600
713.63576,0.09799
711.70702,0.10522
709.77827,0.10784
707.84953,0.10852
705.92078,0.11088
703.99204,0.11755
702.06329,0.12949
700.13455,0.14520
698.20580,0.16102
696.27706,0.17402
694.34831,0.18322
692.41957,0.18856
690.49082,0.19042
688.56207,0.18957
686.63333,0.18683
684.70458,0.18231
682.77584,0.17677
680.84709,0.17353
678.91835,0.17595
676.98960,0.18281
675.06086,0.18976
673.13211,0.19459
671.20337,0.19813
669.27462,0.20179
667.34588,0.20544
665.41713,0.20797
663.48839,0.20944
661.55964,0.21044
659.63090,0.21099
657.70215,0.21139
655.77340,0.21277
653.84466,0.21527
651.91591,0.21716
649.98717,0.21816
648.05842,0.21977
646.12968,0.22174
644.20093,0.22269
642.27219,0.22241
640.34344,0.22088
638.41470,0.21707
636.48595,0.20743
634.55721,0.19044
632.62846,0.17801
630.69972,0.18453
628.77097,0.20347
626.84222,0.21924
624.91348,0.22814
622.98473,0.23305
621.05599,0.23532
619.12724,0.23642
617.19850,0.23772
615.26975,0.23905
613.34101,0.23986
611.41226,0.24040
609.48352,0.24110
607.55477,0.24180
605.62603,0.24251
603.69728,0.24281
601.76854,0.24217
599.83979,0.24140
