7497.03301,0.85484
7495.10426,0.85433
7493.17552,0.85506
7491.24677,0.85722
7489.31803,0.85226
7487.38928,0.84142
7485.46054,0.83567
7483.53179,0.83679
7481.60305,0.83820
7479.67430,0.83657
7477.74556,0.83656
7475.81681,0.84411
7473.88807,0.85113
7471.95932,0.84613
7470.03057,0.83662
7468.10183,0.83680
7466.17308,0.84451
7464.24434,0.84654
7462.31559,0.84172
7460.38685,0.83868
7458.45810,0.83694
7456.52936,0.83470
7454.60061,0.83563
7452.67187,0.83754
7450.74312,0.83550
7448.81438,0.83308
7446.88563,0.83650
7444.95689,0.84255
7443.02814,0.84433
7441.09940,0.84303
7439.17065,0.84247
7437.24190,0.84120
7435.31316,0.83568
7433.38441,0.82851
7431.45567,0.82624
7429.52692,0.82970
7427.59818,0.83509
7425.66943,0.83730
7423.74069,0.83346
7421.81194,0.82885
7419.88320,0.83061
7417.95445,0.83775
7416.02571,0.84131
7414.09696,0.83716
7412.16822,0.83177
7410.23947,0.82735
7408.31073,0.82138
7406.38198,0.81786
7404.45323,0.81831
7402.52449,0.81872
7400.59574,0.82015
7398.66700,0.82277
7396.73825,0.82056
7394.80951,0.81399
7392.88076,0.81162
7390.95202,0.81563
7389.02327,0.81831
7387.09453,0.81518
7385.16578,0.81329
7383.23704,0.81867
7381.30829,0.82402
7379.37955,0.82124
7377.45080,0.81411
7375.52205,0.80779
7373.59331,0.80353
7371.66456,0.80252
7369.73582,0.80288
7367.80707,0.80195
7365.87833,0.79968
7363.94958,0.79759
7362.02084,0.79778
7360.09209,0.79916
7358.16335,0.79966
7356.23460,0.80117
7354.30586,0.80509
7352.37711,0.80880
7350.44837,0.80907
7348.51962,0.80408
7346.59088,0.79515
7344.66213,0.78832
7342.73338,0.78827
7340.80464,0.79186
7338.87589,0.79261
7336.94715,0.79058
7335.01840,0.79121
7333.08966,0.79289
7331.16091,0.78908
7329.23217,0.78314
7327.30342,0.78182
7325.37468,0.78269
7323.44593,0.78242
7321.51719,0.78361
7319.58844,0.78810
7317.65970,0.79289
7315.73095,0.79448
7313.80221,0.79242
7311.87346,0.78919
7309.94471,0.78983
7308.01597,0.79421
7306.08722,0.79516
7304.15848,0.79100
7302.22973,0.78805
7300.30099,0.79006
7298.37224,0.79334
7296.44350,0.79290
7294.51475,0.78902
7292.58601,0.78574
7290.65726,0.78549
7288.72852,0.78716
7286.79977,0.78874
7284.87103,0.78910
7282.94228,0.79007
7281.01353,0.79344
7279.08479,0.79618
7277.15604,0.79638
7275.22730,0.79637
7273.29855,0.79876
7271.36981,0.80330
7269.44106,0.80556
7267.51232,0.80250
7265.58357,0.79683
7263.65483,0.79528
7261.72608,0.80187
7259.79734,0.81003
7257.86859,0.80967
7255.93985,0.80130
7254.01110,0.79425
7252.08236,0.79399
7250.15361,0.79767
7248.22486,0.79898
7246.29612,0.79522
7244.36737,0.79062
7242.43863,0.79022
7240.50988,0.79075
7238.58114,0.78625
7236.65239,0.78145
7234.72365,0.78191
7232.79490,0.78283
7230.86616,0.78226
7228.93741,0.78131
7227.00867,0.77690
7225.07992,0.77161
7223.15118,0.77090
7221.22243,0.77450
7219.29369,0.77908
7217.36494,0.78086
7215.43619,0.77998
7213.50745,0.78030
7211.57870,0.78342
7209.64996,0.78744
7207.72121,0.78819
7205.79247,0.78464
7203.86372,0.78099
7201.93498,0.77878
7200.00623,0.77537
7198.07749,0.77054
7196.14874,0.76812
7194.22000,0.77077
7192.29125,0.77568
7190.36251,0.77953
7188.43376,0.78296
7186.50501,0.78620
7184.57627,0.78867
7182.64752,0.79039
7180.71878,0.78922
7178.79003,0.78555
7176.86129,0.78436
7174.93254,0.78690
7173.00380,0.78838
7171.07505,0.78526
7169.14631,0.78120
7167.21756,0.78045
7165.28882,0.78176
7163.36007,0.78386
7161.43133,0.78637
7159.50258,0.78645
7157.57384,0.78408
7155.64509,0.78297
7153.71634,0.78192
7151.78760,0.77821
7149.85885,0.77527
7147.93011,0.77619
7146.00136,0.77979
7144.07262,0.78394
7142.14387,0.78594
7140.21513,0.78431
7138.28638,0.78173
7136.35764,0.78266
7134.42889,0.78570
7132.50015,0.78574
7130.57140,0.78298
7128.64266,0.78069
7126.71391,0.78163
7124.78516,0.78461
7122.85642,0.78301
7120.92767,0.77808
7118.99893,0.77825
7117.07018,0.78306
7115.14144,0.78541
7113.21269,0.78233
7111.28395,0.77852
7109.35520,0.77910
7107.42646,0.78282
7105.49771,0.78791
7103.56897,0.79203
7101.64022,0.79110
7099.71148,0.78742
7097.78273,0.78645
7095.85399,0.78775
7093.92524,0.78679
7091.99649,0.78212
7090.06775,0.77867
7088.13900,0.78085
7086.21026,0.78473
7084.28151,0.78592
7082.35277,0.78484
7080.42402,0.78158
7078.49528,0.77945
7076.56653,0.78007
7074.63779,0.77853
7072.70904,0.77715
7070.78030,0.78164
7068.85155,0.78622
7066.92281,0.78471
7064.99406,0.78222
7063.06532,0.78344
7061.13657,0.78497
7059.20782,0.78272
7057.27908,0.77888
7055.35033,0.77891
7053.42159,0.78237
7051.49284,0.78597
7049.56410,0.78899
7047.63535,0.78793
7045.70661,0.78000
7043.77786,0.77012
7041.84912,0.76788
7039.92037,0.77678
7037.99163,0.78809
7036.06288,0.79250
7034.13414,0.79035
7032.20539,0.78603
7030.27664,0.78252
7028.34790,0.78027
7026.41915,0.77819
7024.49041,0.77786
7022.56166,0.78027
7020.63292,0.78194
7018.70417,0.78109
7016.77543,0.77853
7014.84668,0.77557
7012.91794,0.77467
7010.98919,0.77685
7009.06045,0.77957
7007.13170,0.78001
7005.20296,0.77970
7003.27421,0.78045
7001.34547,0.78252
6999.41672,0.78581
6997.48797,0.78785
6995.55923,0.78815
6993.63048,0.78790
6991.70174,0.78747
6989.77299,0.78740
6987.84425,0.78670
6985.91550,0.78544
6983.98676,0.78561
6982.05801,0.78774
6980.12927,0.78958
6978.20052,0.78934
6976.27178,0.78926
6974.34303,0.79181
6972.41429,0.79631
6970.48554,0.80021
6968.55680,0.80087
6966.62805,0.79862
6964.69930,0.79796
6962.77056,0.80191
6960.84181,0.80676
6958.91307,0.80776
6956.98432,0.80519
6955.05558,0.80142
6953.12683,0.79769
6951.19809,0.79576
6949.26934,0.79682
6947.34060,0.79847
6945.41185,0.79862
6943.48311,0.79819
6941.55436,0.79777
6939.62562,0.79644
6937.69687,0.79454
6935.76812,0.79494
6933.83938,0.79723
6931.91063,0.79794
6929.98189,0.79692
6928.05314,0.79568
6926.12440,0.79610
6924.19565,0.79687
6922.26691,0.79445
6920.33816,0.79310
6918.40942,0.79688
6916.48067,0.79970
6914.55193,0.79662
6912.62318,0.79179
6910.69444,0.79136
6908.76569,0.79475
6906.83695,0.79742
6904.90820,0.79950
6902.97945,0.80182
6901.05071,0.80309
6899.12196,0.80501
6897.19322,0.80758
6895.26447,0.80826
6893.33573,0.80782
6891.40698,0.80603
6889.47824,0.80236
6887.54949,0.80082
6885.62075,0.80265
6883.69200,0.80461
6881.76326,0.80669
6879.83451,0.80977
6877.90577,0.81146
6875.97702,0.81066
6874.04828,0.80888
6872.11953,0.80713
6870.19078,0.80660
6868.26204,0.80775
6866.33329,0.80882
6864.40455,0.80869
6862.47580,0.80831
6860.54706,0.80868
6858.61831,0.80953
6856.68957,0.80971
6854.76082,0.81039
6852.83208,0.81373
6850.90333,0.81621
6848.97459,0.81402
6847.04584,0.81119
6845.11710,0.81118
6843.18835,0.81085
6841.25960,0.80892
6839.33086,0.80934
6837.40211,0.81295
6835.47337,0.81478
6833.54462,0.81196
6831.61588,0.80872
6829.68713,0.80980
6827.75839,0.81198
6825.82964,0.81128
6823.90090,0.81271
6821.97215,0.81915
6820.04341,0.82322
6818.11466,0.82068
6816.18592,0.81680
6814.25717,0.81622
6812.32843,0.81860
6810.39968,0.82121
6808.47093,0.82108
6806.54219,0.81916
6804.61344,0.81965
6802.68470,0.82245
6800.75595,0.82349
6798.82721,0.82254
6796.89846,0.82216
6794.96972,0.82241
6793.04097,0.82220
6791.11223,0.82229
6789.18348,0.82384
6787.25474,0.82571
6785.32599,0.82612
6783.39725,0.82447
6781.46850,0.82197
6779.53975,0.82156
6777.61101,0.82250
6775.68226,0.82140
6773.75352,0.81970
6771.82477,0.82039
6769.89603,0.82189
6767.96728,0.82160
6766.03854,0.82114
6764.10979,0.82157
6762.18105,0.82074
6760.25230,0.81999
6758.32356,0.82261
6756.39481,0.82630
6754.46607,0.82657
6752.53732,0.82357
6750.60858,0.82090
6748.67983,0.82155
6746.75108,0.82483
6744.82234,0.82814
6742.89359,0.83023
6740.96485,0.83021
6739.03610,0.82926
6737.10736,0.82880
6735.17861,0.82727
6733.24987,0.82421
6731.32112,0.82108
6729.39238,0.82114
6727.46363,0.82607
6725.53489,0.83131
6723.60614,0.83395
6721.67740,0.83518
6719.74865,0.83305
6717.81991,0.82811
6715.89116,0.82653
6713.96241,0.82909
6712.03367,0.83194
6710.10492,0.83410
6708.17618,0.83519
6706.24743,0.83521
6704.31869,0.83446
6702.38994,0.83208
6700.46120,0.83019
6698.53245,0.83182
6696.60371,0.83399
6694.67496,0.83308
6692.74622,0.83208
6690.81747,0.83310
6688.88873,0.83299
6686.95998,0.83142
6685.03123,0.83111
6683.10249,0.83176
6681.17374,0.83244
6679.24500,0.83355
6677.31625,0.83419
6675.38751,0.83362
6673.45876,0.83254
6671.53002,0.83229
6669.60127,0.83478
6667.67253,0.83816
6665.74378,0.83740
6663.81504,0.83346
6661.88629,0.83236
6659.95755,0.83543
6658.02880,0.83814
6656.10006,0.83748
6654.17131,0.83601
6652.24256,0.83762
6650.31382,0.84080
6648.38507,0.84045
6646.45633,0.83685
6644.52758,0.83455
6642.59884,0.83480
6640.67009,0.83666
6638.74135,0.83974
6636.81260,0.84293
6634.88386,0.84431
6632.95511,0.84365
6631.02637,0.84382
6629.09762,0.84505
6627.16888,0.84457
6625.24013,0.84305
6623.31139,0.84196
6621.38264,0.84192
6619.45389,0.84323
6617.52515,0.84333
6615.59640,0.84208
6613.66766,0.84195
6611.73891,0.84102
6609.81017,0.83807
6607.88142,0.83631
6605.95268,0.83800
6604.02393,0.84217
6602.09519,0.84547
6600.16644,0.84573
6598.23770,0.84363
6596.30895,0.84105
6594.38021,0.83934
6592.45146,0.83743
6590.52271,0.83585
6588.59397,0.83773
6586.66522,0.84159
6584.73648,0.84292
6582.80773,0.84232
6580.87899,0.84219
6578.95024,0.84192
6577.02150,0.84139
6575.09275,0.84154
6573.16401,0.84242
6571.23526,0.84340
6569.30652,0.84301
6567.37777,0.84070
6565.44903,0.83899
6563.52028,0.83971
6561.59154,0.84090
6559.66279,0.84181
6557.73404,0.84349
6555.80530,0.84474
6553.87655,0.84407
6551.94781,0.84250
6550.01906,0.84204
6548.09032,0.84230
6546.16157,0.84245
6544.23283,0.84274
6542.30408,0.84238
6540.37534,0.84159
6538.44659,0.84173
6536.51785,0.84235
6534.58910,0.84171
6532.66036,0.84081
6530.73161,0.84179
6528.80287,0.84306
6526.87412,0.84245
6524.94537,0.84090
6523.01663,0.84018
6521.08788,0.84043
6519.15914,0.84098
6517.23039,0.84201
6515.30165,0.84341
6513.37290,0.84351
6511.44416,0.84095
6509.51541,0.83785
6507.58667,0.83696
6505.65792,0.83760
6503.72918,0.83828
6501.80043,0.83865
6499.87169,0.83878
6497.94294,0.83944
6496.01419,0.84098
6494.08545,0.84233
6492.15670,0.84283
6490.22796,0.84301
6488.29921,0.84273
6486.37047,0.84073
6484.44172,0.83743
6482.51298,0.83643
6480.58423,0.83881
6478.65549,0.84069
6476.72674,0.84067
6474.79800,0.84110
6472.86925,0.84184
6470.94051,0.84185
6469.01176,0.84318
6467.08302,0.84526
6465.15427,0.84510
6463.22552,0.84294
6461.29678,0.83985
6459.36803,0.83795
6457.43929,0.83965
6455.51054,0.84314
6453.58180,0.84462
6451.65305,0.84383
6449.72431,0.84282
6447.79556,0.84208
6445.86682,0.84141
6443.93807,0.84036
6442.00933,0.83903
6440.08058,0.83947
6438.15184,0.84203
6436.22309,0.84399
6434.29434,0.84355
6432.36560,0.84214
6430.43685,0.84132
6428.50811,0.84017
6426.57936,0.83839
6424.65062,0.83821
6422.72187,0.84037
6420.79313,0.84281
6418.86438,0.84445
6416.93564,0.84512
6415.00689,0.84514
6413.07815,0.84526
6411.14940,0.84430
6409.22066,0.84131
6407.29191,0.83917
6405.36317,0.84101
6403.43442,0.84501
6401.50567,0.84618
6399.57693,0.84303
6397.64818,0.83945
6395.71944,0.83867
6393.79069,0.84024
6391.86195,0.84274
6389.93320,0.84446
6388.00446,0.84576
6386.07571,0.84723
6384.14697,0.84663
6382.21822,0.84392
6380.28948,0.83997
6378.36073,0.83567
6376.43199,0.83517
6374.50324,0.83866
6372.57450,0.84114
6370.64575,0.84129
6368.71700,0.84051
6366.78826,0.83984
6364.85951,0.84043
6362.93077,0.84141
6361.00202,0.84146
6359.07328,0.84079
6357.14453,0.83977
6355.21579,0.83901
6353.28704,0.83881
6351.35830,0.84007
6349.42955,0.84232
6347.50081,0.84266
6345.57206,0.84087
6343.64332,0.83947
6341.71457,0.84000
6339.78582,0.84089
6337.85708,0.83939
6335.92833,0.83634
6333.99959,0.83458
6332.07084,0.83441
6330.14210,0.83460
6328.21335,0.83474
6326.28461,0.83433
6324.35586,0.83377
6322.42712,0.83403
6320.49837,0.83437
6318.56963,0.83426
6316.64088,0.83399
6314.71214,0.83334
6312.78339,0.83180
6310.85465,0.82926
6308.92590,0.82740
6306.99715,0.82810
6305.06841,0.83024
6303.13966,0.83209
6301.21092,0.83364
6299.28217,0.83400
6297.35343,0.83314
6295.42468,0.83353
6293.49594,0.83443
6291.56719,0.83391
6289.63845,0.83384
6287.70970,0.83505
6285.78096,0.83597
6283.85221,0.83631
6281.92347,0.83564
6279.99472,0.83325
6278.06598,0.83052
6276.13723,0.82888
6274.20848,0.82836
6272.27974,0.82831
6270.35099,0.82806
6268.42225,0.82769
6266.49350,0.82754
6264.56476,0.82852
6262.63601,0.83006
6260.70727,0.82941
6258.77852,0.82757
6256.84978,0.82779
6254.92103,0.82857
6252.99229,0.82801
6251.06354,0.82820
6249.13480,0.82865
6247.20605,0.82642
6245.27730,0.82311
6243.34856,0.82203
6241.41981,0.82257
6239.49107,0.82224
6237.56232,0.82060
6235.63358,0.81874
6233.70483,0.81752
6231.77609,0.81758
6229.84734,0.81813
6227.91860,0.81709
6225.98985,0.81498
6224.06111,0.81425
6222.13236,0.81456
6220.20362,0.81420
6218.27487,0.81312
6216.34613,0.81196
6214.41738,0.81162
6212.48863,0.81146
6210.55989,0.80835
6208.63114,0.80181
6206.70240,0.79551
6204.77365,0.79122
6202.84491,0.78791
6200.91616,0.78450
6198.98742,0.78021
6197.05867,0.77592
6195.12993,0.77308
6193.20118,0.77236
6191.27244,0.77391
6189.34369,0.77544
6187.41495,0.77528
6185.48620,0.77535
6183.55746,0.77691
6181.62871,0.77844
6179.69996,0.77893
6177.77122,0.77959
6175.84247,0.78068
6173.91373,0.78076
6171.98498,0.77980
6170.05624,0.77868
6168.12749,0.77758
6166.19875,0.77685
6164.27000,0.77607
6162.34126,0.77428
6160.41251,0.77229
6158.48377,0.77094
6156.55502,0.76984
6154.62628,0.76816
6152.69753,0.76547
6150.76878,0.76322
6148.84004,0.76247
6146.91129,0.76156
6144.98255,0.75912
6143.05380,0.75618
6141.12506,0.75490
6139.19631,0.75568
6137.26757,0.75599
6135.33882,0.75426
6133.41008,0.75251
6131.48133,0.75205
6129.55259,0.75168
6127.62384,0.75078
6125.69510,0.74979
6123.76635,0.74775
6121.83761,0.74301
6119.90886,0.73674
6117.98011,0.73129
6116.05137,0.72720
6114.12262,0.72363
6112.19388,0.71876
6110.26513,0.71211
6108.33639,0.70475
6106.40764,0.69686
6104.47890,0.68858
6102.55015,0.68028
6100.62141,0.67233
6098.69266,0.66566
6096.76392,0.65935
6094.83517,0.65143
6092.90643,0.64291
6090.97768,0.63630
6089.04893,0.63162
6087.12019,0.62703
6085.19144,0.62162
6083.26270,0.61605
6081.33395,0.61117
6079.40521,0.60632
6077.47646,0.60002
6075.54772,0.59210
6073.61897,0.58365
6071.69023,0.57597
6069.76148,0.56919
6067.83274,0.56145
6065.90399,0.55187
6063.97525,0.54210
6062.04650,0.53333
6060.11776,0.52490
6058.18901,0.51750
6056.26026,0.51259
6054.33152,0.50883
6052.40277,0.50437
6050.47403,0.49956
6048.54528,0.49545
6046.61654,0.49282
6044.68779,0.49075
6042.75905,0.48800
6040.83030,0.48552
6038.90156,0.48341
6036.97281,0.47983
6035.04407,0.47449
6033.11532,0.46917
6031.18658,0.46653
6029.25783,0.46741
6027.32909,0.46931
6025.40034,0.46957
6023.47159,0.46798
6021.54285,0.46681
6019.61410,0.46701
6017.68536,0.46754
6015.75661,0.46949
6013.82787,0.47375
6011.89912,0.47899
6009.97038,0.48361
6008.04163,0.48727
6006.11289,0.49249
6004.18414,0.50068
6002.25540,0.50936
6000.32665,0.51688
5998.39791,0.52367
5996.46916,0.52982
5994.54041,0.53529
5992.61167,0.54070
5990.68292,0.54615
5988.75418,0.55079
5986.82543,0.55448
5984.89669,0.55821
5982.96794,0.56245
5981.03920,0.56570
5979.11045,0.56717
5977.18171,0.56843
5975.25296,0.57025
5973.32422,0.57205
5971.39547,0.57351
5969.46673,0.57459
5967.53798,0.57555
5965.60924,0.57677
5963.68049,0.57822
5961.75174,0.57922
5959.82300,0.57891
5957.89425,0.57720
5955.96551,0.57428
5954.03676,0.57034
5952.10802,0.56645
5950.17927,0.56341
5948.25053,0.56057
5946.32178,0.55819
5944.39304,0.55716
5942.46429,0.55720
5940.53555,0.55788
5938.60680,0.55923
5936.67806,0.56154
5934.74931,0.56519
5932.82057,0.56983
5930.89182,0.57407
5928.96307,0.57715
5927.03433,0.58035
5925.10558,0.58515
5923.17684,0.59099
5921.24809,0.59606
5919.31935,0.59952
5917.39060,0.60183
5915.46186,0.60344
5913.53311,0.60530
5911.60437,0.60830
5909.67562,0.61055
5907.74688,0.61055
5905.81813,0.61041
5903.88939,0.61125
5901.96064,0.61207
5900.03189,0.61257
5898.10315,0.61258
5896.17440,0.61212
5894.24566,0.61166
5892.31691,0.61189
5890.38817,0.61368
5888.45942,0.61607
5886.53068,0.61726
5884.60193,0.61736
5882.67319,0.61745
5880.74444,0.61789
5878.81570,0.61831
5876.88695,0.61896
5874.95821,0.62104
5873.02946,0.62388
5871.10072,0.62564
5869.17197,0.62685
5867.24322,0.62886
5865.31448,0.63151
5863.38573,0.63371
5861.45699,0.63451
5859.52824,0.63441
5857.59950,0.63462
5855.67075,0.63531
5853.74201,0.63541
5851.81326,0.63450
5849.88452,0.63361
5847.95577,0.63313
5846.02703,0.63208
5844.09828,0.62988
5842.16954,0.62751
5840.24079,0.62601
5838.31205,0.62479
5836.38330,0.62332
5834.45455,0.62166
5832.52581,0.61914
5830.59706,0.61515
5828.66832,0.61034
5826.73957,0.60640
5824.81083,0.60427
5822.88208,0.60213
5820.95334,0.59801
5819.02459,0.59286
5817.09585,0.58803
5815.16710,0.58453
5813.23836,0.58341
5811.30961,0.58312
5809.38087,0.58131
5807.45212,0.57886
5805.52337,0.57764
5803.59463,0.57685
5801.66588,0.57501
5799.73714,0.57339
5797.80839,0.57381
5795.87965,0.57488
5793.95090,0.57516
5792.02216,0.57598
5790.09341,0.57805
5788.16467,0.58060
5786.23592,0.58387
5784.30718,0.58838
5782.37843,0.59345
5780.44969,0.59822
5778.52094,0.60252
5776.59220,0.60605
5774.66345,0.60825
5772.73470,0.60958
5770.80596,0.61125
5768.87721,0.61333
5766.94847,0.61531
5765.01972,0.61765
5763.09098,0.61995
5761.16223,0.62104
5759.23349,0.62091
5757.30474,0.61995
5755.37600,0.61905
5753.44725,0.61959
5751.51851,0.62126
5749.58976,0.62262
5747.66102,0.62323
5745.73227,0.62371
5743.80352,0.62458
5741.87478,0.62573
5739.94603,0.62702
5738.01729,0.62845
5736.08854,0.63026
5734.15980,0.63261
5732.23105,0.63483
5730.30231,0.63618
5728.37356,0.63705
5726.44482,0.63877
5724.51607,0.64122
5722.58733,0.64297
5720.65858,0.64398
5718.72984,0.64502
5716.80109,0.64610
5714.87235,0.64743
5712.94360,0.64949
5711.01485,0.65198
5709.08611,0.65423
5707.15736,0.65622
5705.22862,0.65749
5703.29987,0.65784
5701.37113,0.65861
5699.44238,0.66029
5697.51364,0.66196
5695.58489,0.66343
5693.65615,0.66516
5691.72740,0.66687
5689.79866,0.66782
5687.86991,0.66825
5685.94117,0.66917
5684.01242,0.67066
5682.08368,0.67179
5680.15493,0.67217
5678.22618,0.67266
5676.29744,0.67327
5674.36869,0.67341
5672.43995,0.67387
5670.51120,0.67484
5668.58246,0.67539
5666.65371,0.67542
5664.72497,0.67560
5662.79622,0.67592
5660.86748,0.67534
5658.93873,0.67425
5657.00999,0.67459
5655.08124,0.67594
5653.15250,0.67627
5651.22375,0.67589
5649.29500,0.67644
5647.36626,0.67731
5645.43751,0.67759
5643.50877,0.67816
5641.58002,0.67970
5639.65128,0.68238
5637.72253,0.68563
5635.79379,0.68801
5633.86504,0.68938
5631.93630,0.69080
5630.00755,0.69262
5628.07881,0.69467
5626.15006,0.69702
5624.22132,0.69935
5622.29257,0.70126
5620.36383,0.70257
5618.43508,0.70305
5616.50633,0.70307
5614.57759,0.70356
5612.64884,0.70488
5610.72010,0.70672
5608.79135,0.70842
5606.86261,0.70943
5604.93386,0.71017
5603.00512,0.71112
5601.07637,0.71140
5599.14763,0.71081
5597.21888,0.71031
5595.29014,0.70986
5593.36139,0.70907
5591.43265,0.70801
5589.50390,0.70662
5587.57516,0.70527
5585.64641,0.70393
5583.71766,0.70211
5581.78892,0.70075
5579.86017,0.70076
5577.93143,0.70131
5576.00268,0.70099
5574.07394,0.69981
5572.14519,0.69883
5570.21645,0.69793
5568.28770,0.69654
5566.35896,0.69492
5564.43021,0.69319
5562.50147,0.69119
5560.57272,0.68926
5558.64398,0.68840
5556.71523,0.68918
5554.78648,0.69070
5552.85774,0.69164
5550.92899,0.69192
5549.00025,0.69207
5547.07150,0.69201
5545.14276,0.69188
5543.21401,0.69219
5541.28527,0.69318
5539.35652,0.69446
5537.42778,0.69483
5535.49903,0.69395
5533.57029,0.69301
5531.64154,0.69283
5529.71280,0.69313
5527.78405,0.69402
5525.85531,0.69582
5523.92656,0.69767
5521.99781,0.69879
5520.06907,0.69973
5518.14032,0.70070
5516.21158,0.70108
5514.28283,0.70121
5512.35409,0.70204
5510.42534,0.70381
5508.49660,0.70623
5506.56785,0.70818
5504.63911,0.70879
5502.71036,0.70876
5500.78162,0.70872
5498.85287,0.70846
5496.92413,0.70770
5494.99538,0.70700
5493.06664,0.70701
5491.13789,0.70696
5489.20914,0.70546
5487.28040,0.70261
5485.35165,0.70019
5483.42291,0.69953
5481.49416,0.70000
5479.56542,0.70035
5477.63667,0.70022
5475.70793,0.69954
5473.77918,0.69842
5471.85044,0.69768
5469.92169,0.69786
5467.99295,0.69860
5466.06420,0.69963
5464.13546,0.70100
5462.20671,0.70236
5460.27796,0.70369
5458.34922,0.70561
5456.42047,0.70795
5454.49173,0.71019
5452.56298,0.71243
5450.63424,0.71430
5448.70549,0.71565
5446.77675,0.71701
5444.84800,0.71832
5442.91926,0.71941
5440.99051,0.72044
5439.06177,0.72147
5437.13302,0.72279
5435.20428,0.72443
5433.27553,0.72551
5431.34679,0.72562
5429.41804,0.72568
5427.48929,0.72598
5425.56055,0.72614
5423.63180,0.72631
5421.70306,0.72680
5419.77431,0.72807
5417.84557,0.72969
5415.91682,0.72997
5413.98808,0.72905
5412.05933,0.72890
5410.13059,0.72954
5408.20184,0.72966
5406.27310,0.72902
5404.34435,0.72800
5402.41561,0.72737
5400.48686,0.72754
5398.55811,0.72779
5396.62937,0.72769
5394.70062,0.72773
5392.77188,0.72809
5390.84313,0.72802
5388.91439,0.72769
5386.98564,0.72808
5385.05690,0.72866
5383.12815,0.72882
5381.19941,0.72877
5379.27066,0.72878
5377.34192,0.72903
5375.41317,0.72912
5373.48443,0.72892
5371.55568,0.72901
5369.62694,0.72901
5367.69819,0.72803
5365.76944,0.72682
5363.84070,0.72696
5361.91195,0.72817
5359.98321,0.72884
5358.05446,0.72829
5356.12572,0.72694
5354.19697,0.72562
5352.26823,0.72503
5350.33948,0.72490
5348.41074,0.72456
5346.48199,0.72447
5344.55325,0.72512
5342.62450,0.72600
5340.69576,0.72706
5338.76701,0.72852
5336.83827,0.72940
5334.90952,0.72939
5332.98077,0.72957
5331.05203,0.73024
5329.12328,0.73091
5327.19454,0.73127
5325.26579,0.73142
5323.33705,0.73193
5321.40830,0.73284
5319.47956,0.73366
5317.55081,0.73400
5315.62207,0.73409
5313.69332,0.73474
5311.76458,0.73576
5309.83583,0.73591
5307.90709,0.73495
5305.97834,0.73432
5304.04959,0.73478
5302.12085,0.73486
5300.19210,0.73356
5298.26336,0.73206
5296.33461,0.73145
5294.40587,0.73111
5292.47712,0.73032
5290.54838,0.72970
5288.61963,0.72918
5286.69089,0.72801
5284.76214,0.72694
5282.83340,0.72639
5280.90465,0.72566
5278.97591,0.72525
5277.04716,0.72541
5275.11842,0.72493
5273.18967,0.72312
5271.26092,0.72064
5269.33218,0.71846
5267.40343,0.71713
5265.47469,0.71684
5263.54594,0.71708
5261.61720,0.71708
5259.68845,0.71686
5257.75971,0.71678
5255.83096,0.71699
5253.90222,0.71784
5251.97347,0.71937
5250.04473,0.72096
5248.11598,0.72188
5246.18724,0.72199
5244.25849,0.72205
5242.32975,0.72262
5240.40100,0.72316
5238.47225,0.72308
5236.54351,0.72303
5234.61476,0.72352
5232.68602,0.72400
5230.75727,0.72412
5228.82853,0.72415
5226.89978,0.72441
5224.97104,0.72474
5223.04229,0.72462
5221.11355,0.72421
5219.18480,0.72413
5217.25606,0.72446
5215.32731,0.72497
5213.39857,0.72525
5211.46982,0.72483
5209.54107,0.72390
5207.61233,0.72310
5205.68358,0.72256
5203.75484,0.72222
5201.82609,0.72230
5199.89735,0.72294
5197.96860,0.72378
5196.03986,0.72428
5194.11111,0.72429
5192.18237,0.72408
5190.25362,0.72377
5188.32488,0.72312
5186.39613,0.72209
5184.46739,0.72147
5182.53864,0.72118
5180.60990,0.71997
5178.68115,0.71838
5176.75240,0.71826
5174.82366,0.71929
5172.89491,0.71970
5170.96617,0.71889
5169.03742,0.71775
5167.10868,0.71708
5165.17993,0.71683
5163.25119,0.71688
5161.32244,0.71679
5159.39370,0.71614
5157.46495,0.71534
5155.53621,0.71452
5153.60746,0.71363
5151.67872,0.71302
5149.74997,0.71268
5147.82123,0.71225
5145.89248,0.71118
5143.96373,0.70910
5142.03499,0.70634
5140.10624,0.70376
5138.17750,0.70184
5136.24875,0.70028
5134.32001,0.69858
5132.39126,0.69667
5130.46252,0.69472
5128.53377,0.69262
5126.60503,0.69038
5124.67628,0.68832
5122.74754,0.68630
5120.81879,0.68394
5118.89005,0.68179
5116.96130,0.68095
5115.03255,0.68089
5113.10381,0.68021
5111.17506,0.67917
5109.24632,0.67869
5107.31757,0.67884
5105.38883,0.67922
5103.46008,0.67938
5101.53134,0.67924
5099.60259,0.67895
5097.67385,0.67818
5095.74510,0.67675
5093.81636,0.67562
5091.88761,0.67563
5089.95887,0.67675
5088.03012,0.67892
5086.10138,0.68200
5084.17263,0.68545
5082.24388,0.68911
5080.31514,0.69316
5078.38639,0.69760
5076.45765,0.70228
5074.52890,0.70628
5072.60016,0.70886
5070.67141,0.71107
5068.74267,0.71368
5066.81392,0.71622
5064.88518,0.71829
5062.95643,0.72022
5061.02769,0.72235
5059.09894,0.72403
5057.17020,0.72516
5055.24145,0.72640
5053.31270,0.72734
5051.38396,0.72738
5049.45521,0.72692
5047.52647,0.72683
5045.59772,0.72733
5043.66898,0.72787
5041.74023,0.72829
5039.81149,0.72860
5037.88274,0.72844
5035.95400,0.72760
5034.02525,0.72651
5032.09651,0.72589
5030.16776,0.72575
5028.23902,0.72566
5026.31027,0.72559
5024.38153,0.72554
5022.45278,0.72524
5020.52403,0.72454
5018.59529,0.72377
5016.66654,0.72366
5014.73780,0.72410
5012.80905,0.72428
5010.88031,0.72419
5008.95156,0.72443
5007.02282,0.72483
5005.09407,0.72506
5003.16533,0.72531
5001.23658,0.72560
4999.30784,0.72564
4997.37909,0.72527
4995.45035,0.72450
4993.52160,0.72399
4991.59286,0.72432
4989.66411,0.72491
4987.73536,0.72515
4985.80662,0.72554
4983.87787,0.72644
4981.94913,0.72737
4980.02038,0.72811
4978.09164,0.72865
4976.16289,0.72888
4974.23415,0.72910
4972.30540,0.72954
4970.37666,0.72983
4968.44791,0.72962
4966.51917,0.72913
4964.59042,0.72881
4962.66168,0.72879
4960.73293,0.72903
4958.80418,0.72914
4956.87544,0.72858
4954.94669,0.72715
4953.01795,0.72514
4951.08920,0.72338
4949.16046,0.72233
4947.23171,0.72140
4945.30297,0.72043
4943.37422,0.72007
4941.44548,0.72031
4939.51673,0.72035
4937.58799,0.71961
4935.65924,0.71853
4933.73050,0.71809
4931.80175,0.71823
4929.87301,0.71818
4927.94426,0.71790
4926.01551,0.71792
4924.08677,0.71820
4922.15802,0.71859
4920.22928,0.71890
4918.30053,0.71874
4916.37179,0.71822
4914.44304,0.71764
4912.51430,0.71699
4910.58555,0.71630
4908.65681,0.71556
4906.72806,0.71469
4904.79932,0.71386
4902.87057,0.71323
4900.94183,0.71286
4899.01308,0.71287
4897.08434,0.71310
4895.15559,0.71272
4893.22684,0.71156
4891.29810,0.71076
4889.36935,0.71079
4887.44061,0.71076
4885.51186,0.71001
4883.58312,0.70894
4881.65437,0.70812
4879.72563,0.70741
4877.79688,0.70665
4875.86814,0.70623
4873.93939,0.70639
4872.01065,0.70693
4870.08190,0.70697
4868.15316,0.70552
4866.22441,0.70306
4864.29566,0.70125
4862.36692,0.70107
4860.43817,0.70140
4858.50943,0.70103
4856.58068,0.70046
4854.65194,0.70031
4852.72319,0.70001
4850.79445,0.69923
4848.86570,0.69860
4846.93696,0.69804
4845.00821,0.69662
4843.07947,0.69450
4841.15072,0.69218
4839.22198,0.68948
4837.29323,0.68610
4835.36449,0.68208
4833.43574,0.67825
4831.50699,0.67483
4829.57825,0.67109
4827.64950,0.66707
4825.72076,0.66294
4823.79201,0.65862
4821.86327,0.65455
4819.93452,0.65080
4818.00578,0.64725
4816.07703,0.64429
4814.14829,0.64185
4812.21954,0.63963
4810.29080,0.63805
4808.36205,0.63697
4806.43331,0.63561
4804.50456,0.63396
4802.57582,0.63186
4800.64707,0.62917
4798.71832,0.62702
4796.78958,0.62610
4794.86083,0.62592
4792.93209,0.62630
4791.00334,0.62696
4789.07460,0.62752
4787.14585,0.62844
4785.21711,0.63012
4783.28836,0.63228
4781.35962,0.63466
4779.43087,0.63722
4777.50213,0.63958
4775.57338,0.64127
4773.64464,0.64264
4771.71589,0.64460
4769.78714,0.64710
4767.85840,0.64901
4765.92965,0.64991
4764.00091,0.65070
4762.07216,0.65163
4760.14342,0.65135
4758.21467,0.64928
4756.28593,0.64656
4754.35718,0.64361
4752.42844,0.64004
4750.49969,0.63593
4748.57095,0.63132
4746.64220,0.62634
4744.71346,0.62124
4742.78471,0.61608
4740.85597,0.61106
4738.92722,0.60624
4736.99847,0.60084
4735.06973,0.59375
4733.14098,0.58468
4731.21224,0.57419
4729.28349,0.56286
4727.35475,0.55114
4725.42600,0.53921
4723.49726,0.52760
4721.56851,0.51760
4719.63977,0.51024
4717.71102,0.50576
4715.78228,0.50363
4713.85353,0.50291
4711.92479,0.50267
4709.99604,0.50153
4708.06729,0.49860
4706.13855,0.49396
4704.20980,0.48746
4702.28106,0.47884
4700.35231,0.46871
4698.42357,0.45805
4696.49482,0.44750
4694.56608,0.43780
4692.63733,0.42990
4690.70859,0.42446
4688.77984,0.42184
4686.85110,0.42223
4684.92235,0.42534
4682.99361,0.43041
4681.06486,0.43724
4679.13612,0.44600
4677.20737,0.45622
4675.27862,0.46707
4673.34988,0.47767
4671.42113,0.48711
4669.49239,0.49510
4667.56364,0.50183
4665.63490,0.50725
4663.70615,0.51118
4661.77741,0.51357
4659.84866,0.51461
4657.91992,0.51496
4655.99117,0.51518
4654.06243,0.51502
4652.13368,0.51389
4650.20494,0.51118
4648.27619,0.50619
4646.34745,0.49899
4644.41870,0.49064
4642.48995,0.48223
4640.56121,0.47445
4638.63246,0.46793
4636.70372,0.46348
4634.77497,0.46166
4632.84623,0.46282
4630.91748,0.46715
4628.98874,0.47427
4627.05999,0.48337
4625.13125,0.49365
4623.20250,0.50451
4621.27376,0.51573
4619.34501,0.52679
4617.41627,0.53710
4615.48752,0.54632
4613.55877,0.55403
4611.63003,0.56064
4609.70128,0.56674
4607.77254,0.57137
4605.84379,0.57374
4603.91505,0.57426
4601.98630,0.57308
4600.05756,0.56982
4598.12881,0.56458
4596.20007,0.55783
4594.27132,0.55025
4592.34258,0.54312
4590.41383,0.53761
4588.48509,0.53340
4586.55634,0.52939
4584.62760,0.52469
4582.69885,0.51865
4580.77010,0.51225
4578.84136,0.50835
4576.91261,0.50922
4574.98387,0.51513
4573.05512,0.52524
4571.12638,0.53807
4569.19763,0.55171
4567.26889,0.56469
4565.34014,0.57618
4563.41140,0.58584
4561.48265,0.59331
4559.55391,0.59847
4557.62516,0.60193
4555.69642,0.60417
4553.76767,0.60517
4551.83893,0.60516
4549.91018,0.60482
4547.98143,0.60462
4546.05269,0.60456
4544.12394,0.60461
4542.19520,0.60469
4540.26645,0.60450
4538.33771,0.60384
4536.40896,0.60268
4534.48022,0.60125
4532.55147,0.59997
4530.62273,0.59879
4528.69398,0.59728
4526.76524,0.59505
4524.83649,0.59212
4522.90775,0.58915
4520.97900,0.58639
4519.05025,0.58366
4517.12151,0.58098
4515.19276,0.57796
4513.26402,0.57386
4511.33527,0.56861
4509.40653,0.56259
4507.47778,0.55590
4505.54904,0.54839
4503.62029,0.53993
4501.69155,0.53061
4499.76280,0.52055
4497.83406,0.50955
4495.90531,0.49742
4493.97657,0.48543
4492.04782,0.47578
4490.11908,0.46922
4488.19033,0.46506
4486.26158,0.46272
4484.33284,0.46173
4482.40409,0.46112
4480.47535,0.45981
4478.54660,0.45776
4476.61786,0.45561
4474.68911,0.45330
4472.76037,0.45012
4470.83162,0.44579
4468.90288,0.44026
4466.97413,0.43336
4465.04539,0.42538
4463.11664,0.41718
4461.18790,0.40943
4459.25915,0.40226
4457.33041,0.39578
4455.40166,0.38987
4453.47291,0.38398
4451.54417,0.37784
4449.61542,0.37163
4447.68668,0.36531
4445.75793,0.35885
4443.82919,0.35215
4441.90044,0.34498
4439.97170,0.33774
4438.04295,0.33135
4436.11421,0.32622
4434.18546,0.32211
4432.25672,0.31843
4430.32797,0.31500
4428.39923,0.31216
4426.47048,0.31029
4424.54173,0.30996
4422.61299,0.31164
4420.68424,0.31504
4418.75550,0.31947
4416.82675,0.32463
4414.89801,0.33005
4412.96926,0.33475
4411.04052,0.33798
4409.11177,0.33985
4407.18303,0.34104
4405.25428,0.34209
4403.32554,0.34319
4401.39679,0.34483
4399.46805,0.34775
4397.53930,0.35194
4395.61056,0.35675
4393.68181,0.36128
4391.75306,0.36461
4389.82432,0.36658
4387.89557,0.36758
4385.96683,0.36796
4384.03808,0.36779
4382.10934,0.36665
4380.18059,0.36422
4378.25185,0.36058
4376.32310,0.35620
4374.39436,0.35166
4372.46561,0.34719
4370.53687,0.34318
4368.60812,0.34012
4366.67938,0.33809
4364.75063,0.33694
4362.82189,0.33653
4360.89314,0.33674
4358.96439,0.33733
4357.03565,0.33793
4355.10690,0.33854
4353.17816,0.33934
4351.24941,0.34046
4349.32067,0.34256
4347.39192,0.34562
4345.46318,0.34858
4343.53443,0.35096
4341.60569,0.35264
4339.67694,0.35377
4337.74820,0.35494
4335.81945,0.35610
4333.89071,0.35727
4331.96196,0.35882
4330.03321,0.36065
4328.10447,0.36244
4326.17572,0.36416
4324.24698,0.36593
4322.31823,0.36793
4320.38949,0.37026
4318.46074,0.37245
4316.53200,0.37415
4314.60325,0.37571
4312.67451,0.37707
4310.74576,0.37761
4308.81702,0.37696
4306.88827,0.37532
4304.95953,0.37313
4303.03078,0.37046
4301.10204,0.36718
4299.17329,0.36382
4297.24454,0.36092
4295.31580,0.35819
4293.38705,0.35534
4291.45831,0.35300
4289.52956,0.35186
4287.60082,0.35165
4285.67207,0.35150
4283.74333,0.35096
4281.81458,0.34993
4279.88584,0.34808
4277.95709,0.34554
4276.02835,0.34308
4274.09960,0.34109
4272.17086,0.33934
4270.24211,0.33779
4268.31336,0.33707
4266.38462,0.33764
4264.45587,0.33901
4262.52713,0.34055
4260.59838,0.34246
4258.66964,0.34504
4256.74089,0.34753
4254.81215,0.34904
4252.88340,0.34990
4250.95466,0.35087
4249.02591,0.35203
4247.09717,0.35313
4245.16842,0.35404
4243.23968,0.35466
4241.31093,0.35482
4239.38219,0.35454
4237.45344,0.35408
4235.52469,0.35340
4233.59595,0.35224
4231.66720,0.35078
4229.73846,0.34932
4227.80971,0.34776
4225.88097,0.34634
4223.95222,0.34569
4222.02348,0.34575
4220.09473,0.34609
4218.16599,0.34666
4216.23724,0.34703
4214.30850,0.34661
4212.37975,0.34572
4210.45101,0.34509
4208.52226,0.34510
4206.59352,0.34583
4204.66477,0.34727
4202.73602,0.34911
4200.80728,0.35099
4198.87853,0.35318
4196.94979,0.35568
4195.02104,0.35781
4193.09230,0.35919
4191.16355,0.35980
4189.23481,0.35940
4187.30606,0.35812
4185.37732,0.35623
4183.44857,0.35310
4181.51983,0.34859
4179.59108,0.34428
4177.66234,0.34215
4175.73359,0.34297
4173.80484,0.34625
4171.87610,0.35149
4169.94735,0.35811
4168.01861,0.36509
4166.08986,0.37196
4164.16112,0.37864
4162.23237,0.38464
4160.30363,0.38973
4158.37488,0.39426
4156.44614,0.39829
4154.51739,0.40164
4152.58865,0.40462
4150.65990,0.40731
4148.73116,0.40964
4146.80241,0.41182
4144.87367,0.41363
4142.94492,0.41449
4141.01617,0.41415
4139.08743,0.41283
4137.15868,0.41100
4135.22994,0.40883
4133.30119,0.40621
4131.37245,0.40333
4129.44370,0.40048
4127.51496,0.39747
4125.58621,0.39395
4123.65747,0.38989
4121.72872,0.38558
4119.79998,0.38111
4117.87123,0.37621
4115.94249,0.37079
4114.01374,0.36482
4112.08500,0.35826
4110.15625,0.35112
4108.22750,0.34311
4106.29876,0.33415
4104.37001,0.32479
4102.44127,0.31525
4100.51252,0.30483
4098.58378,0.29294
4096.65503,0.27979
4094.72629,0.26617
4092.79754,0.25396
4090.86880,0.24584
4088.94005,0.24335
4087.01131,0.24600
4085.08256,0.25203
4083.15382,0.25989
4081.22507,0.26906
4079.29632,0.27915
4077.36758,0.28949
4075.43883,0.29951
4073.51009,0.30853
4071.58134,0.31639
4069.65260,0.32359
4067.72385,0.33030
4065.79511,0.33615
4063.86636,0.34127
4061.93762,0.34601
4060.00887,0.35012
4058.08013,0.35337
4056.15138,0.35605
4054.22264,0.35832
4052.29389,0.36033
4050.36515,0.36244
4048.43640,0.36491
4046.50765,0.36787
4044.57891,0.37135
4042.65016,0.37517
4040.72142,0.37876
4038.79267,0.38144
4036.86393,0.38320
4034.93518,0.38456
4033.00644,0.38563
4031.07769,0.38624
4029.14895,0.38641
4027.22020,0.38655
4025.29146,0.38722
4023.36271,0.38879
4021.43397,0.39112
4019.50522,0.39345
4017.57648,0.39520
4015.64773,0.39656
4013.71898,0.39770
4011.79024,0.39886
4009.86149,0.40052
4007.93275,0.40276
4006.00400,0.40546
4004.07526,0.40887
4002.14651,0.41292
4000.21777,0.41699
3998.28902,0.42086
3996.36028,0.42454
3994.43153,0.42773
3992.50279,0.43046
3990.57404,0.43299
3988.64530,0.43527
3986.71655,0.43720
3984.78780,0.43882
3982.85906,0.44033
3980.93031,0.44193
3979.00157,0.44342
3977.07282,0.44443
3975.14408,0.44510
3973.21533,0.44592
3971.28659,0.44689
3969.35784,0.44744
3967.42910,0.44719
3965.50035,0.44620
3963.57161,0.44467
3961.64286,0.44284
3959.71412,0.44092
3957.78537,0.43908
3955.85663,0.43731
3953.92788,0.43542
3951.99913,0.43332
3950.07039,0.43100
3948.14164,0.42838
3946.21290,0.42568
3944.28415,0.42333
3942.35541,0.42136
3940.42666,0.41977
3938.49792,0.41870
3936.56917,0.41798
3934.64043,0.41722
3932.71168,0.41649
3930.78294,0.41581
3928.85419,0.41482
3926.92545,0.41340
3924.99670,0.41218
3923.06795,0.41188
3921.13921,0.41232
3919.21046,0.41307
3917.28172,0.41401
3915.35297,0.41507
3913.42423,0.41652
3911.49548,0.41858
3909.56674,0.42120
3907.63799,0.42416
3905.70925,0.42734
3903.78050,0.43079
3901.85176,0.43413
3899.92301,0.43680
3897.99427,0.43858
3896.06552,0.43992
3894.13678,0.44158
3892.20803,0.44407
3890.27928,0.44707
3888.35054,0.45018
3886.42179,0.45374
3884.49305,0.45750
3882.56430,0.46066
3880.63556,0.46342
3878.70681,0.46611
3876.77807,0.46865
3874.84932,0.47095
3872.92058,0.47279
3870.99183,0.47441
3869.06309,0.47598
3867.13434,0.47726
3865.20560,0.47846
3863.27685,0.47991
3861.34811,0.48137
3859.41936,0.48239
3857.49061,0.48297
3855.56187,0.48355
3853.63312,0.48463
3851.70438,0.48625
3849.77563,0.48828
3847.84689,0.49044
3845.91814,0.49209
3843.98940,0.49310
3842.06065,0.49360
3840.13191,0.49348
3838.20316,0.49266
3836.27442,0.49119
3834.34567,0.48957
3832.41693,0.48836
3830.48818,0.48789
3828.55943,0.48839
3826.63069,0.48963
3824.70194,0.49072
3822.77320,0.49090
3820.84445,0.48966
3818.91571,0.48698
3816.98696,0.48332
3815.05822,0.47889
3813.12947,0.47450
3811.20073,0.47092
3809.27198,0.46822
3807.34324,0.46647
3805.41449,0.46651
3803.48575,0.46949
3801.55700,0.47562
3799.62826,0.48308
3797.69951,0.49028
3795.77076,0.49723
3793.84202,0.50339
3791.91327,0.50830
3789.98453,0.51214
3788.05578,0.51479
3786.12704,0.51623
3784.19829,0.51649
3782.26955,0.51567
3780.34080,0.51407
3778.41206,0.51155
3776.48331,0.50821
3774.55457,0.50452
3772.62582,0.50057
3770.69708,0.49648
3768.76833,0.49252
3766.83959,0.48855
3764.91084,0.48410
3762.98209,0.47914
3761.05335,0.47431
3759.12460,0.47044
3757.19586,0.46863
3755.26711,0.46999
3753.33837,0.47533
3751.40962,0.48436
3749.48088,0.49433
3747.55213,0.50197
3745.62339,0.50700
3743.69464,0.50984
3741.76590,0.50986
3739.83715,0.50724
3737.90841,0.50248
3735.97966,0.49647
3734.05091,0.49127
3732.12217,0.48891
3730.19342,0.49015
3728.26468,0.49452
3726.33593,0.50085
3724.40719,0.50738
3722.47844,0.51270
3720.54970,0.51619
3718.62095,0.51748
3716.69221,0.51701
3714.76346,0.51566
3712.83472,0.51345
3710.90597,0.51002
3708.97723,0.50559
3707.04848,0.50031
3705.11974,0.49426
3703.19099,0.48758
3701.26224,0.48012
3699.33350,0.47184
3697.40475,0.46237
3695.47601,0.45115
3693.54726,0.43812
3691.61852,0.42433
3689.68977,0.41249
3687.76103,0.40628
3685.83228,0.40745
3683.90354,0.41512
3681.97479,0.42791
3680.04605,0.44370
3678.11730,0.46008
3676.18856,0.47649
3674.25981,0.49135
3672.33107,0.50238
3670.40232,0.51057
3668.47357,0.51661
3666.54483,0.52039
3664.61608,0.52260
3662.68734,0.52378
3660.75859,0.52398
3658.82985,0.52324
3656.90110,0.52191
3654.97236,0.52013
3653.04361,0.51798
3651.11487,0.51545
3649.18612,0.51230
3647.25738,0.50860
3645.32863,0.50470
3643.39989,0.50094
3641.47114,0.49734
3639.54239,0.49379
3637.61365,0.49044
3635.68490,0.48738
3633.75616,0.48459
3631.82741,0.48195
3629.89867,0.47907
3627.96992,0.47557
3626.04118,0.47162
3624.11243,0.46752
3622.18369,0.46347
3620.25494,0.45964
3618.32620,0.45578
3616.39745,0.45163
3614.46871,0.44739
3612.53996,0.44331
3610.61122,0.43900
3608.68247,0.43418
3606.75372,0.42930
3604.82498,0.42458
3602.89623,0.41955
3600.96749,0.41384
3599.03874,0.40768
3597.11000,0.40120
3595.18125,0.39415
3593.25251,0.38666
3591.32376,0.37935
3589.39502,0.37207
3587.46627,0.36405
3585.53753,0.35548
3583.60878,0.34734
3581.68004,0.33980
3579.75129,0.33241
3577.82254,0.32520
3575.89380,0.31850
3573.96505,0.31243
3572.03631,0.30681
3570.10756,0.30135
3568.17882,0.29622
3566.25007,0.29155
3564.32133,0.28719
3562.39258,0.28328
3560.46384,0.27996
3558.53509,0.27702
3556.60635,0.27451
3554.67760,0.27267
3552.74886,0.27125
3550.82011,0.27009
3548.89137,0.26948
3546.96262,0.26939
3545.03387,0.26931
3543.10513,0.26929
3541.17638,0.26997
3539.24764,0.27126
3537.31889,0.27262
3535.39015,0.27407
3533.46140,0.27578
3531.53266,0.27779
3529.60391,0.28012
3527.67517,0.28290
3525.74642,0.28606
3523.81768,0.28921
3521.88893,0.29227
3519.96019,0.29543
3518.03144,0.29845
3516.10270,0.30131
3514.17395,0.30423
3512.24520,0.30708
3510.31646,0.30987
3508.38771,0.31273
3506.45897,0.31551
3504.53022,0.31821
3502.60148,0.32087
3500.67273,0.32312
3498.74399,0.32492
3496.81524,0.32660
3494.88650,0.32821
3492.95775,0.32957
3491.02901,0.33053
3489.10026,0.33127
3487.17152,0.33197
3485.24277,0.33222
3483.31402,0.33175
3481.38528,0.33096
3479.45653,0.33006
3477.52779,0.32872
3475.59904,0.32672
3473.67030,0.32437
3471.74155,0.32174
3469.81281,0.31840
3467.88406,0.31413
3465.95532,0.30906
3464.02657,0.30319
3462.09783,0.29680
3460.16908,0.29022
3458.24034,0.28344
3456.31159,0.27639
3454.38285,0.26874
3452.45410,0.26028
3450.52535,0.25140
3448.59661,0.24233
3446.66786,0.23286
3444.73912,0.22336
3442.81037,0.21432
3440.88163,0.20563
3438.95288,0.19722
3437.02414,0.18916
3435.09539,0.18183
3433.16665,0.17575
3431.23790,0.17116
3429.30916,0.16805
3427.38041,0.16629
3425.45167,0.16580
3423.52292,0.16619
3421.59418,0.16671
3419.66543,0.16692
3417.73668,0.16675
3415.80794,0.16664
3413.87919,0.16758
3411.95045,0.17043
3410.02170,0.17589
3408.09296,0.18496
3406.16421,0.19788
3404.23547,0.21357
3402.30672,0.23047
3400.37798,0.24714
3398.44923,0.26233
3396.52049,0.27539
3394.59174,0.28644
3392.66300,0.29591
3390.73425,0.30381
3388.80550,0.31010
3386.87676,0.31527
3384.94801,0.31999
3383.01927,0.32458
3381.09052,0.32862
3379.16178,0.33183
3377.23303,0.33460
3375.30429,0.33682
3373.37554,0.33807
3371.44680,0.33881
3369.51805,0.33942
3367.58931,0.33968
3365.66056,0.33955
3363.73182,0.33894
3361.80307,0.33770
3359.87433,0.33603
3357.94558,0.33416
3356.01683,0.33188
3354.08809,0.32902
3352.15934,0.32575
3350.23060,0.32201
3348.30185,0.31757
3346.37311,0.31265
3344.44436,0.30785
3342.51562,0.30333
3340.58687,0.29878
3338.65813,0.29417
3336.72938,0.28989
3334.80064,0.28616
3332.87189,0.28327
3330.94315,0.28165
3329.01440,0.28168
3327.08566,0.28353
3325.15691,0.28705
3323.22816,0.29211
3321.29942,0.29834
3319.37067,0.30470
3317.44193,0.31008
3315.51318,0.31405
3313.58444,0.31668
3311.65569,0.31805
3309.72695,0.31846
3307.79820,0.31809
3305.86946,0.31678
3303.94071,0.31465
3302.01197,0.31230
3300.08322,0.31011
3298.15448,0.30809
3296.22573,0.30626
3294.29698,0.30492
3292.36824,0.30432
3290.43949,0.30450
3288.51075,0.30564
3286.58200,0.30784
3284.65326,0.31086
3282.72451,0.31419
3280.79577,0.31746
3278.86702,0.32057
3276.93828,0.32319
3275.00953,0.32512
3273.08079,0.32653
3271.15204,0.32741
3269.22330,0.32788
3267.29455,0.32834
3265.36581,0.32872
3263.43706,0.32870
3261.50831,0.32841
3259.57957,0.32813
3257.65082,0.32792
3255.72208,0.32755
3253.79333,0.32694
3251.86459,0.32634
3249.93584,0.32574
3248.00710,0.32485
3246.07835,0.32381
3244.14961,0.32266
3242.22086,0.32113
3240.29212,0.31936
3238.36337,0.31780
3236.43463,0.31648
3234.50588,0.31492
3232.57713,0.31299
3230.64839,0.31111
3228.71964,0.30964
3226.79090,0.30860
3224.86215,0.30808
3222.93341,0.30825
3221.00466,0.30893
3219.07592,0.30999
3217.14717,0.31172
3215.21843,0.31412
3213.28968,0.31655
3211.36094,0.31848
3209.43219,0.31985
3207.50345,0.32060
3205.57470,0.32072
3203.64596,0.32038
3201.71721,0.31961
3199.78846,0.31832
3197.85972,0.31663
3195.93097,0.31480
3194.00223,0.31305
3192.07348,0.31158
3190.14474,0.31050
3188.21599,0.30978
3186.28725,0.30903
3184.35850,0.30789
3182.42976,0.30675
3180.50101,0.30587
3178.57227,0.30504
3176.64352,0.30428
3174.71478,0.30360
3172.78603,0.30275
3170.85729,0.30162
3168.92854,0.30025
3166.99979,0.29869
3165.07105,0.29714
3163.14230,0.29564
3161.21356,0.29404
3159.28481,0.29217
3157.35607,0.29006
3155.42732,0.28808
3153.49858,0.28621
3151.56983,0.28385
3149.64109,0.28095
3147.71234,0.27802
3145.78360,0.27497
3143.85485,0.27143
3141.92611,0.26757
3139.99736,0.26354
3138.06861,0.25910
3136.13987,0.25387
3134.21112,0.24782
3132.28238,0.24151
3130.35363,0.23550
3128.42489,0.23069
3126.49614,0.22841
3124.56740,0.22892
3122.63865,0.23094
3120.70991,0.23284
3118.78116,0.23333
3116.85242,0.23160
3114.92367,0.22769
3112.99493,0.22240
3111.06618,0.21646
3109.13744,0.20993
3107.20869,0.20308
3105.27994,0.19684
3103.35120,0.19237
3101.42245,0.19051
3099.49371,0.19139
3097.56496,0.19416
3095.63622,0.19700
3093.70747,0.19800
3091.77873,0.19605
3089.84998,0.19111
3087.92124,0.18429
3085.99249,0.17734
3084.06375,0.17149
3082.13500,0.16733
3080.20626,0.16504
3078.27751,0.16428
3076.34877,0.16407
3074.42002,0.16336
3072.49127,0.16180
3070.56253,0.15973
3068.63378,0.15789
3066.70504,0.15698
3064.77629,0.15691
3062.84755,0.15698
3060.91880,0.15629
3058.99006,0.15435
3057.06131,0.15202
3055.13257,0.15124
3053.20382,0.15391
3051.27508,0.16107
3049.34633,0.17236
3047.41759,0.18565
3045.48884,0.19820
3043.56009,0.20811
3041.63135,0.21461
3039.70260,0.21776
3037.77386,0.21846
3035.84511,0.21758
3033.91637,0.21524
3031.98762,0.21149
3030.05888,0.20668
3028.13013,0.20096
3026.20139,0.19423
3024.27264,0.18646
3022.34390,0.17780
3020.41515,0.16832
3018.48641,0.15828
3016.55766,0.14845
3014.62892,0.13946
3012.70017,0.13116
3010.77142,0.12312
3008.84268,0.11518
3006.91393,0.10743
3004.98519,0.09984
3003.05644,0.09257
3001.12770,0.08577
2999.19895,0.07930
2997.27021,0.07308
2995.34146,0.06703
2993.41272,0.06099
2991.48397,0.05503
2989.55523,0.04944
2987.62648,0.04451
2985.69774,0.04067
2983.76899,0.03807
2981.84025,0.03653
2979.91150,0.03564
2977.98275,0.03482
2976.05401,0.03396
2974.12526,0.03348
2972.19652,0.03341
2970.26777,0.03365
2968.33903,0.03415
2966.41028,0.03458
2964.48154,0.03475
2962.55279,0.03498
2960.62405,0.03583
2958.69530,0.03761
2956.76656,0.04014
2954.83781,0.04330
2952.90907,0.04705
2950.98032,0.05113
2949.05157,0.05528
2947.12283,0.05942
2945.19408,0.06353
2943.26534,0.06741
2941.33659,0.07064
2939.40785,0.07303
2937.47910,0.07470
2935.55036,0.07585
2933.62161,0.07678
2931.69287,0.07764
2929.76412,0.07830
2927.83538,0.07873
2925.90663,0.07878
2923.97789,0.07830
2922.04914,0.07770
2920.12040,0.07743
2918.19165,0.07709
2916.26290,0.07580
2914.33416,0.07325
2912.40541,0.06947
2910.47667,0.06444
2908.54792,0.05880
2906.61918,0.05397
2904.69043,0.05109
2902.76169,0.05087
2900.83294,0.05356
2898.90420,0.05854
2896.97545,0.06474
2895.04671,0.07132
2893.11796,0.07748
2891.18922,0.08286
2889.26047,0.08760
2887.33172,0.09184
2885.40298,0.09570
2883.47423,0.09939
2881.54549,0.10283
2879.61674,0.10579
2877.68800,0.10830
2875.75925,0.11044
2873.83051,0.11222
2871.90176,0.11362
2869.97302,0.11467
2868.04427,0.11559
2866.11553,0.11669
2864.18678,0.11771
2862.25804,0.11825
2860.32929,0.11874
2858.40055,0.11973
2856.47180,0.12127
2854.54305,0.12350
2852.61431,0.12682
2850.68556,0.13173
2848.75682,0.13846
2846.82807,0.14634
2844.89933,0.15436
2842.97058,0.16188
2841.04184,0.16861
2839.11309,0.17444
2837.18435,0.17949
2835.25560,0.18400
2833.32686,0.18826
2831.39811,0.19270
2829.46937,0.19791
2827.54062,0.20419
2825.61188,0.21124
2823.68313,0.21844
2821.75438,0.22528
2819.82564,0.23138
2817.89689,0.23608
2815.96815,0.23912
2814.03940,0.24101
2812.11066,0.24225
2810.18191,0.24298
2808.25317,0.24351
2806.32442,0.24442
2804.39568,0.24641
2802.46693,0.24954
2800.53819,0.25313
2798.60944,0.25653
2796.68070,0.25928
2794.75195,0.26130
2792.82320,0.26280
2790.89446,0.26373
2788.96571,0.26424
2787.03697,0.26467
2785.10822,0.26507
2783.17948,0.26526
2781.25073,0.26531
2779.32199,0.26549
2777.39324,0.26606
2775.46450,0.26692
2773.53575,0.26780
2771.60701,0.26883
2769.67826,0.27063
2767.74952,0.27385
2765.82077,0.27821
2763.89203,0.28281
2761.96328,0.28731
2760.03453,0.29168
2758.10579,0.29567
2756.17704,0.29888
2754.24830,0.30122
2752.31955,0.30284
2750.39081,0.30377
2748.46206,0.30398
2746.53332,0.30362
2744.60457,0.30314
2742.67583,0.30306
2740.74708,0.30395
2738.81834,0.30635
2736.88959,0.31026
2734.96085,0.31514
2733.03210,0.32044
2731.10336,0.32589
2729.17461,0.33109
2727.24586,0.33567
2725.31712,0.33939
2723.38837,0.34208
2721.45963,0.34386
2719.53088,0.34478
2717.60214,0.34475
2715.67339,0.34417
2713.74465,0.34389
2711.81590,0.34462
2709.88716,0.34661
2707.95841,0.34967
2706.02967,0.35338
2704.10092,0.35716
2702.17218,0.36035
2700.24343,0.36278
2698.31468,0.36459
2696.38594,0.36581
2694.45719,0.36665
2692.52845,0.36738
2690.59970,0.36769
2688.67096,0.36730
2686.74221,0.36666
2684.81347,0.36633
2682.88472,0.36639
2680.95598,0.36671
2679.02723,0.36712
2677.09849,0.36742
2675.16974,0.36737
2673.24100,0.36679
2671.31225,0.36580
2669.38351,0.36474
2667.45476,0.36380
2665.52601,0.36297
2663.59727,0.36217
2661.66852,0.36126
2659.73978,0.36012
2657.81103,0.35874
2655.88229,0.35696
2653.95354,0.35467
2652.02480,0.35206
2650.09605,0.34930
2648.16731,0.34619
2646.23856,0.34270
2644.30982,0.33916
2642.38107,0.33575
2640.45233,0.33228
2638.52358,0.32841
2636.59484,0.32393
2634.66609,0.31922
2632.73734,0.31503
2630.80860,0.31229
2628.87985,0.31161
2626.95111,0.31259
2625.02236,0.31433
2623.09362,0.31640
2621.16487,0.31877
2619.23613,0.32134
2617.30738,0.32379
2615.37864,0.32590
2613.44989,0.32769
2611.52115,0.32928
2609.59240,0.33039
2607.66366,0.33064
2605.73491,0.33029
2603.80616,0.32981
2601.87742,0.32914
2599.94867,0.32810
2598.01993,0.32644
2596.09118,0.32361
2594.16244,0.31964
2592.23369,0.31514
2590.30495,0.31048
2588.37620,0.30570
2586.44746,0.30107
2584.51871,0.29703
2582.58997,0.29381
2580.66122,0.29145
2578.73248,0.29017
2576.80373,0.29008
2574.87499,0.29082
2572.94624,0.29185
2571.01749,0.29285
2569.08875,0.29367
2567.16000,0.29408
2565.23126,0.29376
2563.30251,0.29266
2561.37377,0.29114
2559.44502,0.28937
2557.51628,0.28731
2555.58753,0.28523
2553.65879,0.28342
2551.73004,0.28191
2549.80130,0.28054
2547.87255,0.27929
2545.94381,0.27828
2544.01506,0.27750
2542.08631,0.27684
2540.15757,0.27643
2538.22882,0.27654
2536.30008,0.27722
2534.37133,0.27840
2532.44259,0.28006
2530.51384,0.28223
2528.58510,0.28489
2526.65635,0.28788
2524.72761,0.29105
2522.79886,0.29422
2520.87012,0.29722
2518.94137,0.30007
2517.01263,0.30294
2515.08388,0.30600
2513.15514,0.30921
2511.22639,0.31236
2509.29764,0.31548
2507.36890,0.31872
2505.44015,0.32208
2503.51141,0.32528
2501.58266,0.32777
2499.65392,0.32944
2497.72517,0.33071
2495.79643,0.33173
2493.86768,0.33245
2491.93894,0.33314
2490.01019,0.33399
2488.08145,0.33494
2486.15270,0.33610
2484.22396,0.33792
2482.29521,0.34067
2480.36647,0.34404
2478.43772,0.34760
2476.50897,0.35128
2474.58023,0.35488
2472.65148,0.35784
2470.72274,0.35992
2468.79399,0.36133
2466.86525,0.36224
2464.93650,0.36270
2463.00776,0.36288
2461.07901,0.36290
2459.15027,0.36272
2457.22152,0.36217
2455.29278,0.36125
2453.36403,0.36005
2451.43529,0.35870
2449.50654,0.35732
2447.57779,0.35566
2445.64905,0.35324
2443.72030,0.34975
2441.79156,0.34504
2439.86281,0.33916
2437.93407,0.33218
2436.00532,0.32429
2434.07658,0.31635
2432.14783,0.30933
2430.21909,0.30335
2428.29034,0.29800
2426.36160,0.29273
2424.43285,0.28729
2422.50411,0.28164
2420.57536,0.27575
2418.64662,0.26986
2416.71787,0.26426
2414.78912,0.25902
2412.86038,0.25427
2410.93163,0.25020
2409.00289,0.24671
2407.07414,0.24352
2405.14540,0.24031
2403.21665,0.23682
2401.28791,0.23324
2399.35916,0.22998
2397.43042,0.22721
2395.50167,0.22488
2393.57293,0.22299
2391.64418,0.22149
2389.71544,0.22027
2387.78669,0.21938
2385.85795,0.21880
2383.92920,0.21840
2382.00045,0.21825
2380.07171,0.21850
2378.14296,0.21923
2376.21422,0.22057
2374.28547,0.22257
2372.35673,0.22531
2370.42798,0.22880
2368.49924,0.23286
2366.57049,0.23766
2364.64175,0.24357
2362.71300,0.25035
2360.78426,0.25735
2358.85551,0.26439
2356.92677,0.27165
2354.99802,0.27905
2353.06927,0.28626
2351.14053,0.29299
2349.21178,0.29921
2347.28304,0.30515
2345.35429,0.31097
2343.42555,0.31655
2341.49680,0.32168
2339.56806,0.32623
2337.63931,0.33024
2335.71057,0.33356
2333.78182,0.33578
2331.85308,0.33650
2329.92433,0.33565
2327.99559,0.33388
2326.06684,0.33274
2324.13810,0.33377
2322.20935,0.33745
2320.28060,0.34306
2318.35186,0.34913
2316.42311,0.35421
2314.49437,0.35742
2312.56562,0.35861
2310.63688,0.35816
2308.70813,0.35659
2306.77939,0.35423
2304.85064,0.35116
2302.92190,0.34718
2300.99315,0.34201
2299.06441,0.33579
2297.13566,0.32881
2295.20692,0.32108
2293.27817,0.31286
2291.34943,0.30471
2289.42068,0.29718
2287.49193,0.29091
2285.56319,0.28664
2283.63444,0.28468
2281.70570,0.28472
2279.77695,0.28644
2277.84821,0.28966
2275.91946,0.29383
2273.99072,0.29804
2272.06197,0.30146
2270.13323,0.30375
2268.20448,0.30486
2266.27574,0.30493
2264.34699,0.30428
2262.41825,0.30325
2260.48950,0.30184
2258.56075,0.29974
2256.63201,0.29687
2254.70326,0.29343
2252.77452,0.28973
2250.84577,0.28611
2248.91703,0.28285
2246.98828,0.28018
2245.05954,0.27825
2243.13079,0.27701
2241.20205,0.27636
2239.27330,0.27602
2237.34456,0.27557
2235.41581,0.27486
2233.48707,0.27415
2231.55832,0.27366
2229.62958,0.27337
2227.70083,0.27333
2225.77208,0.27367
2223.84334,0.27424
2221.91459,0.27474
2219.98585,0.27491
2218.05710,0.27455
2216.12836,0.27354
2214.19961,0.27212
2212.27087,0.27078
2210.34212,0.27009
2208.41338,0.27092
2206.48463,0.27358
2204.55589,0.27736
2202.62714,0.28125
2200.69840,0.28455
2198.76965,0.28705
2196.84090,0.28899
2194.91216,0.29052
2192.98341,0.29181
2191.05467,0.29315
2189.12592,0.29507
2187.19718,0.29783
2185.26843,0.30107
2183.33969,0.30426
2181.41094,0.30685
2179.48220,0.30855
2177.55345,0.30945
2175.62471,0.30958
2173.69596,0.30890
2171.76722,0.30761
2169.83847,0.30585
2167.90973,0.30356
2165.98098,0.30095
2164.05223,0.29822
2162.12349,0.29531
2160.19474,0.29218
2158.26600,0.28882
2156.33725,0.28527
2154.40851,0.28199
2152.47976,0.27932
2150.55102,0.27708
2148.62227,0.27520
2146.69353,0.27363
2144.76478,0.27207
2142.83604,0.27032
2140.90729,0.26855
2138.97855,0.26706
2137.04980,0.26591
2135.12106,0.26479
2133.19231,0.26349
2131.26356,0.26216
2129.33482,0.26092
2127.40607,0.25962
2125.47733,0.25810
2123.54858,0.25635
2121.61984,0.25445
2119.69109,0.25265
2117.76235,0.25106
2115.83360,0.24971
2113.90486,0.24875
2111.97611,0.24817
2110.04737,0.24794
2108.11862,0.24805
2106.18988,0.24825
2104.26113,0.24817
2102.33238,0.24785
2100.40364,0.24768
2098.47489,0.24777
2096.54615,0.24815
2094.61740,0.24896
2092.68866,0.24999
2090.75991,0.25088
2088.83117,0.25178
2086.90242,0.25289
2084.97368,0.25415
2083.04493,0.25557
2081.11619,0.25713
2079.18744,0.25868
2077.25870,0.26022
2075.32995,0.26161
2073.40121,0.26252
2071.47246,0.26278
2069.54371,0.26247
2067.61497,0.26185
2065.68622,0.26116
2063.75748,0.26059
2061.82873,0.26042
2059.89999,0.26078
2057.97124,0.26166
2056.04250,0.26335
2054.11375,0.26591
2052.18501,0.26893
2050.25626,0.27184
2048.32752,0.27417
2046.39877,0.27554
2044.47003,0.27560
2042.54128,0.27434
2040.61254,0.27222
2038.68379,0.26950
2036.75504,0.26625
2034.82630,0.26291
2032.89755,0.26009
2030.96881,0.25813
2029.04006,0.25743
2027.11132,0.25809
2025.18257,0.25942
2023.25383,0.26045
2021.32508,0.26066
2019.39634,0.26019
2017.46759,0.25942
2015.53885,0.25892
2013.61010,0.25920
2011.68136,0.26025
2009.75261,0.26166
2007.82386,0.26269
2005.89512,0.26251
2003.96637,0.26112
2002.03763,0.25895
2000.10888,0.25613
1998.18014,0.25271
1996.25139,0.24898
1994.32265,0.24524
1992.39390,0.24170
1990.46516,0.23878
1988.53641,0.23680
1986.60767,0.23564
1984.67892,0.23458
1982.75018,0.23284
1980.82143,0.23021
1978.89269,0.22676
1976.96394,0.22250
1975.03519,0.21735
1973.10645,0.21138
1971.17770,0.20481
1969.24896,0.19749
1967.32021,0.18912
1965.39147,0.18002
1963.46272,0.17086
1961.53398,0.16181
1959.60523,0.15303
1957.67649,0.14496
1955.74774,0.13806
1953.81900,0.13316
1951.89025,0.13171
1949.96151,0.13464
1948.03276,0.14130
1946.10402,0.15007
1944.17527,0.15977
1942.24652,0.16977
1940.31778,0.17949
1938.38903,0.18862
1936.46029,0.19721
1934.53154,0.20534
1932.60280,0.21301
1930.67405,0.22021
1928.74531,0.22706
1926.81656,0.23357
1924.88782,0.23964
1922.95907,0.24500
1921.03033,0.24942
1919.10158,0.25307
1917.17284,0.25612
1915.24409,0.25845
1913.31534,0.25999
1911.38660,0.26073
1909.45785,0.26057
1907.52911,0.25963
1905.60036,0.25806
1903.67162,0.25593
1901.74287,0.25330
1899.81413,0.25043
1897.88538,0.24779
1895.95664,0.24560
1894.02789,0.24355
1892.09915,0.24128
1890.17040,0.23866
1888.24166,0.23564
1886.31291,0.23260
1884.38417,0.23024
1882.45542,0.22909
1880.52667,0.22922
1878.59793,0.23012
1876.66918,0.23081
1874.74044,0.23032
1872.81169,0.22844
1870.88295,0.22556
1868.95420,0.22195
1867.02546,0.21804
1865.09671,0.21429
1863.16797,0.21080
1861.23922,0.20741
1859.31048,0.20388
1857.38173,0.20009
1855.45299,0.19591
1853.52424,0.19096
1851.59549,0.18495
1849.66675,0.17806
1847.73800,0.17070
1845.80926,0.16320
1843.88051,0.15572
1841.95177,0.14872
1840.02302,0.14233
1838.09428,0.13633
1836.16553,0.13073
1834.23679,0.12540
1832.30804,0.12021
1830.37930,0.11536
1828.45055,0.11121
1826.52181,0.10806
1824.59306,0.10607
1822.66432,0.10536
1820.73557,0.10552
1818.80682,0.10578
1816.87808,0.10567
1814.94933,0.10510
1813.02059,0.10424
1811.09184,0.10330
1809.16310,0.10215
1807.23435,0.10070
1805.30561,0.09914
1803.37686,0.09771
1801.44812,0.09640
1799.51937,0.09506
1797.59063,0.09365
1795.66188,0.09226
1793.73314,0.09087
1791.80439,0.08920
1789.87565,0.08721
1787.94690,0.08515
1786.01815,0.08297
1784.08941,0.08048
1782.16066,0.07784
1780.23192,0.07532
1778.30317,0.07287
1776.37443,0.07044
1774.44568,0.06797
1772.51694,0.06522
1770.58819,0.06223
1768.65945,0.05910
1766.73070,0.05587
1764.80196,0.05268
1762.87321,0.04940
1760.94447,0.04585
1759.01572,0.04216
1757.08697,0.03834
1755.15823,0.03463
1753.22948,0.03113
1751.30074,0.02762
1749.37199,0.02435
1747.44325,0.02163
1745.51450,0.01943
1743.58576,0.01782
1741.65701,0.01678
1739.72827,0.01624
1737.79952,0.01618
1735.87078,0.01651
1733.94203,0.01710
1732.01329,0.01800
1730.08454,0.01941
1728.15580,0.02144
1726.22705,0.02370
1724.29830,0.02587
1722.36956,0.02796
1720.44081,0.02996
1718.51207,0.03185
1716.58332,0.03336
1714.65458,0.03377
1712.72583,0.03298
1710.79709,0.03158
1708.86834,0.03011
1706.93960,0.02902
1705.01085,0.02858
1703.08211,0.02879
1701.15336,0.02964
1699.22462,0.03102
1697.29587,0.03276
1695.36713,0.03479
1693.43838,0.03700
1691.50963,0.03922
1689.58089,0.04127
1687.65214,0.04273
1685.72340,0.04365
1683.79465,0.04452
1681.86591,0.04539
1679.93716,0.04594
1678.00842,0.04606
1676.07967,0.04626
1674.15093,0.04759
1672.22218,0.05046
1670.29344,0.05505
1668.36469,0.06122
1666.43595,0.06776
1664.50720,0.07401
1662.57845,0.08004
1660.64971,0.08544
1658.72096,0.08988
1656.79222,0.09343
1654.86347,0.09638
1652.93473,0.09927
1651.00598,0.10190
1649.07724,0.10409
1647.14849,0.10621
1645.21975,0.10826
1643.29100,0.11003
1641.36226,0.11164
1639.43351,0.11336
1637.50477,0.11537
1635.57602,0.11766
1633.64728,0.11981
1631.71853,0.12163
1629.78978,0.12319
1627.86104,0.12440
1625.93229,0.12507
1624.00355,0.12482
1622.07480,0.12291
1620.14606,0.11874
1618.21731,0.11195
1616.28857,0.10400
1614.35982,0.09933
1612.43108,0.09980
1610.50233,0.10399
1608.57359,0.11021
1606.64484,0.11727
1604.71610,0.12442
1602.78735,0.13103
1600.85861,0.13651
1598.92986,0.14009
1597.00111,0.14112
1595.07237,0.13967
1593.14362,0.13657
1591.21488,0.13224
1589.28613,0.12610
1587.35739,0.11725
1585.42864,0.10539
1583.49990,0.09144
1581.57115,0.07803
1579.64241,0.06873
1577.71366,0.06583
1575.78492,0.07010
1573.85617,0.07953
1571.92743,0.09090
1569.99868,0.10278
1568.06993,0.11313
1566.14119,0.12052
1564.21244,0.12540
1562.28370,0.12853
1560.35495,0.13044
1558.42621,0.13121
1556.49746,0.13141
1554.56872,0.13199
1552.63997,0.13304
1550.71123,0.13420
1548.78248,0.13501
1546.85374,0.13499
1544.92499,0.13410
1542.99625,0.13243
1541.06750,0.12964
1539.13876,0.12503
1537.21001,0.11908
1535.28126,0.11232
1533.35252,0.10495
1531.42377,0.09878
1529.49503,0.09512
1527.56628,0.09350
1525.63754,0.09338
1523.70879,0.09418
1521.78005,0.09487
1519.85130,0.09429
1517.92256,0.09163
1515.99381,0.08633
1514.06507,0.07831
1512.13632,0.06770
1510.20758,0.05536
1508.27883,0.04284
1506.35008,0.03287
1504.42134,0.03046
1502.49259,0.03684
1500.56385,0.05004
1498.63510,0.06698
1496.70636,0.08365
1494.77761,0.09599
1492.84887,0.10178
1490.92012,0.10146
1488.99138,0.09634
1487.06263,0.08827
1485.13389,0.07897
1483.20514,0.06921
1481.27640,0.05943
1479.34765,0.05038
1477.41891,0.04248
1475.49016,0.03590
1473.56141,0.03097
1471.63267,0.02786
1469.70392,0.02631
1467.77518,0.02563
1465.84643,0.02549
1463.91769,0.02606
1461.98894,0.02736
1460.06020,0.02901
1458.13145,0.03078
1456.20271,0.03260
1454.27396,0.03441
1452.34522,0.03656
1450.41647,0.03952
1448.48773,0.04316
1446.55898,0.04656
1444.63024,0.04894
1442.70149,0.05048
1440.77274,0.05153
1438.84400,0.05225
1436.91525,0.05261
1434.98651,0.05220
1433.05776,0.05070
1431.12902,0.04802
1429.20027,0.04418
1427.27153,0.03971
1425.34278,0.03537
1423.41404,0.03167
1421.48529,0.02867
1419.55655,0.02601
1417.62780,0.02329
1415.69906,0.02067
1413.77031,0.01876
1411.84156,0.01802
1409.91282,0.01822
1407.98407,0.01899
1406.05533,0.02021
1404.12658,0.02171
1402.19784,0.02327
1400.26909,0.02468
1398.34035,0.02551
1396.41160,0.02545
1394.48286,0.02470
1392.55411,0.02376
1390.62537,0.02314
1388.69662,0.02303
1386.76788,0.02326
1384.83913,0.02366
1382.91039,0.02404
1380.98164,0.02449
1379.05289,0.02526
1377.12415,0.02625
1375.19540,0.02735
1373.26666,0.02852
1371.33791,0.02945
1369.40917,0.02987
1367.48042,0.02963
1365.55168,0.02864
1363.62293,0.02717
1361.69419,0.02574
1359.76544,0.02482
1357.83670,0.02465
1355.90795,0.02526
1353.97921,0.02663
1352.05046,0.02840
1350.12172,0.03002
1348.19297,0.03109
1346.26422,0.03137
1344.33548,0.03077
1342.40673,0.02953
1340.47799,0.02792
1338.54924,0.02611
1336.62050,0.02434
1334.69175,0.02293
1332.76301,0.02190
1330.83426,0.02098
1328.90552,0.02018
1326.97677,0.01965
1325.04803,0.01919
1323.11928,0.01861
1321.19054,0.01791
1319.26179,0.01705
1317.33304,0.01621
1315.40430,0.01567
1313.47555,0.01535
1311.54681,0.01502
1309.61806,0.01474
1307.68932,0.01457
1305.76057,0.01446
1303.83183,0.01454
1301.90308,0.01493
1299.97434,0.01547
1298.04559,0.01591
1296.11685,0.01626
1294.18810,0.01695
1292.25936,0.01820
1290.33061,0.01986
1288.40187,0.02183
1286.47312,0.02401
1284.54437,0.02619
1282.61563,0.02850
1280.68688,0.03112
1278.75814,0.03380
1276.82939,0.03610
1274.90065,0.03782
1272.97190,0.03893
1271.04316,0.03952
1269.11441,0.03978
1267.18567,0.03976
1265.25692,0.03930
1263.32818,0.03844
1261.39943,0.03754
1259.47069,0.03675
1257.54194,0.03611
1255.61320,0.03579
1253.68445,0.03586
1251.75570,0.03630
1249.82696,0.03695
1247.89821,0.03734
1245.96947,0.03714
1244.04072,0.03665
1242.11198,0.03611
1240.18323,0.03540
1238.25449,0.03456
1236.32574,0.03389
1234.39700,0.03356
1232.46825,0.03373
1230.53951,0.03449
1228.61076,0.03552
1226.68202,0.03619
1224.75327,0.03635
1222.82452,0.03670
1220.89578,0.03828
1218.96703,0.04157
1217.03829,0.04599
1215.10954,0.05029
1213.18080,0.05360
1211.25205,0.05589
1209.32331,0.05763
1207.39456,0.05924
1205.46582,0.06093
1203.53707,0.06292
1201.60833,0.06547
1199.67958,0.06865
1197.75084,0.07226
1195.82209,0.07558
1193.89335,0.07789
1191.96460,0.07911
1190.03585,0.07919
1188.10711,0.07797
1186.17836,0.07524
1184.24962,0.07081
1182.32087,0.06511
1180.39213,0.05907
1178.46338,0.05352
1176.53464,0.04905
1174.60589,0.04603
1172.67715,0.04469
1170.74840,0.04486
1168.81966,0.04594
1166.89091,0.04701
1164.96217,0.04706
1163.03342,0.04563
1161.10467,0.04312
1159.17593,0.04011
1157.24718,0.03690
1155.31844,0.03364
1153.38969,0.03036
1151.46095,0.02720
1149.53220,0.02446
1147.60346,0.02234
1145.67471,0.02080
1143.74597,0.01967
1141.81722,0.01871
1139.88848,0.01786
1137.95973,0.01744
1136.03099,0.01787
1134.10224,0.01920
1132.17350,0.02120
1130.24475,0.02347
1128.31600,0.02539
1126.38726,0.02662
1124.45851,0.02731
1122.52977,0.02747
1120.60102,0.02709
1118.67228,0.02663
1116.74353,0.02635
1114.81479,0.02601
1112.88604,0.02549
1110.95730,0.02538
1109.02855,0.02614
1107.09981,0.02765
1105.17106,0.02933
1103.24232,0.03021
1101.31357,0.03009
1099.38483,0.02990
1097.45608,0.02993
1095.52733,0.02968
1093.59859,0.02924
1091.66984,0.02906
1089.74110,0.02903
1087.81235,0.02898
1085.88361,0.02937
1083.95486,0.03050
1082.02612,0.03231
1080.09737,0.03488
1078.16863,0.03854
1076.23988,0.04333
1074.31114,0.04860
1072.38239,0.05344
1070.45365,0.05754
1068.52490,0.06100
1066.59615,0.06381
1064.66741,0.06552
1062.73866,0.06583
1060.80992,0.06478
1058.88117,0.06232
1056.95243,0.05834
1055.02368,0.05305
1053.09494,0.04693
1051.16619,0.04084
1049.23745,0.03571
1047.30870,0.03204
1045.37996,0.03009
1043.45121,0.02968
1041.52247,0.03027
1039.59372,0.03110
1037.66498,0.03161
1035.73623,0.03196
1033.80748,0.03240
1031.87874,0.03242
1029.94999,0.03146
1028.02125,0.02963
1026.09250,0.02773
1024.16376,0.02657
1022.23501,0.02651
1020.30627,0.02732
1018.37752,0.02889
1016.44878,0.03250
1014.52003,0.04007
1012.59129,0.05181
1010.66254,0.06614
1008.73380,0.08100
1006.80505,0.09442
1004.87631,0.10504
1002.94756,0.11260
1001.01881,0.11755
999.09007,0.12036
997.16132,0.12118
995.23258,0.11995
993.30383,0.11656
991.37509,0.11124
989.44634,0.10505
987.51760,0.09910
985.58885,0.09343
983.66011,0.08763
981.73136,0.08189
979.80262,0.07692
977.87387,0.07330
975.94513,0.07132
974.01638,0.07106
972.08763,0.07242
970.15889,0.07515
968.23014,0.07923
966.30140,0.08416
964.37265,0.08855
962.44391,0.09099
960.51516,0.09052
958.58642,0.08684
956.65767,0.08066
954.72893,0.07346
952.80018,0.06684
950.87144,0.06212
948.94269,0.06022
947.01395,0.06108
945.08520,0.06302
943.15646,0.06381
941.22771,0.06250
939.29896,0.06029
937.37022,0.05938
935.44147,0.06051
933.51273,0.06282
931.58398,0.06586
929.65524,0.07001
927.72649,0.07545
925.79775,0.08172
923.86900,0.08773
921.94026,0.09221
920.01151,0.09480
918.08277,0.09610
916.15402,0.09647
914.22528,0.09566
912.29653,0.09352
910.36779,0.09050
908.43904,0.08782
906.51029,0.08697
904.58155,0.08820
902.65280,0.09057
900.72406,0.09343
898.79531,0.09633
896.86657,0.09900
894.93782,0.10166
893.00908,0.10394
891.08033,0.10463
889.15159,0.10266
887.22284,0.09744
885.29410,0.08882
883.36535,0.07745
881.43661,0.06471
879.50786,0.05262
877.57911,0.04312
875.65037,0.03655
873.72162,0.03312
871.79288,0.03529
869.86413,0.04550
867.93539,0.06134
866.00664,0.07645
864.07790,0.08594
862.14915,0.08872
860.22041,0.08617
858.29166,0.08078
856.36292,0.07525
854.43417,0.07141
852.50543,0.06961
850.57668,0.06922
848.64794,0.06953
846.71919,0.07054
844.79044,0.07284
842.86170,0.07694
840.93295,0.08255
839.00421,0.08874
837.07546,0.09472
835.14672,0.09990
833.21797,0.10386
831.28923,0.10665
829.36048,0.10832
827.43174,0.10862
825.50299,0.10774
823.57425,0.10666
821.64550,0.10639
819.71676,0.10704
817.78801,0.10798
815.85926,0.10858
813.93052,0.10905
812.00177,0.10990
810.07303,0.11095
808.14428,0.11200
806.21554,0.11353
804.28679,0.11556
802.35805,0.11607
800.42930,0.11107
798.50056,0.09898
796.57181,0.08590
794.64307,0.08151
792.71432,0.08884
790.78558,0.10258
788.85683,0.11616
786.92809,0.12649
784.99934,0.13297
783.07059,0.13569
781.14185,0.13471
779.21310,0.13061
777.28436,0.12538
775.35561,0.12138
773.42687,0.11970
771.49812,0.12030
769.56938,0.12247
767.64063,0.12515
765.71189,0.12733
763.78314,0.12805
761.85440,0.12721
759.92565,0.12564
757.99691,0.12357
756.06816,0.12059
754.13942,0.11631
752.21067,0.11044
750.28192,0.10260
748.35318,0.09218
746.42443,0.07893
744.49569,0.06341
742.56694,0.04743
740.63820,0.03378
738.70945,0.02446
736.78071,0.01986
734.85196,0.01917
732.92322,0.02117
730.99447,0.02460
729.06573,0.02833
727.13698,0.03135
725.20824,0.03327
723.27949,0.03579
721.35074,0.04255
719.42200,0.05514
717.49325,0.07109
715.56451,0.08637
713.63576,0.09814
711.70702,0.10505
709.77827,0.10764
707.84953,0.10846
705.92078,0.11058
703.99204,0.11662
702.06329,0.12792
700.13455,0.14324
698.20580,0.15942
696.27706,0.17306
694.34831,0.18214
692.41957,0.18702
690.49082,0.18913
688.56207,0.18917
686.63333,0.18716
684.70458,0.18305
682.77584,0.17787
680.84709,0.17476
678.91835,0.17675
676.98960,0.18293
675.06086,0.18975
673.13211,0.19528
671.20337,0.19952
669.27462,0.20275
667.34588,0.20559
665.41713,0.20831
663.48839,0.21014
661.55964,0.21099
659.63090,0.21183
657.70215,0.21280
655.77340,0.21374
653.84466,0.21498
651.91591,0.21631
649.98717,0.21723
648.05842,0.21790
646.12968,0.21874
644.20093,0.21991
642.27219,0.22100
640.34344,0.22087
638.41470,0.21752
636.48595,0.20761
634.55721,0.19049
632.62846,0.17811
630.69972,0.18524
628.77097,0.20526
626.84222,0.22077
624.91348,0.22750
622.98473,0.23065
621.05599,0.23366
619.12724,0.23636
617.19850,0.23747
615.26975,0.23783
613.34101,0.23881
611.41226,0.23962
609.48352,0.24018
607.55477,0.24166
605.62603,0.24292
603.69728,0.24213
601.76854,0.24076
599.83979,0.24077
