7497.03301,0.84177
7495.10426,0.84100
7493.17552,0.84623
7491.24677,0.84835
7489.31803,0.84543
7487.38928,0.84029
7485.46054,0.83483
7483.53179,0.83402
7481.60305,0.83701
7479.67430,0.83883
7477.74556,0.84074
7475.81681,0.84236
7473.88807,0.84257
7471.95932,0.84433
7470.03057,0.84670
7468.10183,0.84738
7466.17308,0.84802
7464.24434,0.84995
7462.31559,0.84997
7460.38685,0.84544
7458.45810,0.84203
7456.52936,0.84494
7454.60061,0.84611
7452.67187,0.83703
7450.74312,0.82583
7448.81438,0.82286
7446.88563,0.82591
7444.95689,0.83041
7443.02814,0.83539
7441.09940,0.83719
7439.17065,0.83396
7437.24190,0.83239
7435.31316,0.83539
7433.38441,0.83633
7431.45567,0.83374
7429.52692,0.83164
7427.59818,0.83009
7425.66943,0.82845
7423.74069,0.82919
7421.81194,0.83254
7419.88320,0.83206
7417.95445,0.82541
7416.02571,0.82130
7414.09696,0.82387
7412.16822,0.82736
7410.23947,0.82713
7408.31073,0.82316
7406.38198,0.81984
7404.45323,0.82066
7402.52449,0.82410
7400.59574,0.82695
7398.66700,0.82453
7396.73825,0.81664
7394.80951,0.80981
7392.88076,0.80727
7390.95202,0.80676
7389.02327,0.80616
7387.09453,0.80736
7385.16578,0.81365
7383.23704,0.82327
7381.30829,0.82847
7379.37955,0.82386
7377.45080,0.81361
7375.52205,0.80545
7373.59331,0.80407
7371.66456,0.80946
7369.73582,0.81633
7367.80707,0.81989
7365.87833,0.81972
7363.94958,0.81355
7362.02084,0.80109
7360.09209,0.79273
7358.16335,0.79327
7356.23460,0.79467
7354.30586,0.79384
7352.37711,0.79362
7350.44837,0.79518
7348.51962,0.79770
7346.59088,0.79997
7344.66213,0.80208
7342.73338,0.80052
7340.80464,0.79610
7338.87589,0.79545
7336.94715,0.79554
7335.01840,0.79335
7333.08966,0.79269
7331.16091,0.79250
7329.23217,0.78967
7327.30342,0.78550
7325.37468,0.78306
7323.44593,0.78628
7321.51719,0.79607
7319.58844,0.80340
7317.65970,0.80159
7315.73095,0.79622
7313.80221,0.79192
7311.87346,0.78898
7309.94471,0.78871
7308.01597,0.79116
7306.08722,0.79379
7304.15848,0.79455
7302.22973,0.79470
7300.30099,0.79657
7298.37224,0.79962
7296.44350,0.80145
7294.51475,0.80271
7292.58601,0.80419
7290.65726,0.80293
7288.72852,0.79831
7286.79977,0.79487
7284.87103,0.79687
7282.94228,0.80249
7281.01353,0.80425
7279.08479,0.79844
7277.15604,0.79106
7275.22730,0.78738
7273.29855,0.78647
7271.36981,0.78904
7269.44106,0.79312
7267.51232,0.79254
7265.58357,0.78835
7263.65483,0.78715
7261.72608,0.79237
7259.79734,0.79983
7257.86859,0.80172
7255.93985,0.79837
7254.01110,0.79535
7252.08236,0.79205
7250.15361,0.78766
7248.22486,0.78565
7246.29612,0.78515
7244.36737,0.78485
7242.43863,0.78728
7240.50988,0.79054
7238.58114,0.79002
7236.65239,0.78528
7234.72365,0.78034
7232.79490,0.77926
7230.86616,0.77956
7228.93741,0.77729
7227.00867,0.77495
7225.07992,0.77653
7223.15118,0.78274
7221.22243,0.78799
7219.29369,0.78669
7217.36494,0.78366
7215.43619,0.78245
7213.50745,0.78149
7211.57870,0.78149
7209.64996,0.78158
7207.72121,0.78258
7205.79247,0.78627
7203.86372,0.78829
7201.93498,0.78540
7200.00623,0.78100
7198.07749,0.77814
7196.14874,0.77678
7194.22000,0.77742
7192.29125,0.77941
7190.36251,0.78207
7188.43376,0.78563
7186.50501,0.78764
7184.57627,0.78675
7182.64752,0.78514
7180.71878,0.78472
7178.79003,0.78619
7176.86129,0.78911
7174.93254,0.78908
7173.00380,0.78316
7171.07505,0.77795
7169.14631,0.77849
7167.21756,0.78165
7165.28882,0.78518
7163.36007,0.78784
7161.43133,0.78786
7159.50258,0.78655
7157.57384,0.78595
7155.64509,0.78656
7153.71634,0.78720
7151.78760,0.78549
7149.85885,0.78262
7147.93011,0.78217
7146.00136,0.78353
7144.07262,0.78258
7142.14387,0.77974
7140.21513,0.78081
7138.28638,0.78540
7136.35764,0.78767
7134.42889,0.78862
7132.50015,0.79124
7130.57140,0.79306
7128.64266,0.79175
7126.71391,0.78955
7124.78516,0.78898
7122.85642,0.78909
7120.92767,0.78858
7118.99893,0.78610
7117.07018,0.78059
7115.14144,0.77525
7113.21269,0.77496
7111.28395,0.77971
7109.35520,0.78333
7107.42646,0.78137
7105.49771,0.77897
7103.56897,0.78114
7101.64022,0.78321
7099.71148,0.78243
7097.78273,0.78358
7095.85399,0.78785
7093.92524,0.78962
7091.99649,0.78573
7090.06775,0.78208
7088.13900,0.78333
7086.21026,0.78461
7084.28151,0.78258
7082.35277,0.78037
7080.42402,0.78012
7078.49528,0.78049
7076.56653,0.77915
7074.63779,0.77658
7072.70904,0.77603
7070.78030,0.77938
7068.85155,0.78514
7066.92281,0.78875
7064.99406,0.78637
7063.06532,0.78129
7061.13657,0.78086
7059.20782,0.78603
7057.27908,0.79182
7055.35033,0.79399
7053.42159,0.79074
7051.49284,0.78508
7049.56410,0.78284
7047.63535,0.78327
7045.70661,0.78144
7043.77786,0.77834
7041.84912,0.77647
7039.92037,0.77499
7037.99163,0.77431
7036.06288,0.77563
7034.13414,0.77741
7032.20539,0.77744
7030.27664,0.77760
7028.34790,0.77941
7026.41915,0.78045
7024.49041,0.78046
7022.56166,0.77896
7020.63292,0.77496
7018.70417,0.77279
7016.77543,0.77580
7014.84668,0.78034
7012.91794,0.78159
7010.98919,0.78065
7009.06045,0.78047
7007.13170,0.77995
7005.20296,0.77713
7003.27421,0.77410
7001.34547,0.77575
6999.41672,0.78019
6997.48797,0.78162
6995.55923,0.78207
6993.63048,0.78496
6991.70174,0.78812
6989.77299,0.78903
6987.84425,0.78738
6985.91550,0.78455
6983.98676,0.78392
6982.05801,0.78681
6980.12927,0.79003
6978.20052,0.79241
6976.27178,0.79553
6974.34303,0.79759
6972.41429,0.79587
6970.48554,0.79352
6968.55680,0.79378
6966.62805,0.79293
6964.69930,0.78958
6962.77056,0.78827
6960.84181,0.79068
6958.91307,0.79464
6956.98432,0.79787
6955.05558,0.79972
6953.12683,0.80049
6951.19809,0.79948
6949.26934,0.79781
6947.34060,0.79853
6945.41185,0.80025
6943.48311,0.80014
6941.55436,0.79996
6939.62562,0.79980
6937.69687,0.79768
6935.76812,0.79612
6933.83938,0.79773
6931.91063,0.79925
6929.98189,0.79750
6928.05314,0.79564
6926.12440,0.79746
6924.19565,0.80187
6922.26691,0.80533
6920.33816,0.80662
6918.40942,0.80758
6916.48067,0.80790
6914.55193,0.80576
6912.62318,0.80247
6910.69444,0.80022
6908.76569,0.79913
6906.83695,0.79812
6904.90820,0.79696
6902.97945,0.79700
6901.05071,0.79862
6899.12196,0.80038
6897.19322,0.80156
6895.26447,0.80181
6893.33573,0.80130
6891.40698,0.80157
6889.47824,0.80287
6887.54949,0.80465
6885.62075,0.80736
6883.69200,0.80963
6881.76326,0.80962
6879.83451,0.80906
6877.90577,0.80862
6875.97702,0.80687
6874.04828,0.80589
6872.11953,0.80725
6870.19078,0.80869
6868.26204,0.80887
6866.33329,0.80798
6864.40455,0.80721
6862.47580,0.80733
6860.54706,0.80742
6858.61831,0.80868
6856.68957,0.81141
6854.76082,0.81293
6852.83208,0.81477
6850.90333,0.81825
6848.97459,0.82049
6847.04584,0.82064
6845.11710,0.81915
6843.18835,0.81790
6841.25960,0.81776
6839.33086,0.81539
6837.40211,0.81187
6835.47337,0.81138
6833.54462,0.81393
6831.61588,0.81797
6829.68713,0.82015
6827.75839,0.81784
6825.82964,0.81489
6823.90090,0.81537
6821.97215,0.81842
6820.04341,0.82220
6818.11466,0.82482
6816.18592,0.82580
6814.25717,0.82714
6812.32843,0.82934
6810.39968,0.83134
6808.47093,0.83186
6806.54219,0.82933
6804.61344,0.82480
6802.68470,0.82211
6800.75595,0.82314
6798.82721,0.82540
6796.89846,0.82587
6794.96972,0.82587
6793.04097,0.82783
6791.11223,0.82996
6789.18348,0.82986
6787.25474,0.82892
6785.32599,0.82938
6783.39725,0.82963
6781.46850,0.82810
6779.53975,0.82696
6777.61101,0.82580
6775.68226,0.82329
6773.75352,0.82295
6771.82477,0.82645
6769.89603,0.82922
6767.96728,0.82831
6766.03854,0.82680
6764.10979,0.82611
6762.18105,0.82552
6760.25230,0.82616
6758.32356,0.82639
6756.39481,0.82466
6754.46607,0.82464
6752.53732,0.82697
6750.60858,0.82756
6748.67983,0.82726
6746.75108,0.82914
6744.82234,0.83206
6742.89359,0.83439
6740.96485,0.83476
6739.03610,0.83315
6737.10736,0.83152
6735.17861,0.83025
6733.24987,0.82993
6731.32112,0.83163
6729.39238,0.83448
6727.46363,0.83639
6725.53489,0.83569
6723.60614,0.83247
6721.67740,0.82861
6719.74865,0.82684
6717.81991,0.82923
6715.89116,0.83366
6713.96241,0.83457
6712.03367,0.83131
6710.10492,0.82903
6708.17618,0.83091
6706.24743,0.83499
6704.31869,0.83667
6702.38994,0.83460
6700.46120,0.83182
6698.53245,0.83081
6696.60371,0.83117
6694.67496,0.83170
6692.74622,0.83250
6690.81747,0.83427
6688.88873,0.83680
6686.95998,0.83747
6685.03123,0.83470
6683.10249,0.83184
6681.17374,0.83187
6679.24500,0.83377
6677.31625,0.83525
6675.38751,0.83601
6673.45876,0.83725
6671.53002,0.83891
6669.60127,0.83943
6667.67253,0.83762
6665.74378,0.83606
6663.81504,0.83772
6661.88629,0.83954
6659.95755,0.83792
6658.02880,0.83500
6656.10006,0.83454
6654.17131,0.83607
6652.24256,0.83706
6650.31382,0.83733
6648.38507,0.83778
6646.45633,0.83912
6644.52758,0.84079
6642.59884,0.84171
6640.67009,0.84212
6638.74135,0.84166
6636.81260,0.84086
6634.88386,0.84057
6632.95511,0.83958
6631.02637,0.83889
6629.09762,0.83945
6627.16888,0.83979
6625.24013,0.84030
6623.31139,0.84150
6621.38264,0.84292
6619.45389,0.84461
6617.52515,0.84491
6615.59640,0.84249
6613.66766,0.84015
6611.73891,0.84114
6609.81017,0.84330
6607.88142,0.84264
6605.95268,0.84036
6604.02393,0.83944
6602.09519,0.83974
6600.16644,0.84061
6598.23770,0.84189
6596.30895,0.84340
6594.38021,0.84450
6592.45146,0.84422
6590.52271,0.84458
6588.59397,0.84600
6586.66522,0.84367
6584.73648,0.83910
6582.80773,0.83872
6580.87899,0.84165
6578.95024,0.84395
6577.02150,0.84469
6575.09275,0.84500
6573.16401,0.84520
6571.23526,0.84336
6569.30652,0.84086
6567.37777,0.84034
6565.44903,0.84075
6563.52028,0.84093
6561.59154,0.84041
6559.66279,0.83931
6557.73404,0.83935
6555.80530,0.84181
6553.87655,0.84420
6551.94781,0.84350
6550.01906,0.84275
6548.09032,0.84487
6546.16157,0.84740
6544.23283,0.84912
6542.30408,0.85101
6540.37534,0.85165
6538.44659,0.84967
6536.51785,0.84733
6534.58910,0.84592
6532.66036,0.84346
6530.73161,0.84059
6528.80287,0.84067
6526.87412,0.84336
6524.94537,0.84595
6523.01663,0.84750
6521.08788,0.84752
6519.15914,0.84598
6517.23039,0.84451
6515.30165,0.84451
6513.37290,0.84531
6511.44416,0.84518
6509.51541,0.84435
6507.58667,0.84353
6505.65792,0.84262
6503.72918,0.84405
6501.80043,0.84816
6499.87169,0.84917
6497.94294,0.84573
6496.01419,0.84295
6494.08545,0.84238
6492.15670,0.84276
6490.22796,0.84395
6488.29921,0.84545
6486.37047,0.84596
6484.44172,0.84508
6482.51298,0.84445
6480.58423,0.84435
6478.65549,0.84265
6476.72674,0.84066
6474.79800,0.84152
6472.86925,0.84325
6470.94051,0.84282
6469.01176,0.84134
6467.08302,0.84074
6465.15427,0.84168
6463.22552,0.84336
6461.29678,0.84445
6459.36803,0.84460
6457.43929,0.84314
6455.51054,0.84009
6453.58180,0.83796
6451.65305,0.83858
6449.72431,0.84079
6447.79556,0.84241
6445.86682,0.84176
6443.93807,0.83895
6442.00933,0.83708
6440.08058,0.83782
6438.15184,0.83910
6436.22309,0.84008
6434.29434,0.84099
6432.36560,0.84150
6430.43685,0.84303
6428.50811,0.84509
6426.57936,0.84502
6424.65062,0.84411
6422.72187,0.84355
6420.79313,0.84095
6418.86438,0.83726
6416.93564,0.83617
6415.00689,0.83793
6413.07815,0.84117
6411.14940,0.84422
6409.22066,0.84471
6407.29191,0.84355
6405.36317,0.84396
6403.43442,0.84517
6401.50567,0.84384
6399.57693,0.84089
6397.64818,0.83971
6395.71944,0.83983
6393.79069,0.84037
6391.86195,0.84205
6389.93320,0.84320
6388.00446,0.84328
6386.07571,0.84422
6384.14697,0.84438
6382.21822,0.84211
6380.28948,0.84065
6378.36073,0.84121
6376.43199,0.84125
6374.50324,0.84028
6372.57450,0.84050
6370.64575,0.84295
6368.71700,0.84500
6366.78826,0.84472
6364.85951,0.84407
6362.93077,0.84375
6361.00202,0.84203
6359.07328,0.83940
6357.14453,0.83787
6355.21579,0.83770
6353.28704,0.83882
6351.35830,0.84098
6349.42955,0.84279
6347.50081,0.84375
6345.57206,0.84269
6343.64332,0.83886
6341.71457,0.83602
6339.78582,0.83702
6337.85708,0.83838
6335.92833,0.83701
6333.99959,0.83546
6332.07084,0.83607
6330.14210,0.83647
6328.21335,0.83489
6326.28461,0.83387
6324.35586,0.83436
6322.42712,0.83445
6320.49837,0.83439
6318.56963,0.83485
6316.64088,0.83539
6314.71214,0.83653
6312.78339,0.83824
6310.85465,0.83873
6308.92590,0.83709
6306.99715,0.83518
6305.06841,0.83457
6303.13966,0.83469
6301.21092,0.83543
6299.28217,0.83619
6297.35343,0.83512
6295.42468,0.83348
6293.49594,0.83376
6291.56719,0.83453
6289.63845,0.83521
6287.70970,0.83750
6285.78096,0.83978
6283.85221,0.83987
6281.92347,0.83812
6279.99472,0.83537
6278.06598,0.83318
6276.13723,0.83304
6274.20848,0.83416
6272.27974,0.83434
6270.35099,0.83320
6268.42225,0.83209
6266.49350,0.83153
6264.56476,0.83143
6262.63601,0.83091
6260.70727,0.82938
6258.77852,0.82889
6256.84978,0.83005
6254.92103,0.83051
6252.99229,0.82970
6251.06354,0.82863
6249.13480,0.82739
6247.20605,0.82593
6245.27730,0.82433
6243.34856,0.82212
6241.41981,0.82074
6239.49107,0.82158
6237.56232,0.82167
6235.63358,0.81936
6233.70483,0.81828
6231.77609,0.82016
6229.84734,0.82224
6227.91860,0.82153
6225.98985,0.81754
6224.06111,0.81383
6222.13236,0.81390
6220.20362,0.81570
6218.27487,0.81588
6216.34613,0.81372
6214.41738,0.81011
6212.48863,0.80713
6210.55989,0.80555
6208.63114,0.80356
6206.70240,0.79905
6204.77365,0.79271
6202.84491,0.78750
6200.91616,0.78393
6198.98742,0.78107
6197.05867,0.77870
6195.12993,0.77621
6193.20118,0.77398
6191.27244,0.77347
6189.34369,0.77527
6187.41495,0.77819
6185.48620,0.78082
6183.55746,0.78293
6181.62871,0.78439
6179.69996,0.78509
6177.77122,0.78454
6175.84247,0.78315
6173.91373,0.78324
6171.98498,0.78426
6170.05624,0.78325
6168.12749,0.78071
6166.19875,0.77852
6164.27000,0.77712
6162.34126,0.77660
6160.41251,0.77585
6158.48377,0.77424
6156.55502,0.77250
6154.62628,0.76998
6152.69753,0.76703
6150.76878,0.76527
6148.84004,0.76414
6146.91129,0.76274
6144.98255,0.76168
6143.05380,0.76142
6141.12506,0.76084
6139.19631,0.75906
6137.26757,0.75671
6135.33882,0.75458
6133.41008,0.75367
6131.48133,0.75383
6129.55259,0.75315
6127.62384,0.75140
6125.69510,0.74952
6123.76635,0.74705
6121.83761,0.74408
6119.90886,0.74142
6117.98011,0.73823
6116.05137,0.73324
6114.12262,0.72704
6112.19388,0.72052
6110.26513,0.71341
6108.33639,0.70573
6106.40764,0.69847
6104.47890,0.69173
6102.55015,0.68417
6100.62141,0.67494
6098.69266,0.66497
6096.76392,0.65585
6094.83517,0.64839
6092.90643,0.64223
6090.97768,0.63640
6089.04893,0.63090
6087.12019,0.62670
6085.19144,0.62340
6083.26270,0.61867
6081.33395,0.61188
6079.40521,0.60470
6077.47646,0.59795
6075.54772,0.59198
6073.61897,0.58609
6071.69023,0.57867
6069.76148,0.56957
6067.83274,0.55960
6065.90399,0.54973
6063.97525,0.54035
6062.04650,0.53174
6060.11776,0.52517
6058.18901,0.52092
6056.26026,0.51773
6054.33152,0.51440
6052.40277,0.51019
6050.47403,0.50487
6048.54528,0.49927
6046.61654,0.49433
6044.68779,0.49035
6042.75905,0.48729
6040.83030,0.48465
6038.90156,0.48208
6036.97281,0.48007
6035.04407,0.47937
6033.11532,0.47902
6031.18658,0.47640
6029.25783,0.47214
6027.32909,0.46920
6025.40034,0.46755
6023.47159,0.46560
6021.54285,0.46423
6019.61410,0.46558
6017.68536,0.46902
6015.75661,0.47255
6013.82787,0.47648
6011.89912,0.48141
6009.97038,0.48650
6008.04163,0.49172
6006.11289,0.49732
6004.18414,0.50259
6002.25540,0.50843
6000.32665,0.51639
5998.39791,0.52504
5996.46916,0.53247
5994.54041,0.53891
5992.61167,0.54475
5990.68292,0.54990
5988.75418,0.55414
5986.82543,0.55745
5984.89669,0.56100
5982.96794,0.56433
5981.03920,0.56505
5979.11045,0.56479
5977.18171,0.56739
5975.25296,0.57169
5973.32422,0.57440
5971.39547,0.57651
5969.46673,0.57961
5967.53798,0.58147
5965.60924,0.58084
5963.68049,0.57985
5961.75174,0.57992
5959.82300,0.57973
5957.89425,0.57800
5955.96551,0.57539
5954.03676,0.57231
5952.10802,0.56834
5950.17927,0.56391
5948.25053,0.56002
5946.32178,0.55729
5944.39304,0.55607
5942.46429,0.55665
5940.53555,0.55811
5938.60680,0.55927
5936.67806,0.56111
5934.74931,0.56441
5932.82057,0.56858
5930.89182,0.57363
5928.96307,0.57887
5927.03433,0.58261
5925.10558,0.58542
5923.17684,0.58929
5921.24809,0.59429
5919.31935,0.59886
5917.39060,0.60158
5915.46186,0.60334
5913.53311,0.60574
5911.60437,0.60778
5909.67562,0.60901
5907.74688,0.61093
5905.81813,0.61288
5903.88939,0.61293
5901.96064,0.61162
5900.03189,0.61087
5898.10315,0.61108
5896.17440,0.61190
5894.24566,0.61311
5892.31691,0.61427
5890.38817,0.61535
5888.45942,0.61552
5886.53068,0.61444
5884.60193,0.61450
5882.67319,0.61683
5880.74444,0.61979
5878.81570,0.62146
5876.88695,0.62113
5874.95821,0.62107
5873.02946,0.62383
5871.10072,0.62756
5869.17197,0.62964
5867.24322,0.63127
5865.31448,0.63304
5863.38573,0.63317
5861.45699,0.63263
5859.52824,0.63380
5857.59950,0.63598
5855.67075,0.63743
5853.74201,0.63798
5851.81326,0.63771
5849.88452,0.63680
5847.95577,0.63593
5846.02703,0.63449
5844.09828,0.63220
5842.16954,0.63040
5840.24079,0.62901
5838.31205,0.62682
5836.38330,0.62399
5834.45455,0.62107
5832.52581,0.61810
5830.59706,0.61493
5828.66832,0.61138
5826.73957,0.60828
5824.81083,0.60636
5822.88208,0.60398
5820.95334,0.59980
5819.02459,0.59505
5817.09585,0.59099
5815.16710,0.58704
5813.23836,0.58296
5811.30961,0.58062
5809.38087,0.58008
5807.45212,0.57876
5805.52337,0.57646
5803.59463,0.57510
5801.66588,0.57446
5799.73714,0.57267
5797.80839,0.57031
5795.87965,0.56966
5793.95090,0.57117
5792.02216,0.57415
5790.09341,0.57763
5788.16467,0.58058
5786.23592,0.58411
5784.30718,0.58903
5782.37843,0.59344
5780.44969,0.59705
5778.52094,0.60141
5776.59220,0.60594
5774.66345,0.60932
5772.73470,0.61199
5770.80596,0.61435
5768.87721,0.61575
5766.94847,0.61711
5765.01972,0.61933
5763.09098,0.62051
5761.16223,0.61996
5759.23349,0.61952
5757.30474,0.62042
5755.37600,0.62217
5753.44725,0.62326
5751.51851,0.62320
5749.58976,0.62334
5747.66102,0.62507
5745.73227,0.62799
5743.80352,0.62998
5741.87478,0.62973
5739.94603,0.62912
5738.01729,0.63022
5736.08854,0.63220
5734.15980,0.63430
5732.23105,0.63681
5730.30231,0.63903
5728.37356,0.64015
5726.44482,0.64096
5724.51607,0.64265
5722.58733,0.64509
5720.65858,0.64803
5718.72984,0.65090
5716.80109,0.65232
5714.87235,0.65275
5712.94360,0.65371
5711.01485,0.65526
5709.08611,0.65719
5707.15736,0.65931
5705.22862,0.66080
5703.29987,0.66162
5701.37113,0.66211
5699.44238,0.66239
5697.51364,0.66288
5695.58489,0.66349
5693.65615,0.66438
5691.72740,0.66643
5689.79866,0.66890
5687.86991,0.67026
5685.94117,0.67054
5684.01242,0.67052
5682.08368,0.67102
5680.15493,0.67216
5678.22618,0.67337
5676.29744,0.67426
5674.36869,0.67480
5672.43995,0.67513
5670.51120,0.67524
5668.58246,0.67558
5666.65371,0.67680
5664.72497,0.67780
5662.79622,0.67771
5660.86748,0.67755
5658.93873,0.67762
5657.00999,0.67697
5655.08124,0.67597
5653.15250,0.67599
5651.22375,0.67665
5649.29500,0.67740
5647.36626,0.67878
5645.43751,0.68048
5643.50877,0.68202
5641.58002,0.68317
5639.65128,0.68365
5637.72253,0.68437
5635.79379,0.68583
5633.86504,0.68761
5631.93630,0.68988
5630.00755,0.69264
5628.07881,0.69562
5626.15006,0.69816
5624.22132,0.69907
5622.29257,0.69933
5620.36383,0.70154
5618.43508,0.70501
5616.50633,0.70705
5614.57759,0.70800
5612.64884,0.70926
5610.72010,0.71033
5608.79135,0.71080
5606.86261,0.71104
5604.93386,0.71120
5603.00512,0.71147
5601.07637,0.71175
5599.14763,0.71107
5597.21888,0.70933
5595.29014,0.70816
5593.36139,0.70806
5591.43265,0.70779
5589.50390,0.70706
5587.57516,0.70697
5585.64641,0.70735
5583.71766,0.70663
5581.78892,0.70481
5579.86017,0.70338
5577.93143,0.70252
5576.00268,0.70119
5574.07394,0.69930
5572.14519,0.69810
5570.21645,0.69795
5568.28770,0.69746
5566.35896,0.69619
5564.43021,0.69521
5562.50147,0.69472
5560.57272,0.69392
5558.64398,0.69270
5556.71523,0.69205
5554.78648,0.69240
5552.85774,0.69302
5550.92899,0.69320
5549.00025,0.69276
5547.07150,0.69259
5545.14276,0.69349
5543.21401,0.69457
5541.28527,0.69478
5539.35652,0.69443
5537.42778,0.69434
5535.49903,0.69463
5533.57029,0.69557
5531.64154,0.69741
5529.71280,0.69882
5527.78405,0.69885
5525.85531,0.69815
5523.92656,0.69787
5521.99781,0.69893
5520.06907,0.70063
5518.14032,0.70154
5516.21158,0.70206
5514.28283,0.70368
5512.35409,0.70586
5510.42534,0.70664
5508.49660,0.70602
5506.56785,0.70539
5504.63911,0.70548
5502.71036,0.70684
5500.78162,0.70899
5498.85287,0.71027
5496.92413,0.71033
5494.99538,0.70982
5493.06664,0.70889
5491.13789,0.70756
5489.20914,0.70579
5487.28040,0.70398
5485.35165,0.70305
5483.42291,0.70275
5481.49416,0.70196
5479.56542,0.70091
5477.63667,0.70074
5475.70793,0.70116
5473.77918,0.70077
5471.85044,0.69972
5469.92169,0.69986
5467.99295,0.70105
5466.06420,0.70192
5464.13546,0.70309
5462.20671,0.70449
5460.27796,0.70537
5458.34922,0.70668
5456.42047,0.70863
5454.49173,0.71046
5452.56298,0.71242
5450.63424,0.71518
5448.70549,0.71809
5446.77675,0.71956
5444.84800,0.72008
5442.91926,0.72105
5440.99051,0.72219
5439.06177,0.72309
5437.13302,0.72422
5435.20428,0.72569
5433.27553,0.72668
5431.34679,0.72695
5429.41804,0.72757
5427.48929,0.72902
5425.56055,0.73015
5423.63180,0.72983
5421.70306,0.72880
5419.77431,0.72863
5417.84557,0.72911
5415.91682,0.72937
5413.98808,0.72978
5412.05933,0.73046
5410.13059,0.73060
5408.20184,0.73003
5406.27310,0.72907
5404.34435,0.72822
5402.41561,0.72801
5400.48686,0.72827
5398.55811,0.72891
5396.62937,0.73000
5394.70062,0.73071
5392.77188,0.73067
5390.84313,0.73039
5388.91439,0.73006
5386.98564,0.73014
5385.05690,0.73113
5383.12815,0.73216
5381.19941,0.73208
5379.27066,0.73114
5377.34192,0.73017
5375.41317,0.72960
5373.48443,0.72955
5371.55568,0.72969
5369.62694,0.72952
5367.69819,0.72953
5365.76944,0.73022
5363.84070,0.73103
5361.91195,0.73092
5359.98321,0.72937
5358.05446,0.72783
5356.12572,0.72737
5354.19697,0.72714
5352.26823,0.72748
5350.33948,0.72881
5348.41074,0.72954
5346.48199,0.72888
5344.55325,0.72793
5342.62450,0.72775
5340.69576,0.72845
5338.76701,0.72932
5336.83827,0.72946
5334.90952,0.72899
5332.98077,0.72909
5331.05203,0.73017
5329.12328,0.73150
5327.19454,0.73234
5325.26579,0.73300
5323.33705,0.73427
5321.40830,0.73569
5319.47956,0.73670
5317.55081,0.73782
5315.62207,0.73840
5313.69332,0.73713
5311.76458,0.73525
5309.83583,0.73478
5307.90709,0.73532
5305.97834,0.73619
5304.04959,0.73724
5302.12085,0.73749
5300.19210,0.73660
5298.26336,0.73487
5296.33461,0.73285
5294.40587,0.73173
5292.47712,0.73146
5290.54838,0.73141
5288.61963,0.73158
5286.69089,0.73134
5284.76214,0.73023
5282.83340,0.72936
5280.90465,0.72911
5278.97591,0.72824
5277.04716,0.72630
5275.11842,0.72421
5273.18967,0.72278
5271.26092,0.72183
5269.33218,0.72083
5267.40343,0.71993
5265.47469,0.71911
5263.54594,0.71815
5261.61720,0.71784
5259.68845,0.71877
5257.75971,0.72016
5255.83096,0.72112
5253.90222,0.72148
5251.97347,0.72165
5250.04473,0.72217
5248.11598,0.72319
5246.18724,0.72423
5244.25849,0.72432
5242.32975,0.72372
5240.40100,0.72388
5238.47225,0.72467
5236.54351,0.72544
5234.61476,0.72651
5232.68602,0.72718
5230.75727,0.72669
5228.82853,0.72583
5226.89978,0.72547
5224.97104,0.72554
5223.04229,0.72572
5221.11355,0.72595
5219.18480,0.72604
5217.25606,0.72598
5215.32731,0.72601
5213.39857,0.72591
5211.46982,0.72547
5209.54107,0.72503
5207.61233,0.72543
5205.68358,0.72662
5203.75484,0.72716
5201.82609,0.72704
5199.89735,0.72740
5197.96860,0.72753
5196.03986,0.72663
5194.11111,0.72550
5192.18237,0.72483
5190.25362,0.72463
5188.32488,0.72433
5186.39613,0.72399
5184.46739,0.72432
5182.53864,0.72441
5180.60990,0.72325
5178.68115,0.72193
5176.75240,0.72158
5174.82366,0.72198
5172.89491,0.72235
5170.96617,0.72178
5169.03742,0.72054
5167.10868,0.72007
5165.17993,0.72051
5163.25119,0.72090
5161.32244,0.72090
5159.39370,0.72025
5157.46495,0.71890
5155.53621,0.71726
5153.60746,0.71557
5151.67872,0.71413
5149.74997,0.71282
5147.82123,0.71116
5145.89248,0.70943
5143.96373,0.70824
5142.03499,0.70743
5140.10624,0.70647
5138.17750,0.70518
5136.24875,0.70348
5134.32001,0.70157
5132.39126,0.70013
5130.46252,0.69886
5128.53377,0.69661
5126.60503,0.69314
5124.67628,0.68939
5122.74754,0.68641
5120.81879,0.68483
5118.89005,0.68448
5116.96130,0.68425
5115.03255,0.68353
5113.10381,0.68254
5111.17506,0.68127
5109.24632,0.68026
5107.31757,0.68008
5105.38883,0.67985
5103.46008,0.67912
5101.53134,0.67883
5099.60259,0.67897
5097.67385,0.67888
5095.74510,0.67898
5093.81636,0.67944
5091.88761,0.67961
5089.95887,0.67964
5088.03012,0.68066
5086.10138,0.68335
5084.17263,0.68748
5082.24388,0.69257
5080.31514,0.69751
5078.38639,0.70121
5076.45765,0.70404
5074.52890,0.70686
5072.60016,0.70986
5070.67141,0.71285
5068.74267,0.71530
5066.81392,0.71749
5064.88518,0.71994
5062.95643,0.72204
5061.02769,0.72340
5059.09894,0.72453
5057.17020,0.72603
5055.24145,0.72793
5053.31270,0.72929
5051.38396,0.72966
5049.45521,0.72986
5047.52647,0.73029
5045.59772,0.73078
5043.66898,0.73132
5041.74023,0.73161
5039.81149,0.73114
5037.88274,0.72989
5035.95400,0.72879
5034.02525,0.72850
5032.09651,0.72851
5030.16776,0.72812
5028.23902,0.72736
5026.31027,0.72666
5024.38153,0.72653
5022.45278,0.72682
5020.52403,0.72681
5018.59529,0.72617
5016.66654,0.72553
5014.73780,0.72582
5012.80905,0.72662
5010.88031,0.72657
5008.95156,0.72578
5007.02282,0.72551
5005.09407,0.72594
5003.16533,0.72648
5001.23658,0.72733
4999.30784,0.72830
4997.37909,0.72799
4995.45035,0.72649
4993.52160,0.72564
4991.59286,0.72577
4989.66411,0.72597
4987.73536,0.72628
4985.80662,0.72722
4983.87787,0.72831
4981.94913,0.72896
4980.02038,0.72954
4978.09164,0.73033
4976.16289,0.73116
4974.23415,0.73215
4972.30540,0.73310
4970.37666,0.73335
4968.44791,0.73255
4966.51917,0.73121
4964.59042,0.73034
4962.66168,0.73025
4960.73293,0.73038
4958.80418,0.73025
4956.87544,0.72944
4954.94669,0.72772
4953.01795,0.72585
4951.08920,0.72468
4949.16046,0.72398
4947.23171,0.72359
4945.30297,0.72361
4943.37422,0.72321
4941.44548,0.72210
4939.51673,0.72118
4937.58799,0.72071
4935.65924,0.72024
4933.73050,0.71967
4931.80175,0.71913
4929.87301,0.71876
4927.94426,0.71890
4926.01551,0.71960
4924.08677,0.72037
4922.15802,0.72069
4920.22928,0.72031
4918.30053,0.71947
4916.37179,0.71859
4914.44304,0.71764
4912.51430,0.71659
4910.58555,0.71623
4908.65681,0.71661
4906.72806,0.71663
4904.79932,0.71594
4902.87057,0.71500
4900.94183,0.71421
4899.01308,0.71405
4897.08434,0.71450
4895.15559,0.71491
4893.22684,0.71469
4891.29810,0.71359
4889.36935,0.71230
4887.44061,0.71169
4885.51186,0.71155
4883.58312,0.71143
4881.65437,0.71135
4879.72563,0.71101
4877.79688,0.70998
4875.86814,0.70864
4873.93939,0.70773
4872.01065,0.70749
4870.08190,0.70771
4868.15316,0.70772
4866.22441,0.70711
4864.29566,0.70613
4862.36692,0.70511
4860.43817,0.70432
4858.50943,0.70385
4856.58068,0.70339
4854.65194,0.70277
4852.72319,0.70194
4850.79445,0.70099
4848.86570,0.70009
4846.93696,0.69879
4845.00821,0.69697
4843.07947,0.69526
4841.15072,0.69342
4839.22198,0.69114
4837.29323,0.68832
4835.36449,0.68440
4833.43574,0.68012
4831.50699,0.67663
4829.57825,0.67338
4827.64950,0.66963
4825.72076,0.66559
4823.79201,0.66148
4821.86327,0.65734
4819.93452,0.65330
4818.00578,0.64948
4816.07703,0.64612
4814.14829,0.64379
4812.21954,0.64253
4810.29080,0.64137
4808.36205,0.63945
4806.43331,0.63688
4804.50456,0.63441
4802.57582,0.63246
4800.64707,0.63068
4798.71832,0.62887
4796.78958,0.62741
4794.86083,0.62654
4792.93209,0.62664
4791.00334,0.62781
4789.07460,0.62887
4787.14585,0.62937
4785.21711,0.63039
4783.28836,0.63245
4781.35962,0.63517
4779.43087,0.63810
4777.50213,0.64097
4775.57338,0.64345
4773.64464,0.64521
4771.71589,0.64684
4769.78714,0.64891
4767.85840,0.65072
4765.92965,0.65172
4764.00091,0.65235
4762.07216,0.65269
4760.14342,0.65228
4758.21467,0.65118
4756.28593,0.64939
4754.35718,0.64663
4752.42844,0.64299
4750.49969,0.63889
4748.57095,0.63436
4746.64220,0.62910
4744.71346,0.62317
4742.78471,0.61751
4740.85597,0.61279
4738.92722,0.60807
4736.99847,0.60204
4735.06973,0.59467
4733.14098,0.58609
4731.21224,0.57602
4729.28349,0.56449
4727.35475,0.55189
4725.42600,0.53913
4723.49726,0.52745
4721.56851,0.51817
4719.63977,0.51204
4717.71102,0.50846
4715.78228,0.50637
4713.85353,0.50511
4711.92479,0.50412
4709.99604,0.50266
4708.06729,0.49984
4706.13855,0.49499
4704.20980,0.48816
4702.28106,0.47982
4700.35231,0.47041
4698.42357,0.46011
4696.49482,0.44902
4694.56608,0.43819
4692.63733,0.42969
4690.70859,0.42466
4688.77984,0.42279
4686.85110,0.42345
4684.92235,0.42634
4682.99361,0.43155
4681.06486,0.43879
4679.13612,0.44738
4677.20737,0.45709
4675.27862,0.46760
4673.34988,0.47830
4671.42113,0.48864
4669.49239,0.49753
4667.56364,0.50437
4665.63490,0.50967
4663.70615,0.51372
4661.77741,0.51631
4659.84866,0.51731
4657.91992,0.51736
4655.99117,0.51716
4654.06243,0.51646
4652.13368,0.51478
4650.20494,0.51191
4648.27619,0.50746
4646.34745,0.50084
4644.41870,0.49228
4642.48995,0.48324
4640.56121,0.47512
4638.63246,0.46871
4636.70372,0.46443
4634.77497,0.46285
4632.84623,0.46444
4630.91748,0.46869
4628.98874,0.47517
4627.05999,0.48424
4625.13125,0.49529
4623.20250,0.50695
4621.27376,0.51834
4619.34501,0.52906
4617.41627,0.53900
4615.48752,0.54799
4613.55877,0.55598
4611.63003,0.56312
4609.70128,0.56914
4607.77254,0.57337
4605.84379,0.57548
4603.91505,0.57571
4601.98630,0.57429
4600.05756,0.57109
4598.12881,0.56611
4596.20007,0.55944
4594.27132,0.55142
4592.34258,0.54364
4590.41383,0.53789
4588.48509,0.53411
4586.55634,0.53052
4584.62760,0.52568
4582.69885,0.51992
4580.77010,0.51458
4578.84136,0.51143
4576.91261,0.51242
4574.98387,0.51830
4573.05512,0.52796
4571.12638,0.53978
4569.19763,0.55265
4567.26889,0.56570
4565.34014,0.57798
4563.41140,0.58850
4561.48265,0.59642
4559.55391,0.60157
4557.62516,0.60451
4555.69642,0.60598
4553.76767,0.60677
4551.83893,0.60725
4549.91018,0.60695
4547.98143,0.60615
4546.05269,0.60604
4544.12394,0.60639
4542.19520,0.60611
4540.26645,0.60534
4538.33771,0.60448
4536.40896,0.60342
4534.48022,0.60226
4532.55147,0.60110
4530.62273,0.59983
4528.69398,0.59824
4526.76524,0.59632
4524.83649,0.59437
4522.90775,0.59229
4520.97900,0.58960
4519.05025,0.58617
4517.12151,0.58236
4515.19276,0.57843
4513.26402,0.57453
4511.33527,0.57029
4509.40653,0.56501
4507.47778,0.55852
4505.54904,0.55093
4503.62029,0.54235
4501.69155,0.53286
4499.76280,0.52212
4497.83406,0.50990
4495.90531,0.49712
4493.97657,0.48545
4492.04782,0.47618
4490.11908,0.46982
4488.19033,0.46594
4486.26158,0.46373
4484.33284,0.46242
4482.40409,0.46138
4480.47535,0.46021
4478.54660,0.45873
4476.61786,0.45672
4474.68911,0.45414
4472.76037,0.45103
4470.83162,0.44701
4468.90288,0.44153
4466.97413,0.43452
4465.04539,0.42665
4463.11664,0.41851
4461.18790,0.41034
4459.25915,0.40272
4457.33041,0.39613
4455.40166,0.39033
4453.47291,0.38494
4451.54417,0.37946
4449.61542,0.37341
4447.68668,0.36657
4445.75793,0.35919
4443.82919,0.35180
4441.90044,0.34471
4439.97170,0.33806
4438.04295,0.33215
4436.11421,0.32709
4434.18546,0.32270
4432.25672,0.31881
4430.32797,0.31544
4428.39923,0.31281
4426.47048,0.31092
4424.54173,0.31000
4422.61299,0.31115
4420.68424,0.31471
4418.75550,0.31970
4416.82675,0.32529
4414.89801,0.33098
4412.96926,0.33592
4411.04052,0.33940
4409.11177,0.34161
4407.18303,0.34274
4405.25428,0.34296
4403.32554,0.34340
4401.39679,0.34524
4399.46805,0.34843
4397.53930,0.35241
4395.61056,0.35685
4393.68181,0.36131
4391.75306,0.36512
4389.82432,0.36767
4387.89557,0.36884
4385.96683,0.36904
4384.03808,0.36852
4382.10934,0.36717
4380.18059,0.36497
4378.25185,0.36207
4376.32310,0.35849
4374.39436,0.35400
4372.46561,0.34882
4370.53687,0.34399
4368.60812,0.34062
4366.67938,0.33907
4364.75063,0.33859
4362.82189,0.33824
4360.89314,0.33777
4358.96439,0.33756
4357.03565,0.33809
4355.10690,0.33932
4353.17816,0.34069
4351.24941,0.34225
4349.32067,0.34463
4347.39192,0.34741
4345.46318,0.34943
4343.53443,0.35082
4341.60569,0.35246
4339.67694,0.35422
4337.74820,0.35549
4335.81945,0.35647
4333.89071,0.35754
4331.96196,0.35884
4330.03321,0.36055
4328.10447,0.36258
4326.17572,0.36455
4324.24698,0.36622
4322.31823,0.36792
4320.38949,0.37016
4318.46074,0.37292
4316.53200,0.37530
4314.60325,0.37666
4312.67451,0.37764
4310.74576,0.37845
4308.81702,0.37807
4306.88827,0.37632
4304.95953,0.37410
4303.03078,0.37147
4301.10204,0.36810
4299.17329,0.36479
4297.24454,0.36208
4295.31580,0.35943
4293.38705,0.35674
4291.45831,0.35463
4289.52956,0.35336
4287.60082,0.35274
4285.67207,0.35240
4283.74333,0.35181
4281.81458,0.35072
4279.88584,0.34926
4277.95709,0.34742
4276.02835,0.34505
4274.09960,0.34241
4272.17086,0.34013
4270.24211,0.33863
4268.31336,0.33797
4266.38462,0.33824
4264.45587,0.33934
4262.52713,0.34090
4260.59838,0.34293
4258.66964,0.34540
4256.74089,0.34768
4254.81215,0.34949
4252.88340,0.35106
4250.95466,0.35228
4249.02591,0.35308
4247.09717,0.35395
4245.16842,0.35501
4243.23968,0.35583
4241.31093,0.35624
4239.38219,0.35614
4237.45344,0.35547
4235.52469,0.35450
4233.59595,0.35348
4231.66720,0.35219
4229.73846,0.35052
4227.80971,0.34879
4225.88097,0.34738
4223.95222,0.34661
4222.02348,0.34653
4220.09473,0.34675
4218.16599,0.34703
4216.23724,0.34750
4214.30850,0.34785
4212.37975,0.34752
4210.45101,0.34678
4208.52226,0.34644
4206.59352,0.34687
4204.66477,0.34797
4202.73602,0.34949
4200.80728,0.35137
4198.87853,0.35366
4196.94979,0.35606
4195.02104,0.35828
4193.09230,0.36012
4191.16355,0.36108
4189.23481,0.36073
4187.30606,0.35923
4185.37732,0.35686
4183.44857,0.35368
4181.51983,0.35008
4179.59108,0.34674
4177.66234,0.34461
4175.73359,0.34469
4173.80484,0.34753
4171.87610,0.35265
4169.94735,0.35882
4168.01861,0.36539
4166.08986,0.37236
4164.16112,0.37923
4162.23237,0.38524
4160.30363,0.39035
4158.37488,0.39476
4156.44614,0.39850
4154.51739,0.40184
4152.58865,0.40506
4150.65990,0.40806
4148.73116,0.41064
4146.80241,0.41262
4144.87367,0.41407
4142.94492,0.41506
4141.01617,0.41526
4139.08743,0.41444
4137.15868,0.41273
4135.22994,0.41012
4133.30119,0.40693
4131.37245,0.40399
4129.44370,0.40132
4127.51496,0.39839
4125.58621,0.39488
4123.65747,0.39068
4121.72872,0.38619
4119.79998,0.38162
4117.87123,0.37663
4115.94249,0.37114
4114.01374,0.36514
4112.08500,0.35843
4110.15625,0.35090
4108.22750,0.34277
4106.29876,0.33445
4104.37001,0.32585
4102.44127,0.31644
4100.51252,0.30576
4098.58378,0.29348
4096.65503,0.27990
4094.72629,0.26640
4092.79754,0.25476
4090.86880,0.24693
4088.94005,0.24438
4087.01131,0.24690
4085.08256,0.25288
4083.15382,0.26058
4081.22507,0.26924
4079.29632,0.27905
4077.36758,0.28971
4075.43883,0.30021
4073.51009,0.30965
4071.58134,0.31761
4069.65260,0.32445
4067.72385,0.33089
4065.79511,0.33693
4063.86636,0.34233
4061.93762,0.34708
4060.00887,0.35095
4058.08013,0.35391
4056.15138,0.35646
4054.22264,0.35895
4052.29389,0.36129
4050.36515,0.36350
4048.43640,0.36602
4046.50765,0.36903
4044.57891,0.37237
4042.65016,0.37587
4040.72142,0.37914
4038.79267,0.38184
4036.86393,0.38402
4034.93518,0.38572
4033.00644,0.38683
4031.07769,0.38742
4029.14895,0.38770
4027.22020,0.38795
4025.29146,0.38858
4023.36271,0.38978
4021.43397,0.39165
4019.50522,0.39404
4017.57648,0.39633
4015.64773,0.39816
4013.71898,0.39959
4011.79024,0.40086
4009.86149,0.40237
4007.93275,0.40452
4006.00400,0.40734
4004.07526,0.41067
4002.14651,0.41449
4000.21777,0.41858
3998.28902,0.42233
3996.36028,0.42538
3994.43153,0.42820
3992.50279,0.43110
3990.57404,0.43366
3988.64530,0.43596
3986.71655,0.43836
3984.78780,0.44046
3982.85906,0.44197
3980.93031,0.44335
3979.00157,0.44483
3977.07282,0.44599
3975.14408,0.44652
3973.21533,0.44689
3971.28659,0.44766
3969.35784,0.44849
3967.42910,0.44863
3965.50035,0.44793
3963.57161,0.44670
3961.64286,0.44503
3959.71412,0.44301
3957.78537,0.44099
3955.85663,0.43917
3953.92788,0.43725
3951.99913,0.43489
3950.07039,0.43215
3948.14164,0.42931
3946.21290,0.42654
3944.28415,0.42411
3942.35541,0.42222
3940.42666,0.42075
3938.49792,0.41968
3936.56917,0.41910
3934.64043,0.41860
3932.71168,0.41783
3930.78294,0.41667
3928.85419,0.41531
3926.92545,0.41420
3924.99670,0.41343
3923.06795,0.41296
3921.13921,0.41299
3919.21046,0.41366
3917.28172,0.41484
3915.35297,0.41626
3913.42423,0.41794
3911.49548,0.41992
3909.56674,0.42224
3907.63799,0.42511
3905.70925,0.42851
3903.78050,0.43188
3901.85176,0.43463
3899.92301,0.43699
3897.99427,0.43932
3896.06552,0.44156
3894.13678,0.44343
3892.20803,0.44525
3890.27928,0.44790
3888.35054,0.45151
3886.42179,0.45542
3884.49305,0.45897
3882.56430,0.46193
3880.63556,0.46463
3878.70681,0.46719
3876.77807,0.46959
3874.84932,0.47192
3872.92058,0.47415
3870.99183,0.47624
3869.06309,0.47807
3867.13434,0.47946
3865.20560,0.48071
3863.27685,0.48201
3861.34811,0.48310
3859.41936,0.48378
3857.49061,0.48432
3855.56187,0.48511
3853.63312,0.48638
3851.70438,0.48804
3849.77563,0.48984
3847.84689,0.49163
3845.91814,0.49329
3843.98940,0.49454
3842.06065,0.49494
3840.13191,0.49449
3838.20316,0.49363
3836.27442,0.49238
3834.34567,0.49080
3832.41693,0.48970
3830.48818,0.48949
3828.55943,0.49000
3826.63069,0.49107
3824.70194,0.49216
3822.77320,0.49233
3820.84445,0.49078
3818.91571,0.48772
3816.98696,0.48385
3815.05822,0.47961
3813.12947,0.47565
3811.20073,0.47208
3809.27198,0.46899
3807.34324,0.46721
3805.41449,0.46769
3803.48575,0.47096
3801.55700,0.47707
3799.62826,0.48433
3797.69951,0.49130
3795.77076,0.49841
3793.84202,0.50498
3791.91327,0.50999
3789.98453,0.51362
3788.05578,0.51605
3786.12704,0.51727
3784.19829,0.51763
3782.26955,0.51733
3780.34080,0.51597
3778.41206,0.51318
3776.48331,0.50940
3774.55457,0.50536
3772.62582,0.50151
3770.69708,0.49787
3768.76833,0.49416
3766.83959,0.49020
3764.91084,0.48572
3762.98209,0.48059
3761.05335,0.47538
3759.12460,0.47125
3757.19586,0.46945
3755.26711,0.47098
3753.33837,0.47651
3751.40962,0.48555
3749.48088,0.49544
3747.55213,0.50342
3745.62339,0.50892
3743.69464,0.51147
3741.76590,0.51076
3739.83715,0.50782
3737.90841,0.50318
3735.97966,0.49750
3734.05091,0.49266
3732.12217,0.49043
3730.19342,0.49167
3728.26468,0.49613
3726.33593,0.50270
3724.40719,0.50938
3722.47844,0.51432
3720.54970,0.51704
3718.62095,0.51800
3716.69221,0.51774
3714.76346,0.51650
3712.83472,0.51450
3710.90597,0.51158
3708.97723,0.50736
3707.04848,0.50208
3705.11974,0.49620
3703.19099,0.48961
3701.26224,0.48192
3699.33350,0.47319
3697.40475,0.46336
3695.47601,0.45198
3693.54726,0.43887
3691.61852,0.42511
3689.68977,0.41353
3687.76103,0.40765
3685.83228,0.40891
3683.90354,0.41657
3681.97479,0.42934
3680.04605,0.44489
3678.11730,0.46085
3676.18856,0.47708
3674.25981,0.49198
3672.33107,0.50286
3670.40232,0.51072
3668.47357,0.51624
3666.54483,0.51949
3664.61608,0.52160
3662.68734,0.52302
3660.75859,0.52343
3658.82985,0.52268
3656.90110,0.52100
3654.97236,0.51888
3653.04361,0.51671
3651.11487,0.51433
3649.18612,0.51132
3647.25738,0.50766
3645.32863,0.50367
3643.39989,0.49954
3641.47114,0.49551
3639.54239,0.49198
3637.61365,0.48894
3635.68490,0.48601
3633.75616,0.48291
3631.82741,0.47967
3629.89867,0.47631
3627.96992,0.47285
3626.04118,0.46950
3624.11243,0.46610
3622.18369,0.46227
3620.25494,0.45793
3618.32620,0.45345
3616.39745,0.44925
3614.46871,0.44522
3612.53996,0.44127
3610.61122,0.43739
3608.68247,0.43323
3606.75372,0.42875
3604.82498,0.42417
3602.89623,0.41907
3600.96749,0.41318
3599.03874,0.40696
3597.11000,0.40051
3595.18125,0.39355
3593.25251,0.38609
3591.32376,0.37845
3589.39502,0.37066
3587.46627,0.36266
3585.53753,0.35485
3583.60878,0.34730
3581.68004,0.33966
3579.75129,0.33210
3577.82254,0.32499
3575.89380,0.31830
3573.96505,0.31194
3572.03631,0.30609
3570.10756,0.30076
3568.17882,0.29560
3566.25007,0.29049
3564.32133,0.28602
3562.39258,0.28243
3560.46384,0.27932
3558.53509,0.27647
3556.60635,0.27400
3554.67760,0.27201
3552.74886,0.27066
3550.82011,0.26986
3548.89137,0.26919
3546.96262,0.26879
3545.03387,0.26896
3543.10513,0.26939
3541.17638,0.26982
3539.24764,0.27040
3537.31889,0.27146
3535.39015,0.27307
3533.46140,0.27492
3531.53266,0.27688
3529.60391,0.27915
3527.67517,0.28187
3525.74642,0.28499
3523.81768,0.28808
3521.88893,0.29082
3519.96019,0.29367
3518.03144,0.29692
3516.10270,0.30014
3514.17395,0.30316
3512.24520,0.30604
3510.31646,0.30896
3508.38771,0.31195
3506.45897,0.31485
3504.53022,0.31755
3502.60148,0.31999
3500.67273,0.32213
3498.74399,0.32408
3496.81524,0.32590
3494.88650,0.32738
3492.95775,0.32838
3491.02901,0.32910
3489.10026,0.32972
3487.17152,0.33023
3485.24277,0.33052
3483.31402,0.33073
3481.38528,0.33075
3479.45653,0.32999
3477.52779,0.32817
3475.59904,0.32566
3473.67030,0.32293
3471.74155,0.32006
3469.81281,0.31665
3467.88406,0.31230
3465.95532,0.30717
3464.02657,0.30173
3462.09783,0.29618
3460.16908,0.29008
3458.24034,0.28311
3456.31159,0.27560
3454.38285,0.26792
3452.45410,0.25991
3450.52535,0.25115
3448.59661,0.24174
3446.66786,0.23223
3444.73912,0.22295
3442.81037,0.21404
3440.88163,0.20558
3438.95288,0.19726
3437.02414,0.18889
3435.09539,0.18102
3433.16665,0.17454
3431.23790,0.16986
3429.30916,0.16702
3427.38041,0.16588
3425.45167,0.16583
3423.52292,0.16621
3421.59418,0.16677
3419.66543,0.16713
3417.73668,0.16698
3415.80794,0.16679
3413.87919,0.16747
3411.95045,0.17002
3410.02170,0.17545
3408.09296,0.18446
3406.16421,0.19714
3404.23547,0.21253
3402.30672,0.22907
3400.37798,0.24547
3398.44923,0.26099
3396.52049,0.27481
3394.59174,0.28625
3392.66300,0.29547
3390.73425,0.30310
3388.80550,0.30957
3386.87676,0.31489
3384.94801,0.31925
3383.01927,0.32320
3381.09052,0.32693
3379.16178,0.33022
3377.23303,0.33297
3375.30429,0.33520
3373.37554,0.33689
3371.44680,0.33805
3369.51805,0.33873
3367.58931,0.33894
3365.66056,0.33875
3363.73182,0.33830
3361.80307,0.33741
3359.87433,0.33588
3357.94558,0.33395
3356.01683,0.33161
3354.08809,0.32847
3352.15934,0.32471
3350.23060,0.32074
3348.30185,0.31635
3346.37311,0.31152
3344.44436,0.30687
3342.51562,0.30270
3340.58687,0.29864
3338.65813,0.29428
3336.72938,0.28978
3334.80064,0.28580
3332.87189,0.28276
3330.94315,0.28094
3329.01440,0.28072
3327.08566,0.28248
3325.15691,0.28634
3323.22816,0.29185
3321.29942,0.29778
3319.37067,0.30329
3317.44193,0.30829
3315.51318,0.31249
3313.58444,0.31523
3311.65569,0.31646
3309.72695,0.31700
3307.79820,0.31700
3305.86946,0.31580
3303.94071,0.31370
3302.01197,0.31148
3300.08322,0.30945
3298.15448,0.30773
3296.22573,0.30628
3294.29698,0.30506
3292.36824,0.30438
3290.43949,0.30449
3288.51075,0.30544
3286.58200,0.30721
3284.65326,0.30985
3282.72451,0.31327
3280.79577,0.31687
3278.86702,0.31999
3276.93828,0.32245
3275.00953,0.32434
3273.08079,0.32571
3271.15204,0.32659
3269.22330,0.32728
3267.29455,0.32793
3265.36581,0.32828
3263.43706,0.32814
3261.50831,0.32771
3259.57957,0.32724
3257.65082,0.32685
3255.72208,0.32648
3253.79333,0.32594
3251.86459,0.32512
3249.93584,0.32421
3248.00710,0.32352
3246.07835,0.32300
3244.14961,0.32217
3242.22086,0.32072
3240.29212,0.31891
3238.36337,0.31719
3236.43463,0.31563
3234.50588,0.31399
3232.57713,0.31228
3230.64839,0.31086
3228.71964,0.30962
3226.79090,0.30840
3224.86215,0.30767
3222.93341,0.30766
3221.00466,0.30814
3219.07592,0.30924
3217.14717,0.31124
3215.21843,0.31380
3213.28968,0.31634
3211.36094,0.31834
3209.43219,0.31951
3207.50345,0.31994
3205.57470,0.31982
3203.64596,0.31931
3201.71721,0.31850
3199.78846,0.31731
3197.85972,0.31567
3195.93097,0.31391
3194.00223,0.31253
3192.07348,0.31147
3190.14474,0.31034
3188.21599,0.30927
3186.28725,0.30842
3184.35850,0.30766
3182.42976,0.30681
3180.50101,0.30586
3178.57227,0.30487
3176.64352,0.30382
3174.71478,0.30285
3172.78603,0.30200
3170.85729,0.30088
3168.92854,0.29949
3166.99979,0.29831
3165.07105,0.29717
3163.14230,0.29567
3161.21356,0.29395
3159.28481,0.29207
3157.35607,0.29006
3155.42732,0.28802
3153.49858,0.28573
3151.56983,0.28316
3149.64109,0.28054
3147.71234,0.27782
3145.78360,0.27493
3143.85485,0.27186
3141.92611,0.26841
3139.99736,0.26438
3138.06861,0.25960
3136.13987,0.25398
3134.21112,0.24764
3132.28238,0.24102
3130.35363,0.23501
3128.42489,0.23080
3126.49614,0.22913
3124.56740,0.22975
3122.63865,0.23147
3120.70991,0.23282
3118.78116,0.23272
3116.85242,0.23083
3114.92367,0.22734
3112.99493,0.22247
3111.06618,0.21648
3109.13744,0.20976
3107.20869,0.20277
3105.27994,0.19649
3103.35120,0.19218
3101.42245,0.19060
3099.49371,0.19173
3097.56496,0.19451
3095.63622,0.19719
3093.70747,0.19793
3091.77873,0.19576
3089.84998,0.19107
3087.92124,0.18473
3085.99249,0.17773
3084.06375,0.17154
3082.13500,0.16727
3080.20626,0.16502
3078.27751,0.16421
3076.34877,0.16398
3074.42002,0.16340
3072.49127,0.16186
3070.56253,0.15971
3068.63378,0.15793
3066.70504,0.15715
3064.77629,0.15732
3062.84755,0.15749
3060.91880,0.15662
3058.99006,0.15459
3057.06131,0.15230
3055.13257,0.15154
3053.20382,0.15417
3051.27508,0.16118
3049.34633,0.17222
3047.41759,0.18538
3045.48884,0.19798
3043.56009,0.20820
3041.63135,0.21512
3039.70260,0.21852
3037.77386,0.21933
3035.84511,0.21839
3033.91637,0.21575
3031.98762,0.21186
3030.05888,0.20722
3028.13013,0.20158
3026.20139,0.19463
3024.27264,0.18657
3022.34390,0.17787
3020.41515,0.16847
3018.48641,0.15847
3016.55766,0.14882
3014.62892,0.14009
3012.70017,0.13181
3010.77142,0.12354
3008.84268,0.11533
3006.91393,0.10724
3004.98519,0.09943
3003.05644,0.09209
3001.12770,0.08525
2999.19895,0.07886
2997.27021,0.07275
2995.34146,0.06666
2993.41272,0.06057
2991.48397,0.05456
2989.55523,0.04899
2987.62648,0.04424
2985.69774,0.04051
2983.76899,0.03786
2981.84025,0.03621
2979.91150,0.03524
2977.98275,0.03455
2976.05401,0.03394
2974.12526,0.03341
2972.19652,0.03304
2970.26777,0.03304
2968.33903,0.03342
2966.41028,0.03401
2964.48154,0.03476
2962.55279,0.03558
2960.62405,0.03638
2958.69530,0.03754
2956.76656,0.03961
2954.83781,0.04272
2952.90907,0.04667
2950.98032,0.05112
2949.05157,0.05572
2947.12283,0.06009
2945.19408,0.06409
2943.26534,0.06778
2941.33659,0.07087
2939.40785,0.07312
2937.47910,0.07491
2935.55036,0.07638
2933.62161,0.07746
2931.69287,0.07838
2929.76412,0.07918
2927.83538,0.07965
2925.90663,0.07966
2923.97789,0.07910
2922.04914,0.07830
2920.12040,0.07774
2918.19165,0.07718
2916.26290,0.07594
2914.33416,0.07340
2912.40541,0.06930
2910.47667,0.06398
2908.54792,0.05839
2906.61918,0.05368
2904.69043,0.05082
2902.76169,0.05057
2900.83294,0.05331
2898.90420,0.05850
2896.97545,0.06487
2895.04671,0.07122
2893.11796,0.07705
2891.18922,0.08248
2889.26047,0.08748
2887.33172,0.09185
2885.40298,0.09575
2883.47423,0.09943
2881.54549,0.10280
2879.61674,0.10583
2877.68800,0.10857
2875.75925,0.11094
2873.83051,0.11284
2871.90176,0.11419
2869.97302,0.11514
2868.04427,0.11609
2866.11553,0.11701
2864.18678,0.11759
2862.25804,0.11811
2860.32929,0.11903
2858.40055,0.12040
2856.47180,0.12204
2854.54305,0.12403
2852.61431,0.12677
2850.68556,0.13112
2848.75682,0.13784
2846.82807,0.14638
2844.89933,0.15505
2842.97058,0.16266
2841.04184,0.16903
2839.11309,0.17461
2837.18435,0.17969
2835.25560,0.18429
2833.32686,0.18849
2831.39811,0.19282
2829.46937,0.19815
2827.54062,0.20470
2825.61188,0.21179
2823.68313,0.21891
2821.75438,0.22579
2819.82564,0.23185
2817.89689,0.23657
2815.96815,0.23989
2814.03940,0.24192
2812.11066,0.24287
2810.18191,0.24325
2808.25317,0.24368
2806.32442,0.24467
2804.39568,0.24667
2802.46693,0.24967
2800.53819,0.25318
2798.60944,0.25663
2796.68070,0.25954
2794.75195,0.26185
2792.82320,0.26381
2790.89446,0.26525
2788.96571,0.26580
2787.03697,0.26581
2785.10822,0.26576
2783.17948,0.26569
2781.25073,0.26575
2779.32199,0.26630
2777.39324,0.26718
2775.46450,0.26784
2773.53575,0.26821
2771.60701,0.26913
2769.67826,0.27137
2767.74952,0.27493
2765.82077,0.27932
2763.89203,0.28395
2761.96328,0.28846
2760.03453,0.29274
2758.10579,0.29641
2756.17704,0.29927
2754.24830,0.30158
2752.31955,0.30349
2750.39081,0.30481
2748.46206,0.30522
2746.53332,0.30466
2744.60457,0.30375
2742.67583,0.30343
2740.74708,0.30448
2738.81834,0.30713
2736.88959,0.31109
2734.96085,0.31598
2733.03210,0.32140
2731.10336,0.32681
2729.17461,0.33186
2727.24586,0.33635
2725.31712,0.34023
2723.38837,0.34337
2721.45963,0.34540
2719.53088,0.34610
2717.60214,0.34577
2715.67339,0.34502
2713.74465,0.34462
2711.81590,0.34528
2709.88716,0.34731
2707.95841,0.35048
2706.02967,0.35429
2704.10092,0.35799
2702.17218,0.36098
2700.24343,0.36333
2698.31468,0.36528
2696.38594,0.36679
2694.45719,0.36798
2692.52845,0.36879
2690.59970,0.36903
2688.67096,0.36863
2686.74221,0.36785
2684.81347,0.36732
2682.88472,0.36732
2680.95598,0.36757
2679.02723,0.36786
2677.09849,0.36815
2675.16974,0.36816
2673.24100,0.36762
2671.31225,0.36673
2669.38351,0.36574
2667.45476,0.36471
2665.52601,0.36381
2663.59727,0.36320
2661.66852,0.36253
2659.73978,0.36153
2657.81103,0.36009
2655.88229,0.35806
2653.95354,0.35554
2652.02480,0.35288
2650.09605,0.35001
2648.16731,0.34684
2646.23856,0.34355
2644.30982,0.34023
2642.38107,0.33688
2640.45233,0.33346
2638.52358,0.32965
2636.59484,0.32510
2634.66609,0.32006
2632.73734,0.31568
2630.80860,0.31308
2628.87985,0.31246
2626.95111,0.31332
2625.02236,0.31508
2623.09362,0.31724
2621.16487,0.31958
2619.23613,0.32215
2617.30738,0.32469
2615.37864,0.32689
2613.44989,0.32864
2611.52115,0.33000
2609.59240,0.33104
2607.66366,0.33167
2605.73491,0.33156
2603.80616,0.33081
2601.87742,0.32991
2599.94867,0.32876
2598.01993,0.32681
2596.09118,0.32397
2594.16244,0.32046
2592.23369,0.31629
2590.30495,0.31158
2588.37620,0.30670
2586.44746,0.30199
2584.51871,0.29767
2582.58997,0.29413
2580.66122,0.29185
2578.73248,0.29081
2576.80373,0.29078
2574.87499,0.29163
2572.94624,0.29292
2571.01749,0.29405
2569.08875,0.29477
2567.16000,0.29501
2565.23126,0.29452
2563.30251,0.29325
2561.37377,0.29157
2559.44502,0.28981
2557.51628,0.28795
2555.58753,0.28605
2553.65879,0.28427
2551.73004,0.28264
2549.80130,0.28124
2547.87255,0.28008
2545.94381,0.27906
2544.01506,0.27810
2542.08631,0.27731
2540.15757,0.27690
2538.22882,0.27700
2536.30008,0.27764
2534.37133,0.27881
2532.44259,0.28055
2530.51384,0.28287
2528.58510,0.28567
2526.65635,0.28883
2524.72761,0.29209
2522.79886,0.29512
2520.87012,0.29797
2518.94137,0.30091
2517.01263,0.30394
2515.08388,0.30698
2513.15514,0.31009
2511.22639,0.31330
2509.29764,0.31659
2507.36890,0.32001
2505.44015,0.32338
2503.51141,0.32623
2501.58266,0.32830
2499.65392,0.32975
2497.72517,0.33108
2495.79643,0.33248
2493.86768,0.33369
2491.93894,0.33446
2490.01019,0.33501
2488.08145,0.33578
2486.15270,0.33711
2484.22396,0.33909
2482.29521,0.34173
2480.36647,0.34496
2478.43772,0.34858
2476.50897,0.35228
2474.58023,0.35578
2472.65148,0.35883
2470.72274,0.36109
2468.79399,0.36245
2466.86525,0.36324
2464.93650,0.36382
2463.00776,0.36415
2461.07901,0.36408
2459.15027,0.36373
2457.22152,0.36321
2455.29278,0.36238
2453.36403,0.36124
2451.43529,0.35996
2449.50654,0.35852
2447.57779,0.35676
2445.64905,0.35437
2443.72030,0.35090
2441.79156,0.34605
2439.86281,0.33983
2437.93407,0.33260
2436.00532,0.32488
2434.07658,0.31725
2432.14783,0.31025
2430.21909,0.30413
2428.29034,0.29871
2426.36160,0.29350
2424.43285,0.28804
2422.50411,0.28224
2420.57536,0.27624
2418.64662,0.27040
2416.71787,0.26506
2414.78912,0.26017
2412.86038,0.25560
2410.93163,0.25146
2409.00289,0.24782
2407.07414,0.24447
2405.14540,0.24111
2403.21665,0.23768
2401.28791,0.23428
2399.35916,0.23106
2397.43042,0.22806
2395.50167,0.22541
2393.57293,0.22335
2391.64418,0.22188
2389.71544,0.22075
2387.78669,0.21980
2385.85795,0.21913
2383.92920,0.21893
2382.00045,0.21918
2380.07171,0.21970
2378.14296,0.22031
2376.21422,0.22110
2374.28547,0.22246
2372.35673,0.22494
2370.42798,0.22872
2368.49924,0.23334
2366.57049,0.23849
2364.64175,0.24440
2362.71300,0.25114
2360.78426,0.25823
2358.85551,0.26526
2356.92677,0.27232
2354.99802,0.27959
2353.06927,0.28678
2351.14053,0.29345
2349.21178,0.29967
2347.28304,0.30570
2345.35429,0.31156
2343.42555,0.31720
2341.49680,0.32252
2339.56806,0.32722
2337.63931,0.33122
2335.71057,0.33461
2333.78182,0.33703
2331.85308,0.33779
2329.92433,0.33689
2327.99559,0.33509
2326.06684,0.33374
2324.13810,0.33450
2322.20935,0.33822
2320.28060,0.34405
2318.35186,0.35018
2316.42311,0.35518
2314.49437,0.35837
2312.56562,0.35965
2310.63688,0.35931
2308.70813,0.35776
2306.77939,0.35534
2304.85064,0.35214
2302.92190,0.34792
2300.99315,0.34251
2299.06441,0.33616
2297.13566,0.32912
2295.20692,0.32150
2293.27817,0.31349
2291.34943,0.30543
2289.42068,0.29796
2287.49193,0.29187
2285.56319,0.28774
2283.63444,0.28576
2281.70570,0.28576
2279.77695,0.28744
2277.84821,0.29056
2275.91946,0.29466
2273.99072,0.29899
2272.06197,0.30267
2270.13323,0.30502
2268.20448,0.30604
2266.27574,0.30612
2264.34699,0.30548
2262.41825,0.30429
2260.48950,0.30272
2258.56075,0.30060
2256.63201,0.29772
2254.70326,0.29416
2252.77452,0.29036
2250.84577,0.28666
2248.91703,0.28332
2246.98828,0.28064
2245.05954,0.27885
2243.13079,0.27779
2241.20205,0.27718
2239.27330,0.27675
2237.34456,0.27633
2235.41581,0.27583
2233.48707,0.27522
2231.55832,0.27450
2229.62958,0.27400
2227.70083,0.27399
2225.77208,0.27443
2223.84334,0.27502
2221.91459,0.27546
2219.98585,0.27547
2218.05710,0.27495
2216.12836,0.27409
2214.19961,0.27300
2212.27087,0.27169
2210.34212,0.27087
2208.41338,0.27165
2206.48463,0.27438
2204.55589,0.27829
2202.62714,0.28218
2200.69840,0.28543
2198.76965,0.28797
2196.84090,0.28985
2194.91216,0.29120
2192.98341,0.29230
2191.05467,0.29362
2189.12592,0.29572
2187.19718,0.29874
2185.26843,0.30201
2183.33969,0.30474
2181.41094,0.30689
2179.48220,0.30865
2177.55345,0.30984
2175.62471,0.31015
2173.69596,0.30963
2171.76722,0.30852
2169.83847,0.30680
2167.90973,0.30434
2165.98098,0.30148
2164.05223,0.29866
2162.12349,0.29582
2160.19474,0.29273
2158.26600,0.28944
2156.33725,0.28617
2154.40851,0.28306
2152.47976,0.28031
2150.55102,0.27812
2148.62227,0.27627
2146.69353,0.27444
2144.76478,0.27262
2142.83604,0.27091
2140.90729,0.26927
2138.97855,0.26780
2137.04980,0.26658
2135.12106,0.26546
2133.19231,0.26431
2131.26356,0.26309
2129.33482,0.26179
2127.40607,0.26049
2125.47733,0.25908
2123.54858,0.25738
2121.61984,0.25546
2119.69109,0.25355
2117.76235,0.25177
2115.83360,0.25028
2113.90486,0.24923
2111.97611,0.24868
2110.04737,0.24854
2108.11862,0.24858
2106.18988,0.24855
2104.26113,0.24842
2102.33238,0.24825
2100.40364,0.24815
2098.47489,0.24828
2096.54615,0.24878
2094.61740,0.24959
2092.68866,0.25048
2090.75991,0.25138
2088.83117,0.25250
2086.90242,0.25392
2084.97368,0.25531
2083.04493,0.25653
2081.11619,0.25786
2079.18744,0.25953
2077.25870,0.26119
2075.32995,0.26237
2073.40121,0.26313
2071.47246,0.26363
2069.54371,0.26364
2067.61497,0.26299
2065.68622,0.26200
2063.75748,0.26119
2061.82873,0.26091
2059.89999,0.26136
2057.97124,0.26252
2056.04250,0.26425
2054.11375,0.26660
2052.18501,0.26954
2050.25626,0.27265
2048.32752,0.27517
2046.39877,0.27650
2044.47003,0.27651
2042.54128,0.27533
2040.61254,0.27309
2038.68379,0.27006
2036.75504,0.26662
2034.82630,0.26322
2032.89755,0.26045
2030.96881,0.25877
2029.04006,0.25830
2027.11132,0.25889
2025.18257,0.26013
2023.25383,0.26128
2021.32508,0.26165
2019.39634,0.26115
2017.46759,0.26024
2015.53885,0.25965
2013.61010,0.25991
2011.68136,0.26096
2009.75261,0.26226
2007.82386,0.26314
2005.89512,0.26312
2003.96637,0.26187
2002.03763,0.25949
2000.10888,0.25645
1998.18014,0.25311
1996.25139,0.24949
1994.32265,0.24574
1992.39390,0.24228
1990.46516,0.23948
1988.53641,0.23752
1986.60767,0.23634
1984.67892,0.23535
1982.75018,0.23366
1980.82143,0.23086
1978.89269,0.22715
1976.96394,0.22275
1975.03519,0.21770
1973.10645,0.21199
1971.17770,0.20542
1969.24896,0.19785
1967.32021,0.18940
1965.39147,0.18035
1963.46272,0.17105
1961.53398,0.16199
1959.60523,0.15346
1957.67649,0.14559
1955.74774,0.13874
1953.81900,0.13386
1951.89025,0.13231
1949.96151,0.13499
1948.03276,0.14157
1946.10402,0.15055
1944.17527,0.16032
1942.24652,0.17019
1940.31778,0.17997
1938.38903,0.18935
1936.46029,0.19807
1934.53154,0.20620
1932.60280,0.21388
1930.67405,0.22112
1928.74531,0.22796
1926.81656,0.23444
1924.88782,0.24045
1922.95907,0.24588
1921.03033,0.25048
1919.10158,0.25410
1917.17284,0.25701
1915.24409,0.25931
1913.31534,0.26081
1911.38660,0.26152
1909.45785,0.26162
1907.52911,0.26092
1905.60036,0.25916
1903.67162,0.25672
1901.74287,0.25406
1899.81413,0.25130
1897.88538,0.24864
1895.95664,0.24629
1894.02789,0.24413
1892.09915,0.24188
1890.17040,0.23931
1888.24166,0.23631
1886.31291,0.23332
1884.38417,0.23104
1882.45542,0.22992
1880.52667,0.22993
1878.59793,0.23062
1876.66918,0.23126
1874.74044,0.23107
1872.81169,0.22963
1870.88295,0.22698
1868.95420,0.22327
1867.02546,0.21901
1865.09671,0.21492
1863.16797,0.21128
1861.23922,0.20788
1859.31048,0.20443
1857.38173,0.20070
1855.45299,0.19644
1853.52424,0.19143
1851.59549,0.18555
1849.66675,0.17877
1847.73800,0.17136
1845.80926,0.16373
1843.88051,0.15620
1841.95177,0.14923
1840.02302,0.14286
1838.09428,0.13675
1836.16553,0.13086
1834.23679,0.12535
1832.30804,0.12033
1830.37930,0.11581
1828.45055,0.11195
1826.52181,0.10896
1824.59306,0.10693
1822.66432,0.10602
1820.73557,0.10600
1818.80682,0.10631
1816.87808,0.10635
1814.94933,0.10585
1813.02059,0.10491
1811.09184,0.10371
1809.16310,0.10239
1807.23435,0.10089
1805.30561,0.09917
1803.37686,0.09756
1801.44812,0.09633
1799.51937,0.09524
1797.59063,0.09401
1795.66188,0.09263
1793.73314,0.09112
1791.80439,0.08946
1789.87565,0.08762
1787.94690,0.08554
1786.01815,0.08324
1784.08941,0.08080
1782.16066,0.07828
1780.23192,0.07569
1778.30317,0.07319
1776.37443,0.07075
1774.44568,0.06819
1772.51694,0.06545
1770.58819,0.06249
1768.65945,0.05919
1766.73070,0.05561
1764.80196,0.05215
1762.87321,0.04884
1760.94447,0.04541
1759.01572,0.04193
1757.08697,0.03837
1755.15823,0.03467
1753.22948,0.03100
1751.30074,0.02746
1749.37199,0.02419
1747.44325,0.02140
1745.51450,0.01914
1743.58576,0.01743
1741.65701,0.01621
1739.72827,0.01553
1737.79952,0.01541
1735.87078,0.01575
1733.94203,0.01661
1732.01329,0.01784
1730.08454,0.01917
1728.15580,0.02088
1726.22705,0.02303
1724.29830,0.02540
1722.36956,0.02774
1720.44081,0.02996
1718.51207,0.03202
1716.58332,0.03335
1714.65458,0.03341
1712.72583,0.03257
1710.79709,0.03131
1708.86834,0.02992
1706.93960,0.02897
1705.01085,0.02879
1703.08211,0.02914
1701.15336,0.02990
1699.22462,0.03112
1697.29587,0.03283
1695.36713,0.03501
1693.43838,0.03722
1691.50963,0.03917
1689.58089,0.04095
1687.65214,0.04238
1685.72340,0.04344
1683.79465,0.04436
1681.86591,0.04520
1679.93716,0.04584
1678.00842,0.04619
1676.07967,0.04654
1674.15093,0.04776
1672.22218,0.05071
1670.29344,0.05569
1668.36469,0.06198
1666.43595,0.06827
1664.50720,0.07442
1662.57845,0.08054
1660.64971,0.08592
1658.72096,0.09028
1656.79222,0.09377
1654.86347,0.09676
1652.93473,0.09975
1651.00598,0.10231
1649.07724,0.10436
1647.14849,0.10649
1645.21975,0.10849
1643.29100,0.11013
1641.36226,0.11176
1639.43351,0.11350
1637.50477,0.11523
1635.57602,0.11718
1633.64728,0.11947
1631.71853,0.12168
1629.78978,0.12346
1627.86104,0.12478
1625.93229,0.12559
1624.00355,0.12545
1622.07480,0.12348
1620.14606,0.11907
1618.21731,0.11206
1616.28857,0.10409
1614.35982,0.09953
1612.43108,0.10007
1610.50233,0.10434
1608.57359,0.11085
1606.64484,0.11810
1604.71610,0.12502
1602.78735,0.13127
1600.85861,0.13655
1598.92986,0.14013
1597.00111,0.14131
1595.07237,0.14007
1593.14362,0.13703
1591.21488,0.13268
1589.28613,0.12658
1587.35739,0.11772
1585.42864,0.10561
1583.49990,0.09128
1581.57115,0.07755
1579.64241,0.06798
1577.71366,0.06503
1575.78492,0.06968
1573.85617,0.07955
1571.92743,0.09108
1569.99868,0.10298
1568.06993,0.11326
1566.14119,0.12051
1564.21244,0.12532
1562.28370,0.12850
1560.35495,0.13053
1558.42621,0.13156
1556.49746,0.13211
1554.56872,0.13293
1552.63997,0.13407
1550.71123,0.13515
1548.78248,0.13588
1546.85374,0.13595
1544.92499,0.13509
1542.99625,0.13314
1541.06750,0.13003
1539.13876,0.12537
1537.21001,0.11953
1535.28126,0.11284
1533.35252,0.10532
1531.42377,0.09873
1529.49503,0.09471
1527.56628,0.09315
1525.63754,0.09335
1523.70879,0.09427
1521.78005,0.09491
1519.85130,0.09426
1517.92256,0.09143
1515.99381,0.08608
1514.06507,0.07827
1512.13632,0.06788
1510.20758,0.05550
1508.27883,0.04268
1506.35008,0.03249
1504.42134,0.03025
1502.49259,0.03706
1500.56385,0.05070
1498.63510,0.06783
1496.70636,0.08449
1494.77761,0.09665
1492.84887,0.10213
1490.92012,0.10162
1488.99138,0.09664
1487.06263,0.08876
1485.13389,0.07932
1483.20514,0.06927
1481.27640,0.05931
1479.34765,0.05013
1477.41891,0.04221
1475.49016,0.03578
1473.56141,0.03101
1471.63267,0.02789
1469.70392,0.02619
1467.77518,0.02538
1465.84643,0.02522
1463.91769,0.02586
1461.98894,0.02720
1460.06020,0.02888
1458.13145,0.03066
1456.20271,0.03243
1454.27396,0.03421
1452.34522,0.03643
1450.41647,0.03942
1448.48773,0.04289
1446.55898,0.04614
1444.63024,0.04872
1442.70149,0.05054
1440.77274,0.05176
1438.84400,0.05262
1436.91525,0.05294
1434.98651,0.05230
1433.05776,0.05075
1431.12902,0.04822
1429.20027,0.04440
1427.27153,0.03962
1425.34278,0.03491
1423.41404,0.03116
1421.48529,0.02843
1419.55655,0.02595
1417.62780,0.02323
1415.69906,0.02072
1413.77031,0.01899
1411.84156,0.01833
1409.91282,0.01855
1407.98407,0.01924
1406.05533,0.02025
1404.12658,0.02164
1402.19784,0.02333
1400.26909,0.02488
1398.34035,0.02555
1396.41160,0.02498
1394.48286,0.02379
1392.55411,0.02289
1390.62537,0.02261
1388.69662,0.02268
1386.76788,0.02292
1384.83913,0.02340
1382.91039,0.02414
1380.98164,0.02484
1379.05289,0.02534
1377.12415,0.02595
1375.19540,0.02703
1373.26666,0.02841
1371.33791,0.02947
1369.40917,0.02979
1367.48042,0.02937
1365.55168,0.02844
1363.62293,0.02719
1361.69419,0.02582
1359.76544,0.02471
1357.83670,0.02431
1355.90795,0.02489
1353.97921,0.02641
1352.05046,0.02845
1350.12172,0.03036
1348.19297,0.03154
1346.26422,0.03173
1344.33548,0.03095
1342.40673,0.02941
1340.47799,0.02749
1338.54924,0.02554
1336.62050,0.02370
1334.69175,0.02215
1332.76301,0.02115
1330.83426,0.02055
1328.90552,0.02001
1326.97677,0.01951
1325.04803,0.01906
1323.11928,0.01845
1321.19054,0.01774
1319.26179,0.01713
1317.33304,0.01657
1315.40430,0.01597
1313.47555,0.01543
1311.54681,0.01502
1309.61806,0.01468
1307.68932,0.01436
1305.76057,0.01425
1303.83183,0.01458
1301.90308,0.01512
1299.97434,0.01549
1298.04559,0.01579
1296.11685,0.01631
1294.18810,0.01705
1292.25936,0.01805
1290.33061,0.01942
1288.40187,0.02110
1286.47312,0.02313
1284.54437,0.02553
1282.61563,0.02815
1280.68688,0.03082
1278.75814,0.03341
1276.82939,0.03561
1274.90065,0.03721
1272.97190,0.03840
1271.04316,0.03937
1269.11441,0.03993
1267.18567,0.03981
1265.25692,0.03909
1263.32818,0.03814
1261.39943,0.03722
1259.47069,0.03635
1257.54194,0.03567
1255.61320,0.03545
1253.68445,0.03577
1251.75570,0.03645
1249.82696,0.03713
1247.89821,0.03754
1245.96947,0.03740
1244.04072,0.03667
1242.11198,0.03575
1240.18323,0.03504
1238.25449,0.03457
1236.32574,0.03422
1234.39700,0.03392
1232.46825,0.03379
1230.53951,0.03414
1228.61076,0.03502
1226.68202,0.03592
1224.75327,0.03643
1222.82452,0.03708
1220.89578,0.03883
1218.96703,0.04202
1217.03829,0.04611
1215.10954,0.05019
1213.18080,0.05344
1211.25205,0.05562
1209.32331,0.05721
1207.39456,0.05881
1205.46582,0.06058
1203.53707,0.06257
1201.60833,0.06503
1199.67958,0.06826
1197.75084,0.07210
1195.82209,0.07588
1193.89335,0.07883
1191.96460,0.08043
1190.03585,0.08053
1188.10711,0.07894
1186.17836,0.07547
1184.24962,0.07048
1182.32087,0.06463
1180.39213,0.05853
1178.46338,0.05296
1176.53464,0.04854
1174.60589,0.04571
1172.67715,0.04475
1170.74840,0.04527
1168.81966,0.04631
1166.89091,0.04698
1164.96217,0.04668
1163.03342,0.04526
1161.10467,0.04301
1159.17593,0.04034
1157.24718,0.03733
1155.31844,0.03400
1153.38969,0.03060
1151.46095,0.02742
1149.53220,0.02469
1147.60346,0.02248
1145.67471,0.02066
1143.74597,0.01927
1141.81722,0.01835
1139.88848,0.01768
1137.95973,0.01719
1136.03099,0.01708
1134.10224,0.01786
1132.17350,0.01999
1130.24475,0.02293
1128.31600,0.02558
1126.38726,0.02734
1124.45851,0.02814
1122.52977,0.02809
1120.60102,0.02737
1118.67228,0.02634
1116.74353,0.02556
1114.81479,0.02523
1112.88604,0.02505
1110.95730,0.02492
1109.02855,0.02532
1107.09981,0.02654
1105.17106,0.02829
1103.24232,0.02989
1101.31357,0.03067
1099.38483,0.03061
1097.45608,0.03010
1095.52733,0.02951
1093.59859,0.02904
1091.66984,0.02871
1089.74110,0.02849
1087.81235,0.02843
1085.88361,0.02873
1083.95486,0.02969
1082.02612,0.03146
1080.09737,0.03416
1078.16863,0.03802
1076.23988,0.04289
1074.31114,0.04826
1072.38239,0.05342
1070.45365,0.05778
1068.52490,0.06115
1066.59615,0.06350
1064.66741,0.06502
1062.73866,0.06570
1060.80992,0.06491
1058.88117,0.06227
1056.95243,0.05804
1055.02368,0.05260
1053.09494,0.04642
1051.16619,0.04045
1049.23745,0.03560
1047.30870,0.03199
1045.37996,0.02959
1043.45121,0.02876
1041.52247,0.02938
1039.59372,0.03053
1037.66498,0.03140
1035.73623,0.03189
1033.80748,0.03214
1031.87874,0.03208
1029.94999,0.03137
1028.02125,0.02962
1026.09250,0.02741
1024.16376,0.02605
1022.23501,0.02582
1020.30627,0.02637
1018.37752,0.02817
1016.44878,0.03240
1014.52003,0.04013
1012.59129,0.05160
1010.66254,0.06606
1008.73380,0.08160
1006.80505,0.09547
1004.87631,0.10596
1002.94756,0.11321
1001.01881,0.11793
999.09007,0.12063
997.16132,0.12157
995.23258,0.12053
993.30383,0.11704
991.37509,0.11151
989.44634,0.10537
987.51760,0.09960
985.58885,0.09401
983.66011,0.08812
981.73136,0.08208
979.80262,0.07682
977.87387,0.07326
975.94513,0.07149
974.01638,0.07123
972.08763,0.07251
970.15889,0.07543
968.23014,0.07960
966.30140,0.08410
964.37265,0.08809
962.44391,0.09052
960.51516,0.09017
958.58642,0.08658
956.65767,0.08055
954.72893,0.07356
952.80018,0.06715
950.87144,0.06265
948.94269,0.06091
947.01395,0.06176
945.08520,0.06348
943.15646,0.06381
941.22771,0.06224
939.29896,0.06017
937.37022,0.05911
935.44147,0.05961
933.51273,0.06145
931.58398,0.06456
929.65524,0.06912
927.72649,0.07483
925.79775,0.08098
923.86900,0.08693
921.94026,0.09187
920.01151,0.09496
918.08277,0.09609
916.15402,0.09592
914.22528,0.09506
912.29653,0.09326
910.36779,0.09040
908.43904,0.08787
906.51029,0.08715
904.58155,0.08828
902.65280,0.09047
900.72406,0.09304
898.79531,0.09590
896.86657,0.09917
894.93782,0.10238
893.00908,0.10469
891.08033,0.10532
889.15159,0.10314
887.22284,0.09737
885.29410,0.08830
883.36535,0.07664
881.43661,0.06374
879.50786,0.05160
877.57911,0.04205
875.65037,0.03563
873.72162,0.03239
871.79288,0.03476
869.86413,0.04555
867.93539,0.06199
866.00664,0.07718
864.07790,0.08647
862.14915,0.08907
860.22041,0.08637
858.29166,0.08098
856.36292,0.07578
854.43417,0.07218
852.50543,0.07007
850.57668,0.06918
848.64794,0.06930
846.71919,0.07040
844.79044,0.07284
842.86170,0.07685
840.93295,0.08220
839.00421,0.08862
837.07546,0.09512
835.14672,0.10022
833.21797,0.10365
831.28923,0.10603
829.36048,0.10761
827.43174,0.10820
825.50299,0.10807
823.57425,0.10779
821.64550,0.10770
819.71676,0.10794
817.78801,0.10822
815.85926,0.10843
813.93052,0.10897
812.00177,0.10978
810.07303,0.11032
808.14428,0.11101
806.21554,0.11284
804.28679,0.11531
802.35805,0.11581
800.42930,0.11037
798.50056,0.09779
796.57181,0.08468
794.64307,0.08092
792.71432,0.08923
790.78558,0.10383
788.85683,0.11771
786.92809,0.12761
784.99934,0.13323
783.07059,0.13492
781.14185,0.13339
779.21310,0.12950
777.28436,0.12456
775.35561,0.12096
773.42687,0.12025
771.49812,0.12163
769.56938,0.12373
767.64063,0.12594
765.71189,0.12764
763.78314,0.12802
761.85440,0.12694
759.92565,0.12511
757.99691,0.12303
756.06816,0.12024
754.13942,0.11603
752.21067,0.10991
750.28192,0.10159
748.35318,0.09107
746.42443,0.07822
744.49569,0.06331
742.56694,0.04789
740.63820,0.03437
738.70945,0.02478
736.78071,0.01999
734.85196,0.01939
732.92322,0.02124
730.99447,0.02430
729.06573,0.02779
727.13698,0.03063
725.20824,0.03256
723.27949,0.03545
721.35074,0.04253
719.42200,0.05534
717.49325,0.07136
715.56451,0.08632
713.63576,0.09791
711.70702,0.10539
709.77827,0.10851
707.84953,0.10905
705.92078,0.11074
703.99204,0.11684
702.06329,0.12881
700.13455,0.14511
698.20580,0.16136
696.27706,0.17378
694.34831,0.18204
692.41957,0.18761
690.49082,0.19081
688.56207,0.19076
686.63333,0.18770
684.70458,0.18294
682.77584,0.17776
680.84709,0.17461
678.91835,0.17643
676.98960,0.18259
675.06086,0.18958
673.13211,0.19535
671.20337,0.19975
669.27462,0.20303
667.34588,0.20551
665.41713,0.20774
663.48839,0.20996
661.55964,0.21137
659.63090,0.21158
657.70215,0.21181
655.77340,0.21335
653.84466,0.21576
651.91591,0.21720
649.98717,0.21753
648.05842,0.21803
646.12968,0.21879
644.20093,0.21957
642.27219,0.22014
640.34344,0.21953
638.41470,0.21594
636.48595,0.20586
634.55721,0.18876
632.62846,0.17729
630.69972,0.18543
628.77097,0.20491
626.84222,0.21948
624.91348,0.22703
622.98473,0.23148
621.05599,0.23340
619.12724,0.23374
617.19850,0.23472
615.26975,0.23659
613.34101,0.23781
611.41226,0.23845
609.48352,0.23961
607.55477,0.24064
605.62603,0.24079
603.69728,0.24081
601.76854,0.24065
599.83979,0.23973
