7497.03301,0.85068
7495.10426,0.84500
7493.17552,0.84144
7491.24677,0.84315
7489.31803,0.84664
7487.38928,0.84744
7485.46054,0.84420
7483.53179,0.83861
7481.60305,0.83446
7479.67430,0.83455
7477.74556,0.83700
7475.81681,0.84017
7473.88807,0.84512
7471.95932,0.84655
7470.03057,0.84009
7468.10183,0.83415
7466.17308,0.83711
7464.24434,0.84234
7462.31559,0.84121
7460.38685,0.83887
7458.45810,0.83921
7456.52936,0.83967
7454.60061,0.84312
7452.67187,0.84869
7450.74312,0.84956
7448.81438,0.84606
7446.88563,0.84091
7444.95689,0.83327
7443.02814,0.82821
7441.09940,0.83317
7439.17065,0.84161
7437.24190,0.84134
7435.31316,0.83528
7433.38441,0.83418
7431.45567,0.83685
7429.52692,0.83483
7427.59818,0.82882
7425.66943,0.82642
7423.74069,0.82849
7421.81194,0.82778
7419.88320,0.82250
7417.95445,0.82077
7416.02571,0.82484
7414.09696,0.82765
7412.16822,0.82773
7410.23947,0.82981
7408.31073,0.83188
7406.38198,0.82751
7404.45323,0.82085
7402.52449,0.82087
7400.59574,0.82427
7398.66700,0.82450
7396.73825,0.82353
7394.80951,0.82361
7392.88076,0.82101
7390.95202,0.81326
7389.02327,0.80748
7387.09453,0.81014
7385.16578,0.81733
7383.23704,0.82332
7381.30829,0.82399
7379.37955,0.81949
7377.45080,0.81681
7375.52205,0.81822
7373.59331,0.81847
7371.66456,0.81420
7369.73582,0.80643
7367.80707,0.80104
7365.87833,0.80229
7363.94958,0.80619
7362.02084,0.80900
7360.09209,0.81083
7358.16335,0.81242
7356.23460,0.81201
7354.30586,0.80585
7352.37711,0.79767
7350.44837,0.79399
7348.51962,0.79461
7346.59088,0.79531
7344.66213,0.79416
7342.73338,0.79438
7340.80464,0.79665
7338.87589,0.79642
7336.94715,0.79347
7335.01840,0.79250
7333.08966,0.79351
7331.16091,0.79245
7329.23217,0.79006
7327.30342,0.78763
7325.37468,0.78550
7323.44593,0.78499
7321.51719,0.78388
7319.58844,0.78125
7317.65970,0.77885
7315.73095,0.77887
7313.80221,0.78361
7311.87346,0.79101
7309.94471,0.79641
7308.01597,0.79824
7306.08722,0.80059
7304.15848,0.80574
7302.22973,0.80708
7300.30099,0.80116
7298.37224,0.79416
7296.44350,0.79212
7294.51475,0.79581
7292.58601,0.80234
7290.65726,0.80619
7288.72852,0.80364
7286.79977,0.79835
7284.87103,0.79587
7282.94228,0.79644
7281.01353,0.79717
7279.08479,0.79644
7277.15604,0.79516
7275.22730,0.79238
7273.29855,0.78738
7271.36981,0.78640
7269.44106,0.79227
7267.51232,0.79682
7265.58357,0.79645
7263.65483,0.79576
7261.72608,0.79464
7259.79734,0.79264
7257.86859,0.79111
7255.93985,0.78899
7254.01110,0.78966
7252.08236,0.79550
7250.15361,0.80071
7248.22486,0.80115
7246.29612,0.79890
7244.36737,0.79747
7242.43863,0.79619
7240.50988,0.79307
7238.58114,0.79078
7236.65239,0.78989
7234.72365,0.78744
7232.79490,0.78499
7230.86616,0.78590
7228.93741,0.78956
7227.00867,0.79150
7225.07992,0.78819
7223.15118,0.78447
7221.22243,0.78656
7219.29369,0.79064
7217.36494,0.78978
7215.43619,0.78366
7213.50745,0.77741
7211.57870,0.77503
7209.64996,0.77556
7207.72121,0.77565
7205.79247,0.77461
7203.86372,0.77467
7201.93498,0.77527
7200.00623,0.77487
7198.07749,0.77527
7196.14874,0.77631
7194.22000,0.77606
7192.29125,0.77584
7190.36251,0.77767
7188.43376,0.78033
7186.50501,0.78309
7184.57627,0.78676
7182.64752,0.78766
7180.71878,0.78424
7178.79003,0.78348
7176.86129,0.78762
7174.93254,0.79010
7173.00380,0.78916
7171.07505,0.79000
7169.14631,0.79142
7167.21756,0.78769
7165.28882,0.78340
7163.36007,0.78581
7161.43133,0.79050
7159.50258,0.78989
7157.57384,0.78469
7155.64509,0.78084
7153.71634,0.78167
7151.78760,0.78491
7149.85885,0.78623
7147.93011,0.78426
7146.00136,0.78162
7144.07262,0.78061
7142.14387,0.78118
7140.21513,0.78331
7138.28638,0.78564
7136.35764,0.78634
7134.42889,0.78722
7132.50015,0.78837
7130.57140,0.78717
7128.64266,0.78589
7126.71391,0.78714
7124.78516,0.78946
7122.85642,0.79243
7120.92767,0.79525
7118.99893,0.79522
7117.07018,0.79205
7115.14144,0.78888
7113.21269,0.78814
7111.28395,0.78749
7109.35520,0.78551
7107.42646,0.78498
7105.49771,0.78636
7103.56897,0.78731
7101.64022,0.78452
7099.71148,0.77815
7097.78273,0.77477
7095.85399,0.77730
7093.92524,0.78163
7091.99649,0.78512
7090.06775,0.78719
7088.13900,0.78588
7086.21026,0.78258
7084.28151,0.78197
7082.35277,0.78259
7080.42402,0.78163
7078.49528,0.78307
7076.56653,0.78776
7074.63779,0.78960
7072.70904,0.78674
7070.78030,0.78342
7068.85155,0.78174
7066.92281,0.78139
7064.99406,0.78287
7063.06532,0.78576
7061.13657,0.78829
7059.20782,0.78797
7057.27908,0.78396
7055.35033,0.77964
7053.42159,0.77956
7051.49284,0.78305
7049.56410,0.78389
7047.63535,0.78133
7045.70661,0.78063
7043.77786,0.78052
7041.84912,0.77692
7039.92037,0.77149
7037.99163,0.76717
7036.06288,0.76593
7034.13414,0.76980
7032.20539,0.77583
7030.27664,0.77864
7028.34790,0.78024
7026.41915,0.78289
7024.49041,0.78081
7022.56166,0.77269
7020.63292,0.76700
7018.70417,0.76829
7016.77543,0.77281
7014.84668,0.77684
7012.91794,0.77838
7010.98919,0.77625
7009.06045,0.77236
7007.13170,0.77026
7005.20296,0.77284
7003.27421,0.77984
7001.34547,0.78563
6999.41672,0.78514
6997.48797,0.78124
6995.55923,0.78041
6993.63048,0.78359
6991.70174,0.78697
6989.77299,0.78749
6987.84425,0.78556
6985.91550,0.78498
6983.98676,0.78666
6982.05801,0.78785
6980.12927,0.78937
6978.20052,0.79294
6976.27178,0.79654
6974.34303,0.79797
6972.41429,0.79751
6970.48554,0.79700
6968.55680,0.79831
6966.62805,0.80180
6964.69930,0.80417
6962.77056,0.80225
6960.84181,0.79879
6958.91307,0.79787
6956.98432,0.79928
6955.05558,0.79973
6953.12683,0.79780
6951.19809,0.79642
6949.26934,0.79758
6947.34060,0.80030
6945.41185,0.80169
6943.48311,0.79917
6941.55436,0.79594
6939.62562,0.79660
6937.69687,0.79939
6935.76812,0.79964
6933.83938,0.79673
6931.91063,0.79355
6929.98189,0.79220
6928.05314,0.79416
6926.12440,0.79849
6924.19565,0.80120
6922.26691,0.80207
6920.33816,0.80349
6918.40942,0.80459
6916.48067,0.80428
6914.55193,0.80319
6912.62318,0.80227
6910.69444,0.80264
6908.76569,0.80384
6906.83695,0.80424
6904.90820,0.80394
6902.97945,0.80320
6901.05071,0.80177
6899.12196,0.80168
6897.19322,0.80464
6895.26447,0.80746
6893.33573,0.80588
6891.40698,0.80197
6889.47824,0.80088
6887.54949,0.80170
6885.62075,0.80041
6883.69200,0.79854
6881.76326,0.79983
6879.83451,0.80289
6877.90577,0.80358
6875.97702,0.80108
6874.04828,0.79972
6872.11953,0.80365
6870.19078,0.81070
6868.26204,0.81629
6866.33329,0.81853
6864.40455,0.81746
6862.47580,0.81426
6860.54706,0.81115
6858.61831,0.81019
6856.68957,0.81119
6854.76082,0.81180
6852.83208,0.81052
6850.90333,0.80925
6848.97459,0.80843
6847.04584,0.80544
6845.11710,0.80353
6843.18835,0.80723
6841.25960,0.81313
6839.33086,0.81605
6837.40211,0.81529
6835.47337,0.81434
6833.54462,0.81581
6831.61588,0.81690
6829.68713,0.81544
6827.75839,0.81454
6825.82964,0.81631
6823.90090,0.81964
6821.97215,0.82271
6820.04341,0.82302
6818.11466,0.82002
6816.18592,0.81496
6814.25717,0.81029
6812.32843,0.81095
6810.39968,0.81707
6808.47093,0.82280
6806.54219,0.82668
6804.61344,0.83044
6802.68470,0.83157
6800.75595,0.82863
6798.82721,0.82412
6796.89846,0.81931
6794.96972,0.81669
6793.04097,0.81912
6791.11223,0.82340
6789.18348,0.82466
6787.25474,0.82318
6785.32599,0.82237
6783.39725,0.82332
6781.46850,0.82512
6779.53975,0.82745
6777.61101,0.82834
6775.68226,0.82579
6773.75352,0.82272
6771.82477,0.82283
6769.89603,0.82473
6767.96728,0.82679
6766.03854,0.82908
6764.10979,0.82960
6762.18105,0.82848
6760.25230,0.82749
6758.32356,0.82632
6756.39481,0.82636
6754.46607,0.82837
6752.53732,0.82925
6750.60858,0.82820
6748.67983,0.82752
6746.75108,0.82757
6744.82234,0.82715
6742.89359,0.82664
6740.96485,0.82804
6739.03610,0.83002
6737.10736,0.82761
6735.17861,0.82226
6733.24987,0.82121
6731.32112,0.82470
6729.39238,0.82772
6727.46363,0.82902
6725.53489,0.82936
6723.60614,0.82856
6721.67740,0.82792
6719.74865,0.82890
6717.81991,0.83141
6715.89116,0.83462
6713.96241,0.83600
6712.03367,0.83521
6710.10492,0.83565
6708.17618,0.83617
6706.24743,0.83316
6704.31869,0.83094
6702.38994,0.83300
6700.46120,0.83250
6698.53245,0.82690
6696.60371,0.82356
6694.67496,0.82478
6692.74622,0.82708
6690.81747,0.82920
6688.88873,0.83001
6686.95998,0.82928
6685.03123,0.83008
6683.10249,0.83284
6681.17374,0.83494
6679.24500,0.83521
6677.31625,0.83328
6675.38751,0.83099
6673.45876,0.83145
6671.53002,0.83388
6669.60127,0.83515
6667.67253,0.83367
6665.74378,0.83103
6663.81504,0.83080
6661.88629,0.83367
6659.95755,0.83615
6658.02880,0.83606
6656.10006,0.83630
6654.17131,0.83846
6652.24256,0.83833
6650.31382,0.83450
6648.38507,0.83274
6646.45633,0.83530
6644.52758,0.83640
6642.59884,0.83367
6640.67009,0.83091
6638.74135,0.83033
6636.81260,0.83182
6634.88386,0.83405
6632.95511,0.83582
6631.02637,0.83772
6629.09762,0.84010
6627.16888,0.84284
6625.24013,0.84458
6623.31139,0.84376
6621.38264,0.84216
6619.45389,0.84146
6617.52515,0.84104
6615.59640,0.84044
6613.66766,0.83953
6611.73891,0.83870
6609.81017,0.83883
6607.88142,0.83993
6605.95268,0.84117
6604.02393,0.84188
6602.09519,0.84214
6600.16644,0.84183
6598.23770,0.84066
6596.30895,0.84042
6594.38021,0.84175
6592.45146,0.84255
6590.52271,0.84266
6588.59397,0.84287
6586.66522,0.84270
6584.73648,0.84131
6582.80773,0.83892
6580.87899,0.83798
6578.95024,0.83913
6577.02150,0.83964
6575.09275,0.83861
6573.16401,0.83827
6571.23526,0.83904
6569.30652,0.83817
6567.37777,0.83678
6565.44903,0.83872
6563.52028,0.84151
6561.59154,0.84112
6559.66279,0.83922
6557.73404,0.83786
6555.80530,0.83742
6553.87655,0.83848
6551.94781,0.83996
6550.01906,0.84112
6548.09032,0.84155
6546.16157,0.83975
6544.23283,0.83767
6542.30408,0.83784
6540.37534,0.83835
6538.44659,0.83846
6536.51785,0.84020
6534.58910,0.84261
6532.66036,0.84411
6530.73161,0.84505
6528.80287,0.84333
6526.87412,0.83858
6524.94537,0.83657
6523.01663,0.83915
6521.08788,0.84091
6519.15914,0.84074
6517.23039,0.84229
6515.30165,0.84387
6513.37290,0.84231
6511.44416,0.84048
6509.51541,0.84124
6507.58667,0.84243
6505.65792,0.84184
6503.72918,0.84115
6501.80043,0.84263
6499.87169,0.84437
6497.94294,0.84301
6496.01419,0.84033
6494.08545,0.83896
6492.15670,0.83819
6490.22796,0.83803
6488.29921,0.83867
6486.37047,0.83909
6484.44172,0.83986
6482.51298,0.84261
6480.58423,0.84596
6478.65549,0.84614
6476.72674,0.84301
6474.79800,0.83955
6472.86925,0.83853
6470.94051,0.84014
6469.01176,0.84126
6467.08302,0.84088
6465.15427,0.84072
6463.22552,0.84127
6461.29678,0.84160
6459.36803,0.84094
6457.43929,0.84066
6455.51054,0.84152
6453.58180,0.84236
6451.65305,0.84193
6449.72431,0.84040
6447.79556,0.84037
6445.86682,0.84107
6443.93807,0.83880
6442.00933,0.83513
6440.08058,0.83381
6438.15184,0.83532
6436.22309,0.83899
6434.29434,0.84303
6432.36560,0.84491
6430.43685,0.84386
6428.50811,0.84121
6426.57936,0.83971
6424.65062,0.84076
6422.72187,0.84240
6420.79313,0.84293
6418.86438,0.84213
6416.93564,0.84076
6415.00689,0.84042
6413.07815,0.84018
6411.14940,0.83874
6409.22066,0.83790
6407.29191,0.83840
6405.36317,0.83904
6403.43442,0.83917
6401.50567,0.83871
6399.57693,0.83862
6397.64818,0.83973
6395.71944,0.84067
6393.79069,0.84001
6391.86195,0.83958
6389.93320,0.84201
6388.00446,0.84502
6386.07571,0.84394
6384.14697,0.84028
6382.21822,0.83800
6380.28948,0.83692
6378.36073,0.83717
6376.43199,0.83810
6374.50324,0.83705
6372.57450,0.83504
6370.64575,0.83464
6368.71700,0.83628
6366.78826,0.83856
6364.85951,0.83980
6362.93077,0.83904
6361.00202,0.83734
6359.07328,0.83817
6357.14453,0.84080
6355.21579,0.84068
6353.28704,0.83749
6351.35830,0.83516
6349.42955,0.83619
6347.50081,0.83804
6345.57206,0.83770
6343.64332,0.83566
6341.71457,0.83314
6339.78582,0.83198
6337.85708,0.83370
6335.92833,0.83534
6333.99959,0.83317
6332.07084,0.82944
6330.14210,0.82823
6328.21335,0.83045
6326.28461,0.83427
6324.35586,0.83615
6322.42712,0.83459
6320.49837,0.83144
6318.56963,0.83037
6316.64088,0.83348
6314.71214,0.83759
6312.78339,0.83865
6310.85465,0.83746
6308.92590,0.83727
6306.99715,0.83804
6305.06841,0.83764
6303.13966,0.83704
6301.21092,0.83739
6299.28217,0.83716
6297.35343,0.83590
6295.42468,0.83459
6293.49594,0.83393
6291.56719,0.83467
6289.63845,0.83513
6287.70970,0.83305
6285.78096,0.83133
6283.85221,0.83318
6281.92347,0.83611
6279.99472,0.83691
6278.06598,0.83581
6276.13723,0.83429
6274.20848,0.83328
6272.27974,0.83253
6270.35099,0.83114
6268.42225,0.82925
6266.49350,0.82738
6264.56476,0.82681
6262.63601,0.82865
6260.70727,0.83032
6258.77852,0.82947
6256.84978,0.82728
6254.92103,0.82506
6252.99229,0.82450
6251.06354,0.82674
6249.13480,0.82863
6247.20605,0.82773
6245.27730,0.82635
6243.34856,0.82558
6241.41981,0.82435
6239.49107,0.82313
6237.56232,0.82260
6235.63358,0.82262
6233.70483,0.82330
6231.77609,0.82434
6229.84734,0.82365
6227.91860,0.82071
6225.98985,0.81785
6224.06111,0.81536
6222.13236,0.81233
6220.20362,0.81036
6218.27487,0.81067
6216.34613,0.81142
6214.41738,0.81078
6212.48863,0.80834
6210.55989,0.80374
6208.63114,0.79825
6206.70240,0.79340
6204.77365,0.78886
6202.84491,0.78481
6200.91616,0.78105
6198.98742,0.77640
6197.05867,0.77251
6195.12993,0.77196
6193.20118,0.77334
6191.27244,0.77378
6189.34369,0.77381
6187.41495,0.77581
6185.48620,0.77967
6183.55746,0.78271
6181.62871,0.78298
6179.69996,0.78104
6177.77122,0.77975
6175.84247,0.78076
6173.91373,0.78164
6171.98498,0.78068
6170.05624,0.77919
6168.12749,0.77832
6166.19875,0.77757
6164.27000,0.77566
6162.34126,0.77329
6160.41251,0.77219
6158.48377,0.77158
6156.55502,0.76999
6154.62628,0.76746
6152.69753,0.76517
6150.76878,0.76371
6148.84004,0.76183
6146.91129,0.75904
6144.98255,0.75694
6143.05380,0.75711
6141.12506,0.75866
6139.19631,0.75877
6137.26757,0.75733
6135.33882,0.75586
6133.41008,0.75356
6131.48133,0.75162
6129.55259,0.75306
6127.62384,0.75472
6125.69510,0.75193
6123.76635,0.74758
6121.83761,0.74470
6119.90886,0.74056
6117.98011,0.73425
6116.05137,0.72854
6114.12262,0.72403
6112.19388,0.71890
6110.26513,0.71190
6108.33639,0.70338
6106.40764,0.69509
6104.47890,0.68758
6102.55015,0.67979
6100.62141,0.67213
6098.69266,0.66508
6096.76392,0.65756
6094.83517,0.64910
6092.90643,0.64039
6090.97768,0.63254
6089.04893,0.62618
6087.12019,0.62157
6085.19144,0.61852
6083.26270,0.61524
6081.33395,0.61082
6079.40521,0.60577
6077.47646,0.60024
6075.54772,0.59453
6073.61897,0.58807
6071.69023,0.57943
6069.76148,0.56875
6067.83274,0.55816
6065.90399,0.54953
6063.97525,0.54233
6062.04650,0.53487
6060.11776,0.52658
6058.18901,0.51899
6056.26026,0.51428
6054.33152,0.51150
6052.40277,0.50797
6050.47403,0.50359
6048.54528,0.49934
6046.61654,0.49481
6044.68779,0.48989
6042.75905,0.48549
6040.83030,0.48252
6038.90156,0.48113
6036.97281,0.48038
6035.04407,0.47865
6033.11532,0.47571
6031.18658,0.47296
6029.25783,0.47054
6027.32909,0.46801
6025.40034,0.46619
6023.47159,0.46581
6021.54285,0.46675
6019.61410,0.46803
6017.68536,0.46944
6015.75661,0.47196
6013.82787,0.47547
6011.89912,0.47940
6009.97038,0.48373
6008.04163,0.48843
6006.11289,0.49345
6004.18414,0.49954
6002.25540,0.50788
6000.32665,0.51719
5998.39791,0.52522
5996.46916,0.53261
5994.54041,0.53981
5992.61167,0.54548
5990.68292,0.54999
5988.75418,0.55509
5986.82543,0.56049
5984.89669,0.56369
5982.96794,0.56485
5981.03920,0.56674
5979.11045,0.56918
5977.18171,0.57121
5975.25296,0.57353
5973.32422,0.57527
5971.39547,0.57533
5969.46673,0.57491
5967.53798,0.57543
5965.60924,0.57601
5963.68049,0.57600
5961.75174,0.57651
5959.82300,0.57742
5957.89425,0.57691
5955.96551,0.57459
5954.03676,0.57184
5952.10802,0.56920
5950.17927,0.56607
5948.25053,0.56191
5946.32178,0.55717
5944.39304,0.55362
5942.46429,0.55239
5940.53555,0.55364
5938.60680,0.55676
5936.67806,0.55984
5934.74931,0.56277
5932.82057,0.56718
5930.89182,0.57233
5928.96307,0.57676
5927.03433,0.58118
5925.10558,0.58588
5923.17684,0.58986
5921.24809,0.59339
5919.31935,0.59721
5917.39060,0.60111
5915.46186,0.60503
5913.53311,0.60777
5911.60437,0.60795
5909.67562,0.60755
5907.74688,0.60859
5905.81813,0.60969
5903.88939,0.60975
5901.96064,0.60935
5900.03189,0.60937
5898.10315,0.61037
5896.17440,0.61182
5894.24566,0.61206
5892.31691,0.61069
5890.38817,0.61004
5888.45942,0.61103
5886.53068,0.61191
5884.60193,0.61241
5882.67319,0.61367
5880.74444,0.61598
5878.81570,0.61846
5876.88695,0.62006
5874.95821,0.62108
5873.02946,0.62237
5871.10072,0.62443
5869.17197,0.62751
5867.24322,0.63109
5865.31448,0.63373
5863.38573,0.63445
5861.45699,0.63414
5859.52824,0.63398
5857.59950,0.63373
5855.67075,0.63407
5853.74201,0.63589
5851.81326,0.63740
5849.88452,0.63729
5847.95577,0.63627
5846.02703,0.63431
5844.09828,0.63180
5842.16954,0.62980
5840.24079,0.62765
5838.31205,0.62481
5836.38330,0.62229
5834.45455,0.62022
5832.52581,0.61740
5830.59706,0.61404
5828.66832,0.61133
5826.73957,0.60891
5824.81083,0.60595
5822.88208,0.60208
5820.95334,0.59739
5819.02459,0.59315
5817.09585,0.59010
5815.16710,0.58773
5813.23836,0.58505
5811.30961,0.58135
5809.38087,0.57754
5807.45212,0.57527
5805.52337,0.57500
5803.59463,0.57547
5801.66588,0.57508
5799.73714,0.57404
5797.80839,0.57373
5795.87965,0.57395
5793.95090,0.57377
5792.02216,0.57461
5790.09341,0.57771
5788.16467,0.58177
5786.23592,0.58595
5784.30718,0.59036
5782.37843,0.59455
5780.44969,0.59826
5778.52094,0.60142
5776.59220,0.60396
5774.66345,0.60648
5772.73470,0.60960
5770.80596,0.61271
5768.87721,0.61488
5766.94847,0.61620
5765.01972,0.61748
5763.09098,0.61865
5761.16223,0.61873
5759.23349,0.61839
5757.30474,0.61922
5755.37600,0.62066
5753.44725,0.62150
5751.51851,0.62196
5749.58976,0.62198
5747.66102,0.62169
5745.73227,0.62242
5743.80352,0.62454
5741.87478,0.62679
5739.94603,0.62829
5738.01729,0.62975
5736.08854,0.63206
5734.15980,0.63470
5732.23105,0.63674
5730.30231,0.63811
5728.37356,0.63927
5726.44482,0.64034
5724.51607,0.64105
5722.58733,0.64173
5720.65858,0.64325
5718.72984,0.64537
5716.80109,0.64719
5714.87235,0.64908
5712.94360,0.65154
5711.01485,0.65359
5709.08611,0.65493
5707.15736,0.65603
5705.22862,0.65663
5703.29987,0.65750
5701.37113,0.65971
5699.44238,0.66211
5697.51364,0.66340
5695.58489,0.66406
5693.65615,0.66513
5691.72740,0.66696
5689.79866,0.66846
5687.86991,0.66849
5685.94117,0.66768
5684.01242,0.66751
5682.08368,0.66848
5680.15493,0.66994
5678.22618,0.67112
5676.29744,0.67216
5674.36869,0.67324
5672.43995,0.67378
5670.51120,0.67392
5668.58246,0.67428
5666.65371,0.67513
5664.72497,0.67673
5662.79622,0.67821
5660.86748,0.67836
5658.93873,0.67725
5657.00999,0.67541
5655.08124,0.67411
5653.15250,0.67373
5651.22375,0.67296
5649.29500,0.67252
5647.36626,0.67386
5645.43751,0.67584
5643.50877,0.67763
5641.58002,0.67960
5639.65128,0.68169
5637.72253,0.68395
5635.79379,0.68619
5633.86504,0.68749
5631.93630,0.68830
5630.00755,0.68998
5628.07881,0.69248
5626.15006,0.69514
5624.22132,0.69769
5622.29257,0.69969
5620.36383,0.70094
5618.43508,0.70167
5616.50633,0.70270
5614.57759,0.70483
5612.64884,0.70730
5610.72010,0.70836
5608.79135,0.70784
5606.86261,0.70706
5604.93386,0.70684
5603.00512,0.70775
5601.07637,0.70970
5599.14763,0.71098
5597.21888,0.71099
5595.29014,0.71029
5593.36139,0.70829
5591.43265,0.70558
5589.50390,0.70420
5587.57516,0.70397
5585.64641,0.70340
5583.71766,0.70296
5581.78892,0.70303
5579.86017,0.70239
5577.93143,0.70100
5576.00268,0.69973
5574.07394,0.69817
5572.14519,0.69664
5570.21645,0.69592
5568.28770,0.69501
5566.35896,0.69342
5564.43021,0.69200
5562.50147,0.69154
5560.57272,0.69211
5558.64398,0.69248
5556.71523,0.69248
5554.78648,0.69249
5552.85774,0.69179
5550.92899,0.69091
5549.00025,0.69067
5547.07150,0.69116
5545.14276,0.69236
5543.21401,0.69322
5541.28527,0.69303
5539.35652,0.69259
5537.42778,0.69274
5535.49903,0.69346
5533.57029,0.69422
5531.64154,0.69492
5529.71280,0.69574
5527.78405,0.69654
5525.85531,0.69722
5523.92656,0.69780
5521.99781,0.69816
5520.06907,0.69825
5518.14032,0.69866
5516.21158,0.69981
5514.28283,0.70115
5512.35409,0.70228
5510.42534,0.70380
5508.49660,0.70611
5506.56785,0.70790
5504.63911,0.70770
5502.71036,0.70634
5500.78162,0.70534
5498.85287,0.70506
5496.92413,0.70536
5494.99538,0.70590
5493.06664,0.70588
5491.13789,0.70460
5489.20914,0.70304
5487.28040,0.70247
5485.35165,0.70221
5483.42291,0.70159
5481.49416,0.70074
5479.56542,0.69990
5477.63667,0.69927
5475.70793,0.69830
5473.77918,0.69716
5471.85044,0.69696
5469.92169,0.69768
5467.99295,0.69891
5466.06420,0.70043
5464.13546,0.70171
5462.20671,0.70309
5460.27796,0.70498
5458.34922,0.70658
5456.42047,0.70751
5454.49173,0.70820
5452.56298,0.70935
5450.63424,0.71125
5448.70549,0.71337
5446.77675,0.71570
5444.84800,0.71838
5442.91926,0.72079
5440.99051,0.72223
5439.06177,0.72244
5437.13302,0.72225
5435.20428,0.72321
5433.27553,0.72493
5431.34679,0.72579
5429.41804,0.72587
5427.48929,0.72603
5425.56055,0.72643
5423.63180,0.72698
5421.70306,0.72744
5419.77431,0.72783
5417.84557,0.72815
5415.91682,0.72803
5413.98808,0.72796
5412.05933,0.72839
5410.13059,0.72814
5408.20184,0.72717
5406.27310,0.72741
5404.34435,0.72881
5402.41561,0.72902
5400.48686,0.72778
5398.55811,0.72728
5396.62937,0.72794
5394.70062,0.72853
5392.77188,0.72927
5390.84313,0.73041
5388.91439,0.73074
5386.98564,0.73013
5385.05690,0.72970
5383.12815,0.72935
5381.19941,0.72870
5379.27066,0.72823
5377.34192,0.72807
5375.41317,0.72797
5373.48443,0.72792
5371.55568,0.72766
5369.62694,0.72728
5367.69819,0.72759
5365.76944,0.72848
5363.84070,0.72868
5361.91195,0.72773
5359.98321,0.72672
5358.05446,0.72626
5356.12572,0.72597
5354.19697,0.72594
5352.26823,0.72610
5350.33948,0.72559
5348.41074,0.72460
5346.48199,0.72425
5344.55325,0.72466
5342.62450,0.72535
5340.69576,0.72619
5338.76701,0.72687
5336.83827,0.72713
5334.90952,0.72733
5332.98077,0.72752
5331.05203,0.72767
5329.12328,0.72813
5327.19454,0.72874
5325.26579,0.72951
5323.33705,0.73087
5321.40830,0.73209
5319.47956,0.73229
5317.55081,0.73212
5315.62207,0.73237
5313.69332,0.73280
5311.76458,0.73302
5309.83583,0.73314
5307.90709,0.73335
5305.97834,0.73346
5304.04959,0.73343
5302.12085,0.73355
5300.19210,0.73349
5298.26336,0.73272
5296.33461,0.73150
5294.40587,0.73047
5292.47712,0.72979
5290.54838,0.72914
5288.61963,0.72843
5286.69089,0.72750
5284.76214,0.72627
5282.83340,0.72545
5280.90465,0.72540
5278.97591,0.72521
5277.04716,0.72409
5275.11842,0.72247
5273.18967,0.72088
5271.26092,0.71941
5269.33218,0.71845
5267.40343,0.71811
5265.47469,0.71787
5263.54594,0.71738
5261.61720,0.71658
5259.68845,0.71611
5257.75971,0.71615
5255.83096,0.71649
5253.90222,0.71763
5251.97347,0.71920
5250.04473,0.72046
5248.11598,0.72161
5246.18724,0.72229
5244.25849,0.72218
5242.32975,0.72215
5240.40100,0.72262
5238.47225,0.72333
5236.54351,0.72440
5234.61476,0.72576
5232.68602,0.72643
5230.75727,0.72597
5228.82853,0.72518
5226.89978,0.72480
5224.97104,0.72468
5223.04229,0.72424
5221.11355,0.72365
5219.18480,0.72361
5217.25606,0.72375
5215.32731,0.72375
5213.39857,0.72386
5211.46982,0.72355
5209.54107,0.72289
5207.61233,0.72291
5205.68358,0.72372
5203.75484,0.72451
5201.82609,0.72442
5199.89735,0.72352
5197.96860,0.72317
5196.03986,0.72351
5194.11111,0.72341
5192.18237,0.72287
5190.25362,0.72259
5188.32488,0.72241
5186.39613,0.72201
5184.46739,0.72166
5182.53864,0.72136
5180.60990,0.72079
5178.68115,0.72007
5176.75240,0.71974
5174.82366,0.71985
5172.89491,0.71990
5170.96617,0.71970
5169.03742,0.71942
5167.10868,0.71894
5165.17993,0.71830
5163.25119,0.71775
5161.32244,0.71727
5159.39370,0.71642
5157.46495,0.71535
5155.53621,0.71459
5153.60746,0.71373
5151.67872,0.71253
5149.74997,0.71139
5147.82123,0.71003
5145.89248,0.70854
5143.96373,0.70767
5142.03499,0.70666
5140.10624,0.70474
5138.17750,0.70298
5136.24875,0.70162
5134.32001,0.69974
5132.39126,0.69751
5130.46252,0.69529
5128.53377,0.69282
5126.60503,0.69020
5124.67628,0.68802
5122.74754,0.68627
5120.81879,0.68425
5118.89005,0.68208
5116.96130,0.68055
5115.03255,0.68001
5113.10381,0.68011
5111.17506,0.68014
5109.24632,0.67980
5107.31757,0.67930
5105.38883,0.67890
5103.46008,0.67834
5101.53134,0.67725
5099.60259,0.67641
5097.67385,0.67631
5095.74510,0.67604
5093.81636,0.67516
5091.88761,0.67497
5089.95887,0.67666
5088.03012,0.67974
5086.10138,0.68319
5084.17263,0.68659
5082.24388,0.68989
5080.31514,0.69330
5078.38639,0.69665
5076.45765,0.69992
5074.52890,0.70341
5072.60016,0.70672
5070.67141,0.70959
5068.74267,0.71263
5066.81392,0.71588
5064.88518,0.71873
5062.95643,0.72111
5061.02769,0.72313
5059.09894,0.72456
5057.17020,0.72555
5055.24145,0.72638
5053.31270,0.72694
5051.38396,0.72732
5049.45521,0.72750
5047.52647,0.72750
5045.59772,0.72768
5043.66898,0.72785
5041.74023,0.72771
5039.81149,0.72744
5037.88274,0.72719
5035.95400,0.72673
5034.02525,0.72591
5032.09651,0.72543
5030.16776,0.72567
5028.23902,0.72583
5026.31027,0.72509
5024.38153,0.72402
5022.45278,0.72372
5020.52403,0.72413
5018.59529,0.72433
5016.66654,0.72417
5014.73780,0.72431
5012.80905,0.72475
5010.88031,0.72473
5008.95156,0.72445
5007.02282,0.72467
5005.09407,0.72502
5003.16533,0.72511
5001.23658,0.72527
4999.30784,0.72536
4997.37909,0.72534
4995.45035,0.72553
4993.52160,0.72554
4991.59286,0.72510
4989.66411,0.72468
4987.73536,0.72477
4985.80662,0.72520
4983.87787,0.72519
4981.94913,0.72486
4980.02038,0.72540
4978.09164,0.72675
4976.16289,0.72754
4974.23415,0.72738
4972.30540,0.72725
4970.37666,0.72800
4968.44791,0.72941
4966.51917,0.73021
4964.59042,0.72958
4962.66168,0.72830
4960.73293,0.72753
4958.80418,0.72716
4956.87544,0.72643
4954.94669,0.72526
4953.01795,0.72421
4951.08920,0.72374
4949.16046,0.72337
4947.23171,0.72236
4945.30297,0.72110
4943.37422,0.72038
4941.44548,0.72013
4939.51673,0.71981
4937.58799,0.71899
4935.65924,0.71762
4933.73050,0.71659
4931.80175,0.71676
4929.87301,0.71751
4927.94426,0.71784
4926.01551,0.71758
4924.08677,0.71725
4922.15802,0.71728
4920.22928,0.71760
4918.30053,0.71801
4916.37179,0.71787
4914.44304,0.71679
4912.51430,0.71562
4910.58555,0.71506
4908.65681,0.71465
4906.72806,0.71418
4904.79932,0.71399
4902.87057,0.71361
4900.94183,0.71261
4899.01308,0.71197
4897.08434,0.71211
4895.15559,0.71201
4893.22684,0.71132
4891.29810,0.71032
4889.36935,0.70920
4887.44061,0.70879
4885.51186,0.70909
4883.58312,0.70897
4881.65437,0.70812
4879.72563,0.70705
4877.79688,0.70626
4875.86814,0.70591
4873.93939,0.70568
4872.01065,0.70546
4870.08190,0.70511
4868.15316,0.70430
4866.22441,0.70351
4864.29566,0.70308
4862.36692,0.70260
4860.43817,0.70225
4858.50943,0.70228
4856.58068,0.70216
4854.65194,0.70161
4852.72319,0.70051
4850.79445,0.69887
4848.86570,0.69742
4846.93696,0.69624
4845.00821,0.69471
4843.07947,0.69288
4841.15072,0.69113
4839.22198,0.68886
4837.29323,0.68541
4835.36449,0.68164
4833.43574,0.67822
4831.50699,0.67482
4829.57825,0.67119
4827.64950,0.66678
4825.72076,0.66168
4823.79201,0.65715
4821.86327,0.65388
4819.93452,0.65125
4818.00578,0.64823
4816.07703,0.64493
4814.14829,0.64238
4812.21954,0.64065
4810.29080,0.63906
4808.36205,0.63714
4806.43331,0.63469
4804.50456,0.63223
4802.57582,0.63017
4800.64707,0.62811
4798.71832,0.62623
4796.78958,0.62510
4794.86083,0.62476
4792.93209,0.62485
4791.00334,0.62498
4789.07460,0.62552
4787.14585,0.62713
4785.21711,0.62904
4783.28836,0.63051
4781.35962,0.63221
4779.43087,0.63468
4777.50213,0.63765
4775.57338,0.64035
4773.64464,0.64242
4771.71589,0.64428
4769.78714,0.64610
4767.85840,0.64788
4765.92965,0.64974
4764.00091,0.65136
4762.07216,0.65203
4760.14342,0.65115
4758.21467,0.64893
4756.28593,0.64640
4754.35718,0.64402
4752.42844,0.64083
4750.49969,0.63604
4748.57095,0.63071
4746.64220,0.62582
4744.71346,0.62102
4742.78471,0.61604
4740.85597,0.61117
4738.92722,0.60611
4736.99847,0.59990
4735.06973,0.59222
4733.14098,0.58370
4731.21224,0.57428
4729.28349,0.56327
4727.35475,0.55112
4725.42600,0.53882
4723.49726,0.52692
4721.56851,0.51672
4719.63977,0.50986
4717.71102,0.50648
4715.78228,0.50494
4713.85353,0.50375
4711.92479,0.50237
4709.99604,0.50040
4708.06729,0.49729
4706.13855,0.49239
4704.20980,0.48558
4702.28106,0.47757
4700.35231,0.46871
4698.42357,0.45863
4696.49482,0.44772
4694.56608,0.43758
4692.63733,0.42947
4690.70859,0.42381
4688.77984,0.42115
4686.85110,0.42176
4684.92235,0.42477
4682.99361,0.42949
4681.06486,0.43630
4679.13612,0.44522
4677.20737,0.45529
4675.27862,0.46594
4673.34988,0.47683
4671.42113,0.48686
4669.49239,0.49530
4667.56364,0.50239
4665.63490,0.50781
4663.70615,0.51126
4661.77741,0.51339
4659.84866,0.51491
4657.91992,0.51613
4655.99117,0.51662
4654.06243,0.51590
4652.13368,0.51402
4650.20494,0.51074
4648.27619,0.50547
4646.34745,0.49829
4644.41870,0.48990
4642.48995,0.48122
4640.56121,0.47329
4638.63246,0.46687
4636.70372,0.46256
4634.77497,0.46107
4632.84623,0.46245
4630.91748,0.46647
4628.98874,0.47315
4627.05999,0.48215
4625.13125,0.49298
4623.20250,0.50476
4621.27376,0.51629
4619.34501,0.52708
4617.41627,0.53712
4615.48752,0.54600
4613.55877,0.55353
4611.63003,0.56018
4609.70128,0.56611
4607.77254,0.57067
4605.84379,0.57321
4603.91505,0.57369
4601.98630,0.57216
4600.05756,0.56858
4598.12881,0.56311
4596.20007,0.55607
4594.27132,0.54842
4592.34258,0.54170
4590.41383,0.53677
4588.48509,0.53304
4586.55634,0.52924
4584.62760,0.52441
4582.69885,0.51827
4580.77010,0.51213
4578.84136,0.50861
4576.91261,0.50964
4574.98387,0.51560
4573.05512,0.52569
4571.12638,0.53812
4569.19763,0.55117
4567.26889,0.56409
4565.34014,0.57621
4563.41140,0.58618
4561.48265,0.59320
4559.55391,0.59801
4557.62516,0.60161
4555.69642,0.60394
4553.76767,0.60494
4551.83893,0.60513
4549.91018,0.60493
4547.98143,0.60473
4546.05269,0.60475
4544.12394,0.60454
4542.19520,0.60389
4540.26645,0.60322
4538.33771,0.60255
4536.40896,0.60152
4534.48022,0.60038
4532.55147,0.59947
4530.62273,0.59815
4528.69398,0.59592
4526.76524,0.59362
4524.83649,0.59182
4522.90775,0.58987
4520.97900,0.58704
4519.05025,0.58370
4517.12151,0.58055
4515.19276,0.57729
4513.26402,0.57315
4511.33527,0.56789
4509.40653,0.56172
4507.47778,0.55507
4505.54904,0.54803
4503.62029,0.54005
4501.69155,0.53060
4499.76280,0.51982
4497.83406,0.50809
4495.90531,0.49586
4493.97657,0.48432
4492.04782,0.47478
4490.11908,0.46799
4488.19033,0.46414
4486.26158,0.46225
4484.33284,0.46091
4482.40409,0.45966
4480.47535,0.45844
4478.54660,0.45698
4476.61786,0.45512
4474.68911,0.45273
4472.76037,0.44941
4470.83162,0.44488
4468.90288,0.43941
4466.97413,0.43309
4465.04539,0.42588
4463.11664,0.41806
4461.18790,0.41018
4459.25915,0.40288
4457.33041,0.39638
4455.40166,0.39034
4453.47291,0.38437
4451.54417,0.37837
4449.61542,0.37221
4447.68668,0.36557
4445.75793,0.35866
4443.82919,0.35167
4441.90044,0.34441
4439.97170,0.33745
4438.04295,0.33147
4436.11421,0.32651
4434.18546,0.32222
4432.25672,0.31827
4430.32797,0.31471
4428.39923,0.31185
4426.47048,0.30981
4424.54173,0.30894
4422.61299,0.31026
4420.68424,0.31416
4418.75550,0.31953
4416.82675,0.32502
4414.89801,0.32997
4412.96926,0.33410
4411.04052,0.33740
4409.11177,0.33978
4407.18303,0.34116
4405.25428,0.34199
4403.32554,0.34287
4401.39679,0.34445
4399.46805,0.34745
4397.53930,0.35175
4395.61056,0.35627
4393.68181,0.36019
4391.75306,0.36327
4389.82432,0.36559
4387.89557,0.36701
4385.96683,0.36735
4384.03808,0.36685
4382.10934,0.36553
4380.18059,0.36305
4378.25185,0.35969
4376.32310,0.35591
4374.39436,0.35175
4372.46561,0.34728
4370.53687,0.34295
4368.60812,0.33960
4366.67938,0.33784
4364.75063,0.33717
4362.82189,0.33675
4360.89314,0.33658
4358.96439,0.33692
4357.03565,0.33769
4355.10690,0.33865
4353.17816,0.33972
4351.24941,0.34104
4349.32067,0.34281
4347.39192,0.34503
4345.46318,0.34748
4343.53443,0.34976
4341.60569,0.35153
4339.67694,0.35298
4337.74820,0.35442
4335.81945,0.35566
4333.89071,0.35654
4331.96196,0.35760
4330.03321,0.35915
4328.10447,0.36098
4326.17572,0.36311
4324.24698,0.36549
4322.31823,0.36761
4320.38949,0.36922
4318.46074,0.37089
4316.53200,0.37299
4314.60325,0.37489
4312.67451,0.37606
4310.74576,0.37646
4308.81702,0.37617
4306.88827,0.37519
4304.95953,0.37308
4303.03078,0.36990
4301.10204,0.36659
4299.17329,0.36359
4297.24454,0.36069
4295.31580,0.35803
4293.38705,0.35581
4291.45831,0.35412
4289.52956,0.35293
4287.60082,0.35197
4285.67207,0.35129
4283.74333,0.35082
4281.81458,0.34996
4279.88584,0.34834
4277.95709,0.34604
4276.02835,0.34320
4274.09960,0.34046
4272.17086,0.33860
4270.24211,0.33738
4268.31336,0.33649
4266.38462,0.33653
4264.45587,0.33790
4262.52713,0.34005
4260.59838,0.34231
4258.66964,0.34441
4256.74089,0.34647
4254.81215,0.34852
4252.88340,0.35010
4250.95466,0.35073
4249.02591,0.35085
4247.09717,0.35133
4245.16842,0.35229
4243.23968,0.35345
4241.31093,0.35448
4239.38219,0.35496
4237.45344,0.35446
4235.52469,0.35308
4233.59595,0.35152
4231.66720,0.35023
4229.73846,0.34900
4227.80971,0.34760
4225.88097,0.34642
4223.95222,0.34598
4222.02348,0.34603
4220.09473,0.34598
4218.16599,0.34583
4216.23724,0.34582
4214.30850,0.34577
4212.37975,0.34547
4210.45101,0.34527
4208.52226,0.34555
4206.59352,0.34611
4204.66477,0.34692
4202.73602,0.34837
4200.80728,0.35048
4198.87853,0.35277
4196.94979,0.35491
4195.02104,0.35688
4193.09230,0.35869
4191.16355,0.36005
4189.23481,0.36045
4187.30606,0.35925
4185.37732,0.35628
4183.44857,0.35218
4181.51983,0.34780
4179.59108,0.34420
4177.66234,0.34257
4175.73359,0.34339
4173.80484,0.34646
4171.87610,0.35146
4169.94735,0.35780
4168.01861,0.36471
4166.08986,0.37155
4164.16112,0.37800
4162.23237,0.38393
4160.30363,0.38922
4158.37488,0.39377
4156.44614,0.39754
4154.51739,0.40061
4152.58865,0.40346
4150.65990,0.40647
4148.73116,0.40942
4146.80241,0.41175
4144.87367,0.41311
4142.94492,0.41353
4141.01617,0.41322
4139.08743,0.41216
4137.15868,0.41049
4135.22994,0.40850
4133.30119,0.40610
4131.37245,0.40325
4129.44370,0.40021
4127.51496,0.39708
4125.58621,0.39363
4123.65747,0.38961
4121.72872,0.38525
4119.79998,0.38075
4117.87123,0.37589
4115.94249,0.37071
4114.01374,0.36523
4112.08500,0.35878
4110.15625,0.35117
4108.22750,0.34308
4106.29876,0.33472
4104.37001,0.32562
4102.44127,0.31557
4100.51252,0.30479
4098.58378,0.29304
4096.65503,0.27990
4094.72629,0.26603
4092.79754,0.25367
4090.86880,0.24571
4088.94005,0.24368
4087.01131,0.24655
4085.08256,0.25227
4083.15382,0.26000
4081.22507,0.26944
4079.29632,0.27954
4077.36758,0.28954
4075.43883,0.29931
4073.51009,0.30848
4071.58134,0.31648
4069.65260,0.32338
4067.72385,0.32974
4065.79511,0.33576
4063.86636,0.34112
4061.93762,0.34550
4060.00887,0.34900
4058.08013,0.35205
4056.15138,0.35494
4054.22264,0.35768
4052.29389,0.36022
4050.36515,0.36257
4048.43640,0.36499
4046.50765,0.36781
4044.57891,0.37112
4042.65016,0.37463
4040.72142,0.37792
4038.79267,0.38074
4036.86393,0.38300
4034.93518,0.38460
4033.00644,0.38524
4031.07769,0.38515
4029.14895,0.38522
4027.22020,0.38596
4025.29146,0.38738
4023.36271,0.38929
4021.43397,0.39123
4019.50522,0.39304
4017.57648,0.39507
4015.64773,0.39698
4013.71898,0.39814
4011.79024,0.39907
4009.86149,0.40067
4007.93275,0.40310
4006.00400,0.40615
4004.07526,0.40959
4002.14651,0.41317
4000.21777,0.41690
3998.28902,0.42074
3996.36028,0.42427
3994.43153,0.42723
3992.50279,0.42991
3990.57404,0.43240
3988.64530,0.43444
3986.71655,0.43622
3984.78780,0.43814
3982.85906,0.44007
3980.93031,0.44176
3979.00157,0.44312
3977.07282,0.44404
3975.14408,0.44459
3973.21533,0.44519
3971.28659,0.44591
3969.35784,0.44637
3967.42910,0.44643
3965.50035,0.44619
3963.57161,0.44532
3961.64286,0.44362
3959.71412,0.44156
3957.78537,0.43961
3955.85663,0.43779
3953.92788,0.43583
3951.99913,0.43344
3950.07039,0.43061
3948.14164,0.42761
3946.21290,0.42498
3944.28415,0.42285
3942.35541,0.42079
3940.42666,0.41888
3938.49792,0.41763
3936.56917,0.41708
3934.64043,0.41680
3932.71168,0.41623
3930.78294,0.41517
3928.85419,0.41405
3926.92545,0.41327
3924.99670,0.41286
3923.06795,0.41272
3921.13921,0.41260
3919.21046,0.41264
3917.28172,0.41324
3915.35297,0.41458
3913.42423,0.41657
3911.49548,0.41877
3909.56674,0.42097
3907.63799,0.42350
3905.70925,0.42660
3903.78050,0.42992
3901.85176,0.43280
3899.92301,0.43521
3897.99427,0.43744
3896.06552,0.43950
3894.13678,0.44145
3892.20803,0.44373
3890.27928,0.44652
3888.35054,0.44958
3886.42179,0.45306
3884.49305,0.45674
3882.56430,0.45997
3880.63556,0.46295
3878.70681,0.46593
3876.77807,0.46862
3874.84932,0.47099
3872.92058,0.47313
3870.99183,0.47505
3869.06309,0.47652
3867.13434,0.47748
3865.20560,0.47866
3863.27685,0.48034
3861.34811,0.48165
3859.41936,0.48202
3857.49061,0.48204
3855.56187,0.48269
3853.63312,0.48442
3851.70438,0.48640
3849.77563,0.48810
3847.84689,0.48999
3845.91814,0.49196
3843.98940,0.49330
3842.06065,0.49353
3840.13191,0.49282
3838.20316,0.49174
3836.27442,0.49044
3834.34567,0.48877
3832.41693,0.48728
3830.48818,0.48677
3828.55943,0.48736
3826.63069,0.48862
3824.70194,0.48963
3822.77320,0.48953
3820.84445,0.48814
3818.91571,0.48570
3816.98696,0.48234
3815.05822,0.47828
3813.12947,0.47428
3811.20073,0.47054
3809.27198,0.46716
3807.34324,0.46509
3805.41449,0.46549
3803.48575,0.46883
3801.55700,0.47492
3799.62826,0.48214
3797.69951,0.48910
3795.77076,0.49600
3793.84202,0.50247
3791.91327,0.50777
3789.98453,0.51158
3788.05578,0.51412
3786.12704,0.51568
3784.19829,0.51609
3782.26955,0.51518
3780.34080,0.51329
3778.41206,0.51075
3776.48331,0.50759
3774.55457,0.50388
3772.62582,0.49979
3770.69708,0.49557
3768.76833,0.49148
3766.83959,0.48734
3764.91084,0.48294
3762.98209,0.47844
3761.05335,0.47389
3759.12460,0.46982
3757.19586,0.46795
3755.26711,0.46958
3753.33837,0.47506
3751.40962,0.48402
3749.48088,0.49378
3747.55213,0.50128
3745.62339,0.50668
3743.69464,0.50999
3741.76590,0.50974
3739.83715,0.50650
3737.90841,0.50157
3735.97966,0.49593
3734.05091,0.49121
3732.12217,0.48902
3730.19342,0.49010
3728.26468,0.49433
3726.33593,0.50069
3724.40719,0.50732
3722.47844,0.51256
3720.54970,0.51574
3718.62095,0.51674
3716.69221,0.51618
3714.76346,0.51480
3712.83472,0.51271
3710.90597,0.50941
3708.97723,0.50490
3707.04848,0.49977
3705.11974,0.49414
3703.19099,0.48763
3701.26224,0.48008
3699.33350,0.47175
3697.40475,0.46225
3695.47601,0.45078
3693.54726,0.43752
3691.61852,0.42384
3689.68977,0.41220
3687.76103,0.40615
3685.83228,0.40749
3683.90354,0.41529
3681.97479,0.42801
3680.04605,0.44348
3678.11730,0.45964
3676.18856,0.47590
3674.25981,0.49044
3672.33107,0.50130
3670.40232,0.50963
3668.47357,0.51566
3666.54483,0.51910
3664.61608,0.52090
3662.68734,0.52183
3660.75859,0.52209
3658.82985,0.52160
3656.90110,0.52038
3654.97236,0.51846
3653.04361,0.51598
3651.11487,0.51310
3649.18612,0.50985
3647.25738,0.50625
3645.32863,0.50246
3643.39989,0.49873
3641.47114,0.49503
3639.54239,0.49132
3637.61365,0.48799
3635.68490,0.48526
3633.75616,0.48269
3631.82741,0.47986
3629.89867,0.47667
3627.96992,0.47315
3626.04118,0.46957
3624.11243,0.46588
3622.18369,0.46196
3620.25494,0.45782
3618.32620,0.45362
3616.39745,0.44976
3614.46871,0.44607
3612.53996,0.44208
3610.61122,0.43775
3608.68247,0.43313
3606.75372,0.42825
3604.82498,0.42330
3602.89623,0.41825
3600.96749,0.41271
3599.03874,0.40658
3597.11000,0.40015
3595.18125,0.39352
3593.25251,0.38639
3591.32376,0.37887
3589.39502,0.37126
3587.46627,0.36334
3585.53753,0.35504
3583.60878,0.34688
3581.68004,0.33914
3579.75129,0.33170
3577.82254,0.32454
3575.89380,0.31767
3573.96505,0.31116
3572.03631,0.30529
3570.10756,0.29999
3568.17882,0.29503
3566.25007,0.29054
3564.32133,0.28650
3562.39258,0.28279
3560.46384,0.27961
3558.53509,0.27692
3556.60635,0.27447
3554.67760,0.27245
3552.74886,0.27088
3550.82011,0.26957
3548.89137,0.26863
3546.96262,0.26825
3545.03387,0.26835
3543.10513,0.26867
3541.17638,0.26918
3539.24764,0.27003
3537.31889,0.27130
3535.39015,0.27303
3533.46140,0.27511
3531.53266,0.27729
3529.60391,0.27973
3527.67517,0.28255
3525.74642,0.28546
3523.81768,0.28825
3521.88893,0.29106
3519.96019,0.29417
3518.03144,0.29745
3516.10270,0.30078
3514.17395,0.30412
3512.24520,0.30696
3510.31646,0.30944
3508.38771,0.31228
3506.45897,0.31536
3504.53022,0.31818
3502.60148,0.32043
3500.67273,0.32220
3498.74399,0.32411
3496.81524,0.32619
3494.88650,0.32774
3492.95775,0.32851
3491.02901,0.32901
3489.10026,0.32983
3487.17152,0.33070
3485.24277,0.33092
3483.31402,0.33052
3481.38528,0.33002
3479.45653,0.32925
3477.52779,0.32773
3475.59904,0.32557
3473.67030,0.32308
3471.74155,0.32035
3469.81281,0.31713
3467.88406,0.31300
3465.95532,0.30794
3464.02657,0.30234
3462.09783,0.29618
3460.16908,0.28938
3458.24034,0.28239
3456.31159,0.27548
3454.38285,0.26823
3452.45410,0.26031
3450.52535,0.25168
3448.59661,0.24240
3446.66786,0.23274
3444.73912,0.22307
3442.81037,0.21369
3440.88163,0.20477
3438.95288,0.19644
3437.02414,0.18880
3435.09539,0.18176
3433.16665,0.17551
3431.23790,0.17082
3429.30916,0.16795
3427.38041,0.16648
3425.45167,0.16611
3423.52292,0.16655
3421.59418,0.16725
3419.66543,0.16759
3417.73668,0.16735
3415.80794,0.16700
3413.87919,0.16753
3411.95045,0.17022
3410.02170,0.17594
3408.09296,0.18530
3406.16421,0.19834
3404.23547,0.21399
3402.30672,0.23080
3400.37798,0.24737
3398.44923,0.26229
3396.52049,0.27511
3394.59174,0.28618
3392.66300,0.29563
3390.73425,0.30315
3388.80550,0.30894
3386.87676,0.31402
3384.94801,0.31900
3383.01927,0.32358
3381.09052,0.32746
3379.16178,0.33065
3377.23303,0.33327
3375.30429,0.33548
3373.37554,0.33718
3371.44680,0.33820
3369.51805,0.33860
3367.58931,0.33862
3365.66056,0.33833
3363.73182,0.33759
3361.80307,0.33635
3359.87433,0.33469
3357.94558,0.33266
3356.01683,0.33037
3354.08809,0.32795
3352.15934,0.32518
3350.23060,0.32149
3348.30185,0.31693
3346.37311,0.31244
3344.44436,0.30828
3342.51562,0.30365
3340.58687,0.29869
3338.65813,0.29416
3336.72938,0.28995
3334.80064,0.28606
3332.87189,0.28306
3330.94315,0.28133
3329.01440,0.28117
3327.08566,0.28293
3325.15691,0.28669
3323.22816,0.29201
3321.29942,0.29786
3319.37067,0.30336
3317.44193,0.30845
3315.51318,0.31268
3313.58444,0.31534
3311.65569,0.31675
3309.72695,0.31733
3307.79820,0.31692
3305.86946,0.31545
3303.94071,0.31340
3302.01197,0.31148
3300.08322,0.30992
3298.15448,0.30826
3296.22573,0.30636
3294.29698,0.30464
3292.36824,0.30363
3290.43949,0.30377
3288.51075,0.30515
3286.58200,0.30755
3284.65326,0.31069
3282.72451,0.31420
3280.79577,0.31759
3278.86702,0.32053
3276.93828,0.32291
3275.00953,0.32467
3273.08079,0.32588
3271.15204,0.32682
3269.22330,0.32753
3267.29455,0.32793
3265.36581,0.32807
3263.43706,0.32810
3261.50831,0.32795
3259.57957,0.32739
3257.65082,0.32665
3255.72208,0.32617
3253.79333,0.32570
3251.86459,0.32488
3249.93584,0.32402
3248.00710,0.32341
3246.07835,0.32272
3244.14961,0.32175
3242.22086,0.32051
3240.29212,0.31889
3238.36337,0.31697
3236.43463,0.31509
3234.50588,0.31330
3232.57713,0.31164
3230.64839,0.31036
3228.71964,0.30944
3226.79090,0.30864
3224.86215,0.30796
3222.93341,0.30774
3221.00466,0.30827
3219.07592,0.30970
3217.14717,0.31186
3215.21843,0.31430
3213.28968,0.31661
3211.36094,0.31841
3209.43219,0.31952
3207.50345,0.32006
3205.57470,0.31999
3203.64596,0.31937
3201.71721,0.31835
3199.78846,0.31702
3197.85972,0.31554
3195.93097,0.31405
3194.00223,0.31253
3192.07348,0.31095
3190.14474,0.30953
3188.21599,0.30849
3186.28725,0.30773
3184.35850,0.30711
3182.42976,0.30646
3180.50101,0.30552
3178.57227,0.30457
3176.64352,0.30386
3174.71478,0.30308
3172.78603,0.30209
3170.85729,0.30084
3168.92854,0.29923
3166.99979,0.29766
3165.07105,0.29647
3163.14230,0.29539
3161.21356,0.29389
3159.28481,0.29177
3157.35607,0.28945
3155.42732,0.28732
3153.49858,0.28513
3151.56983,0.28270
3149.64109,0.28015
3147.71234,0.27753
3145.78360,0.27485
3143.85485,0.27183
3141.92611,0.26817
3139.99736,0.26385
3138.06861,0.25895
3136.13987,0.25352
3134.21112,0.24746
3132.28238,0.24100
3130.35363,0.23501
3128.42489,0.23059
3126.49614,0.22850
3124.56740,0.22868
3122.63865,0.23037
3120.70991,0.23224
3118.78116,0.23271
3116.85242,0.23100
3114.92367,0.22736
3112.99493,0.22240
3111.06618,0.21638
3109.13744,0.20943
3107.20869,0.20235
3105.27994,0.19632
3103.35120,0.19216
3101.42245,0.19033
3099.49371,0.19103
3097.56496,0.19370
3095.63622,0.19673
3093.70747,0.19782
3091.77873,0.19558
3089.84998,0.19058
3087.92124,0.18411
3085.99249,0.17723
3084.06375,0.17113
3082.13500,0.16690
3080.20626,0.16476
3078.27751,0.16399
3076.34877,0.16355
3074.42002,0.16275
3072.49127,0.16115
3070.56253,0.15888
3068.63378,0.15693
3066.70504,0.15611
3064.77629,0.15636
3062.84755,0.15689
3060.91880,0.15656
3058.99006,0.15476
3057.06131,0.15226
3055.13257,0.15114
3053.20382,0.15359
3051.27508,0.16060
3049.34633,0.17156
3047.41759,0.18457
3045.48884,0.19729
3043.56009,0.20766
3041.63135,0.21449
3039.70260,0.21778
3037.77386,0.21845
3035.84511,0.21746
3033.91637,0.21501
3031.98762,0.21108
3030.05888,0.20604
3028.13013,0.20019
3026.20139,0.19343
3024.27264,0.18580
3022.34390,0.17752
3020.41515,0.16838
3018.48641,0.15848
3016.55766,0.14861
3014.62892,0.13945
3012.70017,0.13101
3010.77142,0.12290
3008.84268,0.11489
3006.91393,0.10713
3004.98519,0.09973
3003.05644,0.09273
3001.12770,0.08608
2999.19895,0.07958
2997.27021,0.07326
2995.34146,0.06719
2993.41272,0.06110
2991.48397,0.05507
2989.55523,0.04953
2987.62648,0.04486
2985.69774,0.04116
2983.76899,0.03843
2981.84025,0.03655
2979.91150,0.03527
2977.98275,0.03443
2976.05401,0.03387
2974.12526,0.03336
2972.19652,0.03302
2970.26777,0.03301
2968.33903,0.03322
2966.41028,0.03357
2964.48154,0.03411
2962.55279,0.03481
2960.62405,0.03579
2958.69530,0.03725
2956.76656,0.03944
2954.83781,0.04261
2952.90907,0.04646
2950.98032,0.05058
2949.05157,0.05498
2947.12283,0.05966
2945.19408,0.06413
2943.26534,0.06782
2941.33659,0.07073
2939.40785,0.07318
2937.47910,0.07511
2935.55036,0.07636
2933.62161,0.07715
2931.69287,0.07789
2929.76412,0.07871
2927.83538,0.07931
2925.90663,0.07927
2923.97789,0.07863
2922.04914,0.07797
2920.12040,0.07776
2918.19165,0.07759
2916.26290,0.07654
2914.33416,0.07388
2912.40541,0.06952
2910.47667,0.06403
2908.54792,0.05838
2906.61918,0.05370
2904.69043,0.05104
2902.76169,0.05100
2900.83294,0.05362
2898.90420,0.05839
2896.97545,0.06437
2895.04671,0.07072
2893.11796,0.07710
2891.18922,0.08298
2889.26047,0.08781
2887.33172,0.09193
2885.40298,0.09580
2883.47423,0.09946
2881.54549,0.10286
2879.61674,0.10594
2877.68800,0.10858
2875.75925,0.11064
2873.83051,0.11230
2871.90176,0.11380
2869.97302,0.11515
2868.04427,0.11612
2866.11553,0.11672
2864.18678,0.11729
2862.25804,0.11803
2860.32929,0.11902
2858.40055,0.12040
2856.47180,0.12211
2854.54305,0.12408
2852.61431,0.12680
2850.68556,0.13115
2848.75682,0.13771
2846.82807,0.14601
2844.89933,0.15453
2842.97058,0.16224
2841.04184,0.16899
2839.11309,0.17476
2837.18435,0.17966
2835.25560,0.18406
2833.32686,0.18820
2831.39811,0.19246
2829.46937,0.19758
2827.54062,0.20390
2825.61188,0.21105
2823.68313,0.21856
2821.75438,0.22580
2819.82564,0.23191
2817.89689,0.23645
2815.96815,0.23953
2814.03940,0.24145
2812.11066,0.24248
2810.18191,0.24292
2808.25317,0.24325
2806.32442,0.24417
2804.39568,0.24622
2802.46693,0.24923
2800.53819,0.25258
2798.60944,0.25585
2796.68070,0.25879
2794.75195,0.26103
2792.82320,0.26247
2790.89446,0.26345
2788.96571,0.26418
2787.03697,0.26467
2785.10822,0.26500
2783.17948,0.26518
2781.25073,0.26525
2779.32199,0.26551
2777.39324,0.26604
2775.46450,0.26665
2773.53575,0.26730
2771.60701,0.26836
2769.67826,0.27052
2767.74952,0.27405
2765.82077,0.27840
2763.89203,0.28297
2761.96328,0.28737
2760.03453,0.29140
2758.10579,0.29518
2756.17704,0.29845
2754.24830,0.30091
2752.31955,0.30267
2750.39081,0.30375
2748.46206,0.30391
2746.53332,0.30323
2744.60457,0.30235
2742.67583,0.30211
2740.74708,0.30318
2738.81834,0.30581
2736.88959,0.30973
2734.96085,0.31449
2733.03210,0.31984
2731.10336,0.32543
2729.17461,0.33074
2727.24586,0.33551
2725.31712,0.33946
2723.38837,0.34228
2721.45963,0.34391
2719.53088,0.34438
2717.60214,0.34414
2715.67339,0.34376
2713.74465,0.34357
2711.81590,0.34411
2709.88716,0.34590
2707.95841,0.34888
2706.02967,0.35268
2704.10092,0.35663
2702.17218,0.35994
2700.24343,0.36220
2698.31468,0.36364
2696.38594,0.36477
2694.45719,0.36588
2692.52845,0.36676
2690.59970,0.36710
2688.67096,0.36695
2686.74221,0.36667
2684.81347,0.36651
2682.88472,0.36651
2680.95598,0.36653
2679.02723,0.36646
2677.09849,0.36632
2675.16974,0.36618
2673.24100,0.36602
2671.31225,0.36566
2669.38351,0.36497
2667.45476,0.36406
2665.52601,0.36303
2663.59727,0.36201
2661.66852,0.36102
2659.73978,0.35988
2657.81103,0.35847
2655.88229,0.35673
2653.95354,0.35463
2652.02480,0.35226
2650.09605,0.34947
2648.16731,0.34615
2646.23856,0.34261
2644.30982,0.33925
2642.38107,0.33604
2640.45233,0.33260
2638.52358,0.32864
2636.59484,0.32408
2634.66609,0.31927
2632.73734,0.31504
2630.80860,0.31233
2628.87985,0.31147
2626.95111,0.31211
2625.02236,0.31371
2623.09362,0.31582
2621.16487,0.31821
2619.23613,0.32087
2617.30738,0.32351
2615.37864,0.32568
2613.44989,0.32739
2611.52115,0.32876
2609.59240,0.32968
2607.66366,0.33018
2605.73491,0.33019
2603.80616,0.32967
2601.87742,0.32885
2599.94867,0.32772
2598.01993,0.32590
2596.09118,0.32315
2594.16244,0.31947
2592.23369,0.31510
2590.30495,0.31035
2588.37620,0.30549
2586.44746,0.30084
2584.51871,0.29673
2582.58997,0.29352
2580.66122,0.29141
2578.73248,0.29023
2576.80373,0.28991
2574.87499,0.29051
2572.94624,0.29175
2571.01749,0.29295
2569.08875,0.29369
2567.16000,0.29380
2565.23126,0.29316
2563.30251,0.29197
2561.37377,0.29048
2559.44502,0.28886
2557.51628,0.28715
2555.58753,0.28528
2553.65879,0.28341
2551.73004,0.28173
2549.80130,0.28030
2547.87255,0.27913
2545.94381,0.27808
2544.01506,0.27693
2542.08631,0.27592
2540.15757,0.27558
2538.22882,0.27591
2536.30008,0.27665
2534.37133,0.27793
2532.44259,0.27976
2530.51384,0.28197
2528.58510,0.28462
2526.65635,0.28775
2524.72761,0.29102
2522.79886,0.29413
2520.87012,0.29702
2518.94137,0.29979
2517.01263,0.30270
2515.08388,0.30590
2513.15514,0.30925
2511.22639,0.31251
2509.29764,0.31573
2507.36890,0.31898
2505.44015,0.32207
2503.51141,0.32481
2501.58266,0.32705
2499.65392,0.32865
2497.72517,0.32968
2495.79643,0.33071
2493.86768,0.33198
2491.93894,0.33298
2490.01019,0.33349
2488.08145,0.33415
2486.15270,0.33549
2484.22396,0.33760
2482.29521,0.34031
2480.36647,0.34345
2478.43772,0.34706
2476.50897,0.35096
2474.58023,0.35460
2472.65148,0.35756
2470.72274,0.35962
2468.79399,0.36085
2466.86525,0.36162
2464.93650,0.36212
2463.00776,0.36226
2461.07901,0.36203
2459.15027,0.36177
2457.22152,0.36160
2455.29278,0.36107
2453.36403,0.36006
2451.43529,0.35884
2449.50654,0.35735
2447.57779,0.35542
2445.64905,0.35293
2443.72030,0.34946
2441.79156,0.34475
2439.86281,0.33880
2437.93407,0.33175
2436.00532,0.32401
2434.07658,0.31620
2432.14783,0.30903
2430.21909,0.30291
2428.29034,0.29759
2426.36160,0.29254
2424.43285,0.28727
2422.50411,0.28159
2420.57536,0.27571
2418.64662,0.26989
2416.71787,0.26423
2414.78912,0.25893
2412.86038,0.25422
2410.93163,0.25010
2409.00289,0.24645
2407.07414,0.24317
2405.14540,0.24002
2403.21665,0.23674
2401.28791,0.23339
2399.35916,0.23013
2397.43042,0.22720
2395.50167,0.22479
2393.57293,0.22284
2391.64418,0.22126
2389.71544,0.21998
2387.78669,0.21889
2385.85795,0.21817
2383.92920,0.21796
2382.00045,0.21811
2380.07171,0.21846
2378.14296,0.21912
2376.21422,0.22037
2374.28547,0.22228
2372.35673,0.22492
2370.42798,0.22845
2368.49924,0.23281
2366.57049,0.23779
2364.64175,0.24347
2362.71300,0.24995
2360.78426,0.25704
2358.85551,0.26439
2356.92677,0.27168
2354.99802,0.27879
2353.06927,0.28573
2351.14053,0.29246
2349.21178,0.29889
2347.28304,0.30498
2345.35429,0.31077
2343.42555,0.31628
2341.49680,0.32143
2339.56806,0.32607
2337.63931,0.33009
2335.71057,0.33334
2333.78182,0.33541
2331.85308,0.33603
2329.92433,0.33537
2327.99559,0.33396
2326.06684,0.33289
2324.13810,0.33365
2322.20935,0.33707
2320.28060,0.34253
2318.35186,0.34844
2316.42311,0.35341
2314.49437,0.35682
2312.56562,0.35838
2310.63688,0.35813
2308.70813,0.35656
2306.77939,0.35407
2304.85064,0.35076
2302.92190,0.34663
2300.99315,0.34152
2299.06441,0.33531
2297.13566,0.32815
2295.20692,0.32031
2293.27817,0.31219
2291.34943,0.30426
2289.42068,0.29698
2287.49193,0.29085
2285.56319,0.28646
2283.63444,0.28422
2281.70570,0.28410
2279.77695,0.28589
2277.84821,0.28935
2275.91946,0.29380
2273.99072,0.29815
2272.06197,0.30162
2270.13323,0.30392
2268.20448,0.30485
2266.27574,0.30459
2264.34699,0.30379
2262.41825,0.30279
2260.48950,0.30138
2258.56075,0.29929
2256.63201,0.29646
2254.70326,0.29305
2252.77452,0.28933
2250.84577,0.28567
2248.91703,0.28248
2246.98828,0.27987
2245.05954,0.27781
2243.13079,0.27641
2241.20205,0.27574
2239.27330,0.27550
2237.34456,0.27520
2235.41581,0.27471
2233.48707,0.27432
2231.55832,0.27406
2229.62958,0.27380
2227.70083,0.27370
2225.77208,0.27387
2223.84334,0.27420
2221.91459,0.27453
2219.98585,0.27465
2218.05710,0.27440
2216.12836,0.27363
2214.19961,0.27228
2212.27087,0.27070
2210.34212,0.26981
2208.41338,0.27064
2206.48463,0.27337
2204.55589,0.27714
2202.62714,0.28087
2200.69840,0.28407
2198.76965,0.28664
2196.84090,0.28864
2194.91216,0.29020
2192.98341,0.29152
2191.05467,0.29303
2189.12592,0.29516
2187.19718,0.29786
2185.26843,0.30077
2183.33969,0.30360
2181.41094,0.30608
2179.48220,0.30797
2177.55345,0.30914
2175.62471,0.30951
2173.69596,0.30899
2171.76722,0.30758
2169.83847,0.30545
2167.90973,0.30303
2165.98098,0.30051
2164.05223,0.29776
2162.12349,0.29475
2160.19474,0.29160
2158.26600,0.28851
2156.33725,0.28549
2154.40851,0.28235
2152.47976,0.27930
2150.55102,0.27691
2148.62227,0.27509
2146.69353,0.27342
2144.76478,0.27186
2142.83604,0.27037
2140.90729,0.26875
2138.97855,0.26714
2137.04980,0.26577
2135.12106,0.26453
2133.19231,0.26322
2131.26356,0.26182
2129.33482,0.26049
2127.40607,0.25923
2125.47733,0.25778
2123.54858,0.25602
2121.61984,0.25409
2119.69109,0.25219
2117.76235,0.25044
2115.83360,0.24910
2113.90486,0.24830
2111.97611,0.24787
2110.04737,0.24769
2108.11862,0.24771
2106.18988,0.24780
2104.26113,0.24784
2102.33238,0.24773
2100.40364,0.24754
2098.47489,0.24754
2096.54615,0.24789
2094.61740,0.24854
2092.68866,0.24932
2090.75991,0.25016
2088.83117,0.25119
2086.90242,0.25254
2084.97368,0.25405
2083.04493,0.25557
2081.11619,0.25706
2079.18744,0.25857
2077.25870,0.26013
2075.32995,0.26150
2073.40121,0.26240
2071.47246,0.26276
2069.54371,0.26254
2067.61497,0.26184
2065.68622,0.26101
2063.75748,0.26041
2061.82873,0.26021
2059.89999,0.26053
2057.97124,0.26153
2056.04250,0.26325
2054.11375,0.26562
2052.18501,0.26846
2050.25626,0.27138
2048.32752,0.27386
2046.39877,0.27539
2044.47003,0.27559
2042.54128,0.27448
2040.61254,0.27241
2038.68379,0.26954
2036.75504,0.26605
2034.82630,0.26250
2032.89755,0.25950
2030.96881,0.25763
2029.04006,0.25725
2027.11132,0.25810
2025.18257,0.25949
2023.25383,0.26067
2021.32508,0.26109
2019.39634,0.26061
2017.46759,0.25964
2015.53885,0.25904
2013.61010,0.25936
2011.68136,0.26037
2009.75261,0.26160
2007.82386,0.26246
2005.89512,0.26236
2003.96637,0.26114
2002.03763,0.25893
2000.10888,0.25586
1998.18014,0.25230
1996.25139,0.24865
1994.32265,0.24495
1992.39390,0.24145
1990.46516,0.23870
1988.53641,0.23693
1986.60767,0.23582
1984.67892,0.23469
1982.75018,0.23287
1980.82143,0.23012
1978.89269,0.22648
1976.96394,0.22202
1975.03519,0.21683
1973.10645,0.21100
1971.17770,0.20445
1969.24896,0.19698
1967.32021,0.18860
1965.39147,0.17955
1963.46272,0.17037
1961.53398,0.16147
1959.60523,0.15289
1957.67649,0.14485
1955.74774,0.13807
1953.81900,0.13338
1951.89025,0.13187
1949.96151,0.13453
1948.03276,0.14116
1946.10402,0.15021
1944.17527,0.16007
1942.24652,0.16988
1940.31778,0.17940
1938.38903,0.18857
1936.46029,0.19724
1934.53154,0.20534
1932.60280,0.21292
1930.67405,0.22003
1928.74531,0.22682
1926.81656,0.23335
1924.88782,0.23946
1922.95907,0.24490
1921.03033,0.24944
1919.10158,0.25320
1917.17284,0.25628
1915.24409,0.25850
1913.31534,0.25987
1911.38660,0.26056
1909.45785,0.26054
1907.52911,0.25960
1905.60036,0.25789
1903.67162,0.25574
1901.74287,0.25323
1899.81413,0.25045
1897.88538,0.24777
1895.95664,0.24540
1894.02789,0.24326
1892.09915,0.24109
1890.17040,0.23848
1888.24166,0.23540
1886.31291,0.23245
1884.38417,0.23016
1882.45542,0.22894
1880.52667,0.22897
1878.59793,0.22971
1876.66918,0.23027
1874.74044,0.23001
1872.81169,0.22856
1870.88295,0.22579
1868.95420,0.22193
1867.02546,0.21779
1865.09671,0.21403
1863.16797,0.21061
1861.23922,0.20723
1859.31048,0.20378
1857.38173,0.20011
1855.45299,0.19578
1853.52424,0.19057
1851.59549,0.18462
1849.66675,0.17792
1847.73800,0.17058
1845.80926,0.16300
1843.88051,0.15550
1841.95177,0.14847
1840.02302,0.14211
1838.09428,0.13618
1836.16553,0.13048
1834.23679,0.12516
1832.30804,0.12035
1830.37930,0.11581
1828.45055,0.11173
1826.52181,0.10866
1824.59306,0.10670
1822.66432,0.10581
1820.73557,0.10577
1818.80682,0.10597
1816.87808,0.10587
1814.94933,0.10530
1813.02059,0.10433
1811.09184,0.10312
1809.16310,0.10181
1807.23435,0.10051
1805.30561,0.09920
1803.37686,0.09783
1801.44812,0.09648
1799.51937,0.09518
1797.59063,0.09387
1795.66188,0.09265
1793.73314,0.09145
1791.80439,0.08981
1789.87565,0.08773
1787.94690,0.08548
1786.01815,0.08308
1784.08941,0.08053
1782.16066,0.07796
1780.23192,0.07541
1778.30317,0.07300
1776.37443,0.07071
1774.44568,0.06825
1772.51694,0.06540
1770.58819,0.06238
1768.65945,0.05935
1766.73070,0.05615
1764.80196,0.05282
1762.87321,0.04930
1760.94447,0.04557
1759.01572,0.04191
1757.08697,0.03828
1755.15823,0.03472
1753.22948,0.03139
1751.30074,0.02808
1749.37199,0.02476
1747.44325,0.02186
1745.51450,0.01956
1743.58576,0.01775
1741.65701,0.01648
1739.72827,0.01587
1737.79952,0.01575
1735.87078,0.01595
1733.94203,0.01668
1732.01329,0.01802
1730.08454,0.01959
1728.15580,0.02134
1726.22705,0.02341
1724.29830,0.02572
1722.36956,0.02799
1720.44081,0.03000
1718.51207,0.03169
1716.58332,0.03284
1714.65458,0.03319
1712.72583,0.03263
1710.79709,0.03132
1708.86834,0.02983
1706.93960,0.02879
1705.01085,0.02854
1703.08211,0.02897
1701.15336,0.02985
1699.22462,0.03111
1697.29587,0.03272
1695.36713,0.03472
1693.43838,0.03697
1691.50963,0.03913
1689.58089,0.04105
1687.65214,0.04263
1685.72340,0.04373
1683.79465,0.04447
1681.86591,0.04513
1679.93716,0.04569
1678.00842,0.04605
1676.07967,0.04644
1674.15093,0.04765
1672.22218,0.05057
1670.29344,0.05561
1668.36469,0.06213
1666.43595,0.06862
1664.50720,0.07454
1662.57845,0.08012
1660.64971,0.08526
1658.72096,0.08975
1656.79222,0.09353
1654.86347,0.09681
1652.93473,0.09975
1651.00598,0.10201
1649.07724,0.10392
1647.14849,0.10603
1645.21975,0.10813
1643.29100,0.10994
1641.36226,0.11166
1639.43351,0.11344
1637.50477,0.11539
1635.57602,0.11756
1633.64728,0.11973
1631.71853,0.12167
1629.78978,0.12326
1627.86104,0.12439
1625.93229,0.12504
1624.00355,0.12489
1622.07480,0.12305
1620.14606,0.11883
1618.21731,0.11199
1616.28857,0.10407
1614.35982,0.09943
1612.43108,0.09990
1610.50233,0.10416
1608.57359,0.11062
1606.64484,0.11786
1604.71610,0.12492
1602.78735,0.13124
1600.85861,0.13637
1598.92986,0.13976
1597.00111,0.14091
1595.07237,0.13962
1593.14362,0.13642
1591.21488,0.13204
1589.28613,0.12611
1587.35739,0.11743
1585.42864,0.10542
1583.49990,0.09118
1581.57115,0.07754
1579.64241,0.06798
1577.71366,0.06490
1575.78492,0.06942
1573.85617,0.07932
1571.92743,0.09090
1569.99868,0.10266
1568.06993,0.11277
1566.14119,0.12001
1564.21244,0.12484
1562.28370,0.12798
1560.35495,0.13014
1558.42621,0.13129
1556.49746,0.13164
1554.56872,0.13232
1552.63997,0.13350
1550.71123,0.13458
1548.78248,0.13519
1546.85374,0.13512
1544.92499,0.13429
1542.99625,0.13271
1541.06750,0.12994
1539.13876,0.12522
1537.21001,0.11922
1535.28126,0.11248
1533.35252,0.10505
1531.42377,0.09875
1529.49503,0.09497
1527.56628,0.09330
1525.63754,0.09327
1523.70879,0.09420
1521.78005,0.09496
1519.85130,0.09432
1517.92256,0.09159
1515.99381,0.08634
1514.06507,0.07834
1512.13632,0.06757
1510.20758,0.05502
1508.27883,0.04244
1506.35008,0.03261
1504.42134,0.03046
1502.49259,0.03711
1500.56385,0.05052
1498.63510,0.06748
1496.70636,0.08393
1494.77761,0.09599
1492.84887,0.10171
1490.92012,0.10145
1488.99138,0.09635
1487.06263,0.08832
1485.13389,0.07903
1483.20514,0.06918
1481.27640,0.05914
1479.34765,0.04982
1477.41891,0.04202
1475.49016,0.03585
1473.56141,0.03118
1471.63267,0.02807
1469.70392,0.02649
1467.77518,0.02588
1465.84643,0.02579
1463.91769,0.02623
1461.98894,0.02732
1460.06020,0.02891
1458.13145,0.03075
1456.20271,0.03260
1454.27396,0.03453
1452.34522,0.03695
1450.41647,0.03997
1448.48773,0.04333
1446.55898,0.04656
1444.63024,0.04906
1442.70149,0.05069
1440.77274,0.05174
1438.84400,0.05246
1436.91525,0.05276
1434.98651,0.05222
1433.05776,0.05063
1431.12902,0.04794
1429.20027,0.04421
1427.27153,0.03974
1425.34278,0.03511
1423.41404,0.03116
1421.48529,0.02827
1419.55655,0.02587
1417.62780,0.02328
1415.69906,0.02067
1413.77031,0.01866
1411.84156,0.01787
1409.91282,0.01824
1407.98407,0.01916
1406.05533,0.02038
1404.12658,0.02204
1402.19784,0.02376
1400.26909,0.02489
1398.34035,0.02517
1396.41160,0.02478
1394.48286,0.02403
1392.55411,0.02328
1390.62537,0.02284
1388.69662,0.02284
1386.76788,0.02321
1384.83913,0.02366
1382.91039,0.02411
1380.98164,0.02475
1379.05289,0.02557
1377.12415,0.02645
1375.19540,0.02740
1373.26666,0.02839
1371.33791,0.02921
1369.40917,0.02959
1367.48042,0.02936
1365.55168,0.02857
1363.62293,0.02741
1361.69419,0.02608
1359.76544,0.02500
1357.83670,0.02478
1355.90795,0.02549
1353.97921,0.02688
1352.05046,0.02872
1350.12172,0.03047
1348.19297,0.03147
1346.26422,0.03160
1344.33548,0.03087
1342.40673,0.02931
1340.47799,0.02735
1338.54924,0.02563
1336.62050,0.02422
1334.69175,0.02290
1332.76301,0.02165
1330.83426,0.02068
1328.90552,0.02008
1326.97677,0.01955
1325.04803,0.01887
1323.11928,0.01822
1321.19054,0.01765
1319.26179,0.01712
1317.33304,0.01662
1315.40430,0.01613
1313.47555,0.01564
1311.54681,0.01517
1309.61806,0.01487
1307.68932,0.01476
1305.76057,0.01476
1303.83183,0.01480
1301.90308,0.01491
1299.97434,0.01526
1298.04559,0.01586
1296.11685,0.01659
1294.18810,0.01744
1292.25936,0.01837
1290.33061,0.01941
1288.40187,0.02093
1286.47312,0.02314
1284.54437,0.02565
1282.61563,0.02816
1280.68688,0.03068
1278.75814,0.03308
1276.82939,0.03523
1274.90065,0.03713
1272.97190,0.03864
1271.04316,0.03957
1269.11441,0.03997
1267.18567,0.04003
1265.25692,0.03963
1263.32818,0.03871
1261.39943,0.03756
1259.47069,0.03652
1257.54194,0.03579
1255.61320,0.03552
1253.68445,0.03572
1251.75570,0.03627
1249.82696,0.03699
1247.89821,0.03755
1245.96947,0.03774
1244.04072,0.03745
1242.11198,0.03667
1240.18323,0.03567
1238.25449,0.03476
1236.32574,0.03400
1234.39700,0.03361
1232.46825,0.03389
1230.53951,0.03473
1228.61076,0.03563
1226.68202,0.03619
1224.75327,0.03644
1222.82452,0.03698
1220.89578,0.03874
1218.96703,0.04215
1217.03829,0.04645
1215.10954,0.05032
1213.18080,0.05309
1211.25205,0.05520
1209.32331,0.05723
1207.39456,0.05916
1205.46582,0.06095
1203.53707,0.06289
1201.60833,0.06529
1199.67958,0.06834
1197.75084,0.07192
1195.82209,0.07548
1193.89335,0.07827
1191.96460,0.07984
1190.03585,0.08013
1188.10711,0.07879
1186.17836,0.07544
1184.24962,0.07048
1182.32087,0.06475
1180.39213,0.05886
1178.46338,0.05345
1176.53464,0.04923
1174.60589,0.04658
1172.67715,0.04538
1170.74840,0.04528
1168.81966,0.04592
1166.89091,0.04659
1164.96217,0.04638
1163.03342,0.04506
1161.10467,0.04300
1159.17593,0.04040
1157.24718,0.03737
1155.31844,0.03412
1153.38969,0.03086
1151.46095,0.02777
1149.53220,0.02507
1147.60346,0.02296
1145.67471,0.02130
1143.74597,0.01978
1141.81722,0.01852
1139.88848,0.01795
1137.95973,0.01815
1136.03099,0.01871
1134.10224,0.01963
1132.17350,0.02142
1130.24475,0.02386
1128.31600,0.02595
1126.38726,0.02727
1124.45851,0.02798
1122.52977,0.02803
1120.60102,0.02733
1118.67228,0.02630
1116.74353,0.02553
1114.81479,0.02506
1112.88604,0.02461
1110.95730,0.02472
1109.02855,0.02594
1107.09981,0.02770
1105.17106,0.02915
1103.24232,0.02990
1101.31357,0.03016
1099.38483,0.03029
1097.45608,0.03014
1095.52733,0.02966
1093.59859,0.02930
1091.66984,0.02910
1089.74110,0.02881
1087.81235,0.02871
1085.88361,0.02909
1083.95486,0.02993
1082.02612,0.03160
1080.09737,0.03453
1078.16863,0.03850
1076.23988,0.04336
1074.31114,0.04885
1072.38239,0.05409
1070.45365,0.05832
1068.52490,0.06164
1066.59615,0.06420
1064.66741,0.06565
1062.73866,0.06586
1060.80992,0.06483
1058.88117,0.06243
1056.95243,0.05868
1055.02368,0.05350
1053.09494,0.04714
1051.16619,0.04071
1049.23745,0.03539
1047.30870,0.03176
1045.37996,0.02977
1043.45121,0.02924
1041.52247,0.02980
1039.59372,0.03086
1037.66498,0.03188
1035.73623,0.03255
1033.80748,0.03284
1031.87874,0.03272
1029.94999,0.03176
1028.02125,0.02975
1026.09250,0.02770
1024.16376,0.02669
1022.23501,0.02668
1020.30627,0.02729
1018.37752,0.02878
1016.44878,0.03235
1014.52003,0.03961
1012.59129,0.05100
1010.66254,0.06560
1008.73380,0.08130
1006.80505,0.09513
1004.87631,0.10550
1002.94756,0.11289
1001.01881,0.11793
999.09007,0.12069
997.16132,0.12126
995.23258,0.11978
993.30383,0.11633
991.37509,0.11123
989.44634,0.10538
987.51760,0.09947
985.58885,0.09357
983.66011,0.08776
981.73136,0.08226
979.80262,0.07720
977.87387,0.07318
975.94513,0.07109
974.01638,0.07105
972.08763,0.07257
970.15889,0.07535
968.23014,0.07926
966.30140,0.08379
964.37265,0.08805
962.44391,0.09075
960.51516,0.09046
958.58642,0.08685
956.65767,0.08086
954.72893,0.07387
952.80018,0.06735
950.87144,0.06260
948.94269,0.06060
947.01395,0.06129
945.08520,0.06297
943.15646,0.06337
941.22771,0.06177
939.29896,0.05978
937.37022,0.05929
935.44147,0.06039
933.51273,0.06245
931.58398,0.06562
929.65524,0.07025
927.72649,0.07592
925.79775,0.08173
923.86900,0.08700
921.94026,0.09118
920.01151,0.09394
918.08277,0.09554
916.15402,0.09619
914.22528,0.09550
912.29653,0.09325
910.36779,0.09006
908.43904,0.08735
906.51029,0.08657
904.58155,0.08796
902.65280,0.09051
900.72406,0.09332
898.79531,0.09627
896.86657,0.09943
894.93782,0.10242
893.00908,0.10459
891.08033,0.10518
889.15159,0.10324
887.22284,0.09787
885.29410,0.08892
883.36535,0.07712
881.43661,0.06428
879.50786,0.05254
877.57911,0.04294
875.65037,0.03582
873.72162,0.03242
871.79288,0.03509
869.86413,0.04544
867.93539,0.06114
866.00664,0.07613
864.07790,0.08546
862.14915,0.08818
860.22041,0.08592
858.29166,0.08104
856.36292,0.07573
854.43417,0.07162
852.50543,0.06967
850.57668,0.06949
848.64794,0.06997
846.71919,0.07104
844.79044,0.07323
842.86170,0.07687
840.93295,0.08212
839.00421,0.08842
837.07546,0.09461
835.14672,0.09987
833.21797,0.10379
831.28923,0.10651
829.36048,0.10825
827.43174,0.10868
825.50299,0.10771
823.57425,0.10648
821.64550,0.10640
819.71676,0.10750
817.78801,0.10872
815.85926,0.10932
813.93052,0.10955
812.00177,0.11000
810.07303,0.11081
808.14428,0.11199
806.21554,0.11379
804.28679,0.11587
802.35805,0.11611
800.42930,0.11067
798.50056,0.09833
796.57181,0.08536
794.64307,0.08121
792.71432,0.08871
790.78558,0.10264
788.85683,0.11643
786.92809,0.12680
784.99934,0.13300
783.07059,0.13535
781.14185,0.13447
779.21310,0.13054
777.28436,0.12481
775.35561,0.12049
773.42687,0.11970
771.49812,0.12136
769.56938,0.12370
767.64063,0.12611
765.71189,0.12797
763.78314,0.12824
761.85440,0.12696
759.92565,0.12506
757.99691,0.12277
756.06816,0.11980
754.13942,0.11585
752.21067,0.11030
750.28192,0.10252
748.35318,0.09194
746.42443,0.07827
744.49569,0.06244
742.56694,0.04635
740.63820,0.03254
738.70945,0.02342
736.78071,0.01941
734.85196,0.01901
732.92322,0.02074
730.99447,0.02372
729.06573,0.02704
727.13698,0.02995
725.20824,0.03256
723.27949,0.03612
721.35074,0.04306
719.42200,0.05518
717.49325,0.07072
715.56451,0.08565
713.63576,0.09725
711.70702,0.10464
709.77827,0.10796
707.84953,0.10877
705.92078,0.11025
703.99204,0.11621
702.06329,0.12822
700.13455,0.14398
698.20580,0.15974
696.27706,0.17282
694.34831,0.18176
692.41957,0.18683
690.49082,0.18926
688.56207,0.18928
686.63333,0.18689
684.70458,0.18233
682.77584,0.17672
680.84709,0.17356
678.91835,0.17582
676.98960,0.18264
675.06086,0.19038
673.13211,0.19594
671.20337,0.19929
669.27462,0.20238
667.34588,0.20559
665.41713,0.20743
663.48839,0.20827
661.55964,0.20952
659.63090,0.21063
657.70215,0.21117
655.77340,0.21232
653.84466,0.21453
651.91591,0.21675
649.98717,0.21825
648.05842,0.21914
646.12968,0.21966
644.20093,0.22025
642.27219,0.22124
640.34344,0.22122
638.41470,0.21748
636.48595,0.20709
634.55721,0.19019
632.62846,0.17882
630.69972,0.18659
628.77097,0.20589
626.84222,0.22066
624.91348,0.22809
622.98473,0.23234
621.05599,0.23510
619.12724,0.23702
617.19850,0.23886
615.26975,0.24058
613.34101,0.24155
611.41226,0.24190
609.48352,0.24239
607.55477,0.24297
605.62603,0.24300
603.69728,0.24262
601.76854,0.24231
599.83979,0.24180
