7497.03301,0.84437
7495.10426,0.83981
7493.17552,0.83553
7491.24677,0.83833
7489.31803,0.84455
7487.38928,0.84675
7485.46054,0.84711
7483.53179,0.84837
7481.60305,0.84794
7479.67430,0.84444
7477.74556,0.83881
7475.81681,0.83682
7473.88807,0.84254
7471.95932,0.84768
7470.03057,0.84500
7468.10183,0.84031
7466.17308,0.83875
7464.24434,0.83936
7462.31559,0.84075
7460.38685,0.83949
7458.45810,0.83631
7456.52936,0.83735
7454.60061,0.84033
7452.67187,0.83939
7450.74312,0.83752
7448.81438,0.83764
7446.88563,0.83619
7444.95689,0.83434
7443.02814,0.83690
7441.09940,0.83860
7439.17065,0.83526
7437.24190,0.83376
7435.31316,0.83480
7433.38441,0.83103
7431.45567,0.82299
7429.52692,0.82033
7427.59818,0.82657
7425.66943,0.83350
7423.74069,0.83309
7421.81194,0.82632
7419.88320,0.82028
7417.95445,0.81953
7416.02571,0.82251
7414.09696,0.82533
7412.16822,0.82598
7410.23947,0.82547
7408.31073,0.82496
7406.38198,0.82743
7404.45323,0.83136
7402.52449,0.82881
7400.59574,0.82240
7398.66700,0.82057
7396.73825,0.82531
7394.80951,0.83258
7392.88076,0.83218
7390.95202,0.82384
7389.02327,0.81936
7387.09453,0.81963
7385.16578,0.81830
7383.23704,0.81604
7381.30829,0.81536
7379.37955,0.81623
7377.45080,0.81547
7375.52205,0.81331
7373.59331,0.81552
7371.66456,0.81813
7369.73582,0.81325
7367.80707,0.80680
7365.87833,0.80577
7363.94958,0.80650
7362.02084,0.80633
7360.09209,0.80698
7358.16335,0.80890
7356.23460,0.81178
7354.30586,0.81305
7352.37711,0.80970
7350.44837,0.80240
7348.51962,0.79422
7346.59088,0.78951
7344.66213,0.79006
7342.73338,0.79266
7340.80464,0.79295
7338.87589,0.79044
7336.94715,0.78785
7335.01840,0.78678
7333.08966,0.78870
7331.16091,0.79114
7329.23217,0.78879
7327.30342,0.78652
7325.37468,0.78907
7323.44593,0.78898
7321.51719,0.78508
7319.58844,0.78506
7317.65970,0.78812
7315.73095,0.78909
7313.80221,0.78832
7311.87346,0.78778
7309.94471,0.78818
7308.01597,0.79114
7306.08722,0.79560
7304.15848,0.79787
7302.22973,0.79851
7300.30099,0.79861
7298.37224,0.79653
7296.44350,0.79207
7294.51475,0.78926
7292.58601,0.79227
7290.65726,0.79769
7288.72852,0.80215
7286.79977,0.80563
7284.87103,0.80454
7282.94228,0.79989
7281.01353,0.79726
7279.08479,0.79739
7277.15604,0.79870
7275.22730,0.79665
7273.29855,0.78798
7271.36981,0.78369
7269.44106,0.79141
7267.51232,0.79967
7265.58357,0.80165
7263.65483,0.80187
7261.72608,0.80142
7259.79734,0.79994
7257.86859,0.79961
7255.93985,0.79967
7254.01110,0.79586
7252.08236,0.79019
7250.15361,0.78717
7248.22486,0.78547
7246.29612,0.78523
7244.36737,0.78871
7242.43863,0.79413
7240.50988,0.79672
7238.58114,0.79416
7236.65239,0.78933
7234.72365,0.78627
7232.79490,0.78622
7230.86616,0.78910
7228.93741,0.79316
7227.00867,0.79273
7225.07992,0.78676
7223.15118,0.78056
7221.22243,0.77708
7219.29369,0.77715
7217.36494,0.77931
7215.43619,0.77953
7213.50745,0.77714
7211.57870,0.77464
7209.64996,0.77172
7207.72121,0.76900
7205.79247,0.77193
7203.86372,0.77856
7201.93498,0.78119
7200.00623,0.78285
7198.07749,0.78693
7196.14874,0.78659
7194.22000,0.78159
7192.29125,0.77982
7190.36251,0.78200
7188.43376,0.78468
7186.50501,0.78656
7184.57627,0.78751
7182.64752,0.78744
7180.71878,0.78562
7178.79003,0.78364
7176.86129,0.78402
7174.93254,0.78614
7173.00380,0.78655
7171.07505,0.78446
7169.14631,0.78566
7167.21756,0.79002
7165.28882,0.78933
7163.36007,0.78668
7161.43133,0.78913
7159.50258,0.79060
7157.57384,0.78663
7155.64509,0.78310
7153.71634,0.78172
7151.78760,0.78011
7149.85885,0.77928
7147.93011,0.77950
7146.00136,0.77905
7144.07262,0.77833
7142.14387,0.77761
7140.21513,0.77709
7138.28638,0.78060
7136.35764,0.78780
7134.42889,0.79263
7132.50015,0.79449
7130.57140,0.79577
7128.64266,0.79416
7126.71391,0.78802
7124.78516,0.78278
7122.85642,0.78400
7120.92767,0.78705
7118.99893,0.78461
7117.07018,0.77958
7115.14144,0.77880
7113.21269,0.78180
7111.28395,0.78467
7109.35520,0.78798
7107.42646,0.79165
7105.49771,0.79156
7103.56897,0.78836
7101.64022,0.78743
7099.71148,0.79018
7097.78273,0.79193
7095.85399,0.78915
7093.92524,0.78740
7091.99649,0.78935
7090.06775,0.78883
7088.13900,0.78695
7086.21026,0.78894
7084.28151,0.79162
7082.35277,0.78974
7080.42402,0.78462
7078.49528,0.78126
7076.56653,0.78080
7074.63779,0.78216
7072.70904,0.78484
7070.78030,0.78607
7068.85155,0.78489
7066.92281,0.78308
7064.99406,0.77949
7063.06532,0.77450
7061.13657,0.77359
7059.20782,0.77651
7057.27908,0.77730
7055.35033,0.77708
7053.42159,0.77922
7051.49284,0.78274
7049.56410,0.78567
7047.63535,0.78490
7045.70661,0.78027
7043.77786,0.77664
7041.84912,0.77779
7039.92037,0.78084
7037.99163,0.78130
7036.06288,0.78129
7034.13414,0.78111
7032.20539,0.77742
7030.27664,0.77371
7028.34790,0.77526
7026.41915,0.77969
7024.49041,0.78186
7022.56166,0.78243
7020.63292,0.78328
7018.70417,0.78325
7016.77543,0.78314
7014.84668,0.78449
7012.91794,0.78658
7010.98919,0.78803
7009.06045,0.78820
7007.13170,0.78712
7005.20296,0.78514
7003.27421,0.78393
7001.34547,0.78414
6999.41672,0.78331
6997.48797,0.78173
6995.55923,0.78230
6993.63048,0.78368
6991.70174,0.78362
6989.77299,0.78392
6987.84425,0.78602
6985.91550,0.78876
6983.98676,0.79133
6982.05801,0.79403
6980.12927,0.79465
6978.20052,0.79131
6976.27178,0.78919
6974.34303,0.79259
6972.41429,0.79648
6970.48554,0.79628
6968.55680,0.79525
6966.62805,0.79621
6964.69930,0.79721
6962.77056,0.79673
6960.84181,0.79552
6958.91307,0.79542
6956.98432,0.79715
6955.05558,0.79936
6953.12683,0.80192
6951.19809,0.80263
6949.26934,0.79812
6947.34060,0.79376
6945.41185,0.79434
6943.48311,0.79485
6941.55436,0.79419
6939.62562,0.79606
6937.69687,0.79865
6935.76812,0.79910
6933.83938,0.79870
6931.91063,0.79939
6929.98189,0.79953
6928.05314,0.79716
6926.12440,0.79460
6924.19565,0.79498
6922.26691,0.79741
6920.33816,0.79913
6918.40942,0.80130
6916.48067,0.80544
6914.55193,0.80735
6912.62318,0.80570
6910.69444,0.80457
6908.76569,0.80393
6906.83695,0.80168
6904.90820,0.79981
6902.97945,0.80035
6901.05071,0.80144
6899.12196,0.80129
6897.19322,0.80170
6895.26447,0.80370
6893.33573,0.80507
6891.40698,0.80500
6889.47824,0.80422
6887.54949,0.80288
6885.62075,0.80226
6883.69200,0.80288
6881.76326,0.80400
6879.83451,0.80577
6877.90577,0.80638
6875.97702,0.80428
6874.04828,0.80208
6872.11953,0.80220
6870.19078,0.80492
6868.26204,0.80828
6866.33329,0.80903
6864.40455,0.80834
6862.47580,0.80858
6860.54706,0.80804
6858.61831,0.80680
6856.68957,0.80652
6854.76082,0.80655
6852.83208,0.80651
6850.90333,0.80568
6848.97459,0.80510
6847.04584,0.80804
6845.11710,0.81202
6843.18835,0.81310
6841.25960,0.81418
6839.33086,0.81715
6837.40211,0.81774
6835.47337,0.81446
6833.54462,0.81369
6831.61588,0.81698
6829.68713,0.81765
6827.75839,0.81539
6825.82964,0.81465
6823.90090,0.81451
6821.97215,0.81357
6820.04341,0.81394
6818.11466,0.81551
6816.18592,0.81568
6814.25717,0.81715
6812.32843,0.82287
6810.39968,0.82734
6808.47093,0.82613
6806.54219,0.82240
6804.61344,0.82011
6802.68470,0.82138
6800.75595,0.82542
6798.82721,0.82780
6796.89846,0.82663
6794.96972,0.82430
6793.04097,0.82205
6791.11223,0.82066
6789.18348,0.82201
6787.25474,0.82465
6785.32599,0.82501
6783.39725,0.82419
6781.46850,0.82535
6779.53975,0.82850
6777.61101,0.83167
6775.68226,0.83244
6773.75352,0.83023
6771.82477,0.82717
6769.89603,0.82556
6767.96728,0.82550
6766.03854,0.82578
6764.10979,0.82666
6762.18105,0.82817
6760.25230,0.82883
6758.32356,0.82808
6756.39481,0.82634
6754.46607,0.82446
6752.53732,0.82305
6750.60858,0.82153
6748.67983,0.82024
6746.75108,0.82112
6744.82234,0.82386
6742.89359,0.82716
6740.96485,0.83032
6739.03610,0.83160
6737.10736,0.83115
6735.17861,0.82978
6733.24987,0.82762
6731.32112,0.82651
6729.39238,0.82691
6727.46363,0.82824
6725.53489,0.83100
6723.60614,0.83372
6721.67740,0.83385
6719.74865,0.83159
6717.81991,0.82975
6715.89116,0.82815
6713.96241,0.82553
6712.03367,0.82602
6710.10492,0.83024
6708.17618,0.83139
6706.24743,0.82840
6704.31869,0.82763
6702.38994,0.83175
6700.46120,0.83556
6698.53245,0.83454
6696.60371,0.83195
6694.67496,0.83108
6692.74622,0.83159
6690.81747,0.83350
6688.88873,0.83515
6686.95998,0.83547
6685.03123,0.83669
6683.10249,0.83880
6681.17374,0.83914
6679.24500,0.83683
6677.31625,0.83353
6675.38751,0.83221
6673.45876,0.83471
6671.53002,0.83879
6669.60127,0.84025
6667.67253,0.83892
6665.74378,0.83726
6663.81504,0.83599
6661.88629,0.83514
6659.95755,0.83501
6658.02880,0.83503
6656.10006,0.83445
6654.17131,0.83383
6652.24256,0.83342
6650.31382,0.83249
6648.38507,0.83217
6646.45633,0.83316
6644.52758,0.83313
6642.59884,0.83272
6640.67009,0.83494
6638.74135,0.83776
6636.81260,0.83876
6634.88386,0.83960
6632.95511,0.84057
6631.02637,0.84030
6629.09762,0.83877
6627.16888,0.83773
6625.24013,0.83870
6623.31139,0.83995
6621.38264,0.83930
6619.45389,0.83823
6617.52515,0.83916
6615.59640,0.84095
6613.66766,0.84139
6611.73891,0.84190
6609.81017,0.84389
6607.88142,0.84504
6605.95268,0.84447
6604.02393,0.84446
6602.09519,0.84578
6600.16644,0.84660
6598.23770,0.84597
6596.30895,0.84555
6594.38021,0.84515
6592.45146,0.84287
6590.52271,0.84099
6588.59397,0.84231
6586.66522,0.84475
6584.73648,0.84475
6582.80773,0.84337
6580.87899,0.84410
6578.95024,0.84541
6577.02150,0.84432
6575.09275,0.84269
6573.16401,0.84270
6571.23526,0.84287
6569.30652,0.84198
6567.37777,0.84124
6565.44903,0.84148
6563.52028,0.84261
6561.59154,0.84390
6559.66279,0.84363
6557.73404,0.84146
6555.80530,0.84070
6553.87655,0.84326
6551.94781,0.84534
6550.01906,0.84502
6548.09032,0.84513
6546.16157,0.84703
6544.23283,0.84926
6542.30408,0.84953
6540.37534,0.84801
6538.44659,0.84591
6536.51785,0.84284
6534.58910,0.84035
6532.66036,0.84040
6530.73161,0.84161
6528.80287,0.84218
6526.87412,0.84226
6524.94537,0.84200
6523.01663,0.84131
6521.08788,0.84022
6519.15914,0.83973
6517.23039,0.84169
6515.30165,0.84431
6513.37290,0.84511
6511.44416,0.84547
6509.51541,0.84558
6507.58667,0.84436
6505.65792,0.84332
6503.72918,0.84369
6501.80043,0.84496
6499.87169,0.84726
6497.94294,0.84914
6496.01419,0.84657
6494.08545,0.84074
6492.15670,0.83812
6490.22796,0.84040
6488.29921,0.84315
6486.37047,0.84239
6484.44172,0.83998
6482.51298,0.83931
6480.58423,0.83968
6478.65549,0.84077
6476.72674,0.84329
6474.79800,0.84551
6472.86925,0.84610
6470.94051,0.84546
6469.01176,0.84431
6467.08302,0.84275
6465.15427,0.84074
6463.22552,0.83976
6461.29678,0.83978
6459.36803,0.83911
6457.43929,0.83922
6455.51054,0.84199
6453.58180,0.84565
6451.65305,0.84775
6449.72431,0.84745
6447.79556,0.84533
6445.86682,0.84281
6443.93807,0.84166
6442.00933,0.84264
6440.08058,0.84344
6438.15184,0.84274
6436.22309,0.84327
6434.29434,0.84508
6432.36560,0.84442
6430.43685,0.84133
6428.50811,0.83940
6426.57936,0.84008
6424.65062,0.84262
6422.72187,0.84560
6420.79313,0.84628
6418.86438,0.84395
6416.93564,0.84108
6415.00689,0.83998
6413.07815,0.84143
6411.14940,0.84209
6409.22066,0.83906
6407.29191,0.83643
6405.36317,0.83744
6403.43442,0.84040
6401.50567,0.84363
6399.57693,0.84613
6397.64818,0.84687
6395.71944,0.84547
6393.79069,0.84381
6391.86195,0.84373
6389.93320,0.84351
6388.00446,0.84247
6386.07571,0.84209
6384.14697,0.84201
6382.21822,0.84117
6380.28948,0.83952
6378.36073,0.83809
6376.43199,0.83827
6374.50324,0.84019
6372.57450,0.84292
6370.64575,0.84469
6368.71700,0.84387
6366.78826,0.84157
6364.85951,0.84112
6362.93077,0.84348
6361.00202,0.84490
6359.07328,0.84344
6357.14453,0.84181
6355.21579,0.84064
6353.28704,0.83923
6351.35830,0.83888
6349.42955,0.83976
6347.50081,0.84014
6345.57206,0.83913
6343.64332,0.83742
6341.71457,0.83550
6339.78582,0.83430
6337.85708,0.83518
6335.92833,0.83648
6333.99959,0.83630
6332.07084,0.83620
6330.14210,0.83732
6328.21335,0.83850
6326.28461,0.83866
6324.35586,0.83782
6322.42712,0.83667
6320.49837,0.83583
6318.56963,0.83547
6316.64088,0.83477
6314.71214,0.83355
6312.78339,0.83324
6310.85465,0.83406
6308.92590,0.83498
6306.99715,0.83520
6305.06841,0.83481
6303.13966,0.83506
6301.21092,0.83692
6299.28217,0.83924
6297.35343,0.83991
6295.42468,0.83951
6293.49594,0.83986
6291.56719,0.84019
6289.63845,0.83912
6287.70970,0.83711
6285.78096,0.83472
6283.85221,0.83293
6281.92347,0.83379
6279.99472,0.83569
6278.06598,0.83491
6276.13723,0.83278
6274.20848,0.83211
6272.27974,0.83187
6270.35099,0.83125
6268.42225,0.83117
6266.49350,0.83115
6264.56476,0.83035
6262.63601,0.82947
6260.70727,0.82938
6258.77852,0.83019
6256.84978,0.83076
6254.92103,0.82953
6252.99229,0.82698
6251.06354,0.82548
6249.13480,0.82548
6247.20605,0.82542
6245.27730,0.82528
6243.34856,0.82446
6241.41981,0.82256
6239.49107,0.82193
6237.56232,0.82325
6235.63358,0.82455
6233.70483,0.82481
6231.77609,0.82399
6229.84734,0.82184
6227.91860,0.81934
6225.98985,0.81881
6224.06111,0.81950
6222.13236,0.81885
6220.20362,0.81766
6218.27487,0.81650
6216.34613,0.81313
6214.41738,0.80881
6212.48863,0.80763
6210.55989,0.80771
6208.63114,0.80368
6206.70240,0.79686
6204.77365,0.79230
6202.84491,0.78988
6200.91616,0.78646
6198.98742,0.78172
6197.05867,0.77785
6195.12993,0.77602
6193.20118,0.77578
6191.27244,0.77749
6189.34369,0.78085
6187.41495,0.78350
6185.48620,0.78402
6183.55746,0.78312
6181.62871,0.78246
6179.69996,0.78338
6177.77122,0.78526
6175.84247,0.78593
6173.91373,0.78441
6171.98498,0.78230
6170.05624,0.78088
6168.12749,0.77952
6166.19875,0.77832
6164.27000,0.77843
6162.34126,0.77936
6160.41251,0.77853
6158.48377,0.77506
6156.55502,0.77137
6154.62628,0.76823
6152.69753,0.76489
6150.76878,0.76250
6148.84004,0.76179
6146.91129,0.76163
6144.98255,0.76063
6143.05380,0.75975
6141.12506,0.76074
6139.19631,0.76203
6137.26757,0.76141
6135.33882,0.75858
6133.41008,0.75515
6131.48133,0.75356
6129.55259,0.75361
6127.62384,0.75272
6125.69510,0.74961
6123.76635,0.74600
6121.83761,0.74352
6119.90886,0.74067
6117.98011,0.73585
6116.05137,0.72982
6114.12262,0.72384
6112.19388,0.71835
6110.26513,0.71256
6108.33639,0.70581
6106.40764,0.69874
6104.47890,0.69136
6102.55015,0.68292
6100.62141,0.67379
6098.69266,0.66531
6096.76392,0.65823
6094.83517,0.65160
6092.90643,0.64414
6090.97768,0.63645
6089.04893,0.63039
6087.12019,0.62669
6085.19144,0.62334
6083.26270,0.61836
6081.33395,0.61238
6079.40521,0.60630
6077.47646,0.60060
6075.54772,0.59506
6073.61897,0.58825
6071.69023,0.58021
6069.76148,0.57186
6067.83274,0.56231
6065.90399,0.55152
6063.97525,0.54192
6062.04650,0.53386
6060.11776,0.52556
6058.18901,0.51827
6056.26026,0.51416
6054.33152,0.51179
6052.40277,0.50920
6050.47403,0.50685
6048.54528,0.50427
6046.61654,0.50051
6044.68779,0.49703
6042.75905,0.49364
6040.83030,0.48896
6038.90156,0.48422
6036.97281,0.48058
6035.04407,0.47720
6033.11532,0.47346
6031.18658,0.47043
6029.25783,0.46893
6027.32909,0.46837
6025.40034,0.46788
6023.47159,0.46680
6021.54285,0.46580
6019.61410,0.46572
6017.68536,0.46710
6015.75661,0.47014
6013.82787,0.47372
6011.89912,0.47781
6009.97038,0.48331
6008.04163,0.49027
6006.11289,0.49805
6004.18414,0.50472
6002.25540,0.50997
6000.32665,0.51633
5998.39791,0.52399
5996.46916,0.53081
5994.54041,0.53688
5992.61167,0.54255
5990.68292,0.54664
5988.75418,0.54998
5986.82543,0.55475
5984.89669,0.56061
5982.96794,0.56522
5981.03920,0.56742
5979.11045,0.56828
5977.18171,0.56961
5975.25296,0.57241
5973.32422,0.57526
5971.39547,0.57645
5969.46673,0.57702
5967.53798,0.57794
5965.60924,0.57846
5963.68049,0.57894
5961.75174,0.57999
5959.82300,0.58012
5957.89425,0.57860
5955.96551,0.57671
5954.03676,0.57482
5952.10802,0.57208
5950.17927,0.56789
5948.25053,0.56331
5946.32178,0.55977
5944.39304,0.55697
5942.46429,0.55544
5940.53555,0.55638
5938.60680,0.55904
5936.67806,0.56176
5934.74931,0.56389
5932.82057,0.56710
5930.89182,0.57280
5928.96307,0.57910
5927.03433,0.58389
5925.10558,0.58751
5923.17684,0.59133
5921.24809,0.59552
5919.31935,0.59918
5917.39060,0.60195
5915.46186,0.60466
5913.53311,0.60738
5911.60437,0.60919
5909.67562,0.61019
5907.74688,0.61050
5905.81813,0.61050
5903.88939,0.61132
5901.96064,0.61219
5900.03189,0.61217
5898.10315,0.61231
5896.17440,0.61275
5894.24566,0.61235
5892.31691,0.61162
5890.38817,0.61263
5888.45942,0.61537
5886.53068,0.61765
5884.60193,0.61798
5882.67319,0.61750
5880.74444,0.61855
5878.81570,0.62042
5876.88695,0.62109
5874.95821,0.62172
5873.02946,0.62322
5871.10072,0.62504
5869.17197,0.62809
5867.24322,0.63226
5865.31448,0.63501
5863.38573,0.63545
5861.45699,0.63551
5859.52824,0.63671
5857.59950,0.63827
5855.67075,0.63835
5853.74201,0.63664
5851.81326,0.63485
5849.88452,0.63437
5847.95577,0.63406
5846.02703,0.63228
5844.09828,0.63002
5842.16954,0.62836
5840.24079,0.62623
5838.31205,0.62358
5836.38330,0.62162
5834.45455,0.61946
5832.52581,0.61663
5830.59706,0.61480
5828.66832,0.61359
5826.73957,0.61127
5824.81083,0.60822
5822.88208,0.60483
5820.95334,0.60013
5819.02459,0.59459
5817.09585,0.59044
5815.16710,0.58782
5813.23836,0.58522
5811.30961,0.58255
5809.38087,0.57997
5807.45212,0.57790
5805.52337,0.57695
5803.59463,0.57636
5801.66588,0.57561
5799.73714,0.57521
5797.80839,0.57537
5795.87965,0.57618
5793.95090,0.57745
5792.02216,0.57836
5790.09341,0.57931
5788.16467,0.58174
5786.23592,0.58559
5784.30718,0.59002
5782.37843,0.59472
5780.44969,0.59933
5778.52094,0.60346
5776.59220,0.60689
5774.66345,0.61003
5772.73470,0.61299
5770.80596,0.61498
5768.87721,0.61609
5766.94847,0.61676
5765.01972,0.61717
5763.09098,0.61825
5761.16223,0.62026
5759.23349,0.62183
5757.30474,0.62209
5755.37600,0.62187
5753.44725,0.62185
5751.51851,0.62208
5749.58976,0.62350
5747.66102,0.62628
5745.73227,0.62821
5743.80352,0.62838
5741.87478,0.62815
5739.94603,0.62856
5738.01729,0.63044
5736.08854,0.63386
5734.15980,0.63721
5732.23105,0.63909
5730.30231,0.63973
5728.37356,0.64022
5726.44482,0.64125
5724.51607,0.64287
5722.58733,0.64506
5720.65858,0.64764
5718.72984,0.64939
5716.80109,0.64986
5714.87235,0.65056
5712.94360,0.65208
5711.01485,0.65304
5709.08611,0.65291
5707.15736,0.65320
5705.22862,0.65531
5703.29987,0.65858
5701.37113,0.66168
5699.44238,0.66431
5697.51364,0.66616
5695.58489,0.66687
5693.65615,0.66720
5691.72740,0.66766
5689.79866,0.66778
5687.86991,0.66765
5685.94117,0.66792
5684.01242,0.66906
5682.08368,0.67085
5680.15493,0.67273
5678.22618,0.67419
5676.29744,0.67473
5674.36869,0.67480
5672.43995,0.67538
5670.51120,0.67632
5668.58246,0.67708
5666.65371,0.67773
5664.72497,0.67841
5662.79622,0.67864
5660.86748,0.67786
5658.93873,0.67671
5657.00999,0.67639
5655.08124,0.67706
5653.15250,0.67826
5651.22375,0.67894
5649.29500,0.67832
5647.36626,0.67762
5645.43751,0.67798
5643.50877,0.67934
5641.58002,0.68163
5639.65128,0.68433
5637.72253,0.68628
5635.79379,0.68763
5633.86504,0.68941
5631.93630,0.69156
5630.00755,0.69382
5628.07881,0.69592
5626.15006,0.69733
5624.22132,0.69900
5622.29257,0.70148
5620.36383,0.70329
5618.43508,0.70413
5616.50633,0.70533
5614.57759,0.70688
5612.64884,0.70818
5610.72010,0.70963
5608.79135,0.71107
5606.86261,0.71156
5604.93386,0.71066
5603.00512,0.70964
5601.07637,0.71000
5599.14763,0.71103
5597.21888,0.71133
5595.29014,0.71044
5593.36139,0.70893
5591.43265,0.70790
5589.50390,0.70760
5587.57516,0.70737
5585.64641,0.70648
5583.71766,0.70553
5581.78892,0.70554
5579.86017,0.70576
5577.93143,0.70452
5576.00268,0.70219
5574.07394,0.70035
5572.14519,0.69883
5570.21645,0.69661
5568.28770,0.69378
5566.35896,0.69199
5564.43021,0.69230
5562.50147,0.69332
5560.57272,0.69358
5558.64398,0.69337
5556.71523,0.69366
5554.78648,0.69433
5552.85774,0.69401
5550.92899,0.69285
5549.00025,0.69246
5547.07150,0.69311
5545.14276,0.69374
5543.21401,0.69373
5541.28527,0.69374
5539.35652,0.69450
5537.42778,0.69544
5535.49903,0.69619
5533.57029,0.69674
5531.64154,0.69640
5529.71280,0.69565
5527.78405,0.69568
5525.85531,0.69615
5523.92656,0.69672
5521.99781,0.69764
5520.06907,0.69908
5518.14032,0.70076
5516.21158,0.70157
5514.28283,0.70154
5512.35409,0.70269
5510.42534,0.70530
5508.49660,0.70711
5506.56785,0.70752
5504.63911,0.70804
5502.71036,0.70918
5500.78162,0.71032
5498.85287,0.71096
5496.92413,0.71063
5494.99538,0.70927
5493.06664,0.70744
5491.13789,0.70628
5489.20914,0.70635
5487.28040,0.70621
5485.35165,0.70467
5483.42291,0.70282
5481.49416,0.70173
5479.56542,0.70081
5477.63667,0.69976
5475.70793,0.69949
5473.77918,0.70008
5471.85044,0.70036
5469.92169,0.69992
5467.99295,0.69988
5466.06420,0.70129
5464.13546,0.70295
5462.20671,0.70346
5460.27796,0.70393
5458.34922,0.70597
5456.42047,0.70894
5454.49173,0.71139
5452.56298,0.71323
5450.63424,0.71478
5448.70549,0.71585
5446.77675,0.71655
5444.84800,0.71732
5442.91926,0.71828
5440.99051,0.71929
5439.06177,0.72082
5437.13302,0.72296
5435.20428,0.72503
5433.27553,0.72694
5431.34679,0.72837
5429.41804,0.72852
5427.48929,0.72779
5425.56055,0.72737
5423.63180,0.72785
5421.70306,0.72856
5419.77431,0.72873
5417.84557,0.72897
5415.91682,0.72959
5413.98808,0.73012
5412.05933,0.73066
5410.13059,0.73104
5408.20184,0.73078
5406.27310,0.72978
5404.34435,0.72880
5402.41561,0.72886
5400.48686,0.72974
5398.55811,0.73033
5396.62937,0.73048
5394.70062,0.73087
5392.77188,0.73139
5390.84313,0.73158
5388.91439,0.73143
5386.98564,0.73070
5385.05690,0.72960
5383.12815,0.72925
5381.19941,0.73021
5379.27066,0.73146
5377.34192,0.73134
5375.41317,0.72975
5373.48443,0.72836
5371.55568,0.72835
5369.62694,0.72981
5367.69819,0.73149
5365.76944,0.73127
5363.84070,0.72964
5361.91195,0.72864
5359.98321,0.72837
5358.05446,0.72829
5356.12572,0.72823
5354.19697,0.72767
5352.26823,0.72654
5350.33948,0.72544
5348.41074,0.72495
5346.48199,0.72500
5344.55325,0.72535
5342.62450,0.72610
5340.69576,0.72684
5338.76701,0.72732
5336.83827,0.72809
5334.90952,0.72925
5332.98077,0.73029
5331.05203,0.73139
5329.12328,0.73280
5327.19454,0.73408
5325.26579,0.73496
5323.33705,0.73551
5321.40830,0.73567
5319.47956,0.73559
5317.55081,0.73567
5315.62207,0.73580
5313.69332,0.73569
5311.76458,0.73539
5309.83583,0.73509
5307.90709,0.73530
5305.97834,0.73613
5304.04959,0.73632
5302.12085,0.73501
5300.19210,0.73341
5298.26336,0.73281
5296.33461,0.73264
5294.40587,0.73239
5292.47712,0.73240
5290.54838,0.73242
5288.61963,0.73197
5286.69089,0.73124
5284.76214,0.73039
5282.83340,0.72932
5280.90465,0.72799
5278.97591,0.72640
5277.04716,0.72486
5275.11842,0.72404
5273.18967,0.72379
5271.26092,0.72330
5269.33218,0.72248
5267.40343,0.72158
5265.47469,0.72082
5263.54594,0.72021
5261.61720,0.71950
5259.68845,0.71912
5257.75971,0.71970
5255.83096,0.72022
5253.90222,0.71937
5251.97347,0.71830
5250.04473,0.71921
5248.11598,0.72175
5246.18724,0.72355
5244.25849,0.72403
5242.32975,0.72441
5240.40100,0.72509
5238.47225,0.72593
5236.54351,0.72683
5234.61476,0.72751
5232.68602,0.72795
5230.75727,0.72802
5228.82853,0.72765
5226.89978,0.72749
5224.97104,0.72743
5223.04229,0.72668
5221.11355,0.72556
5219.18480,0.72484
5217.25606,0.72407
5215.32731,0.72319
5213.39857,0.72345
5211.46982,0.72507
5209.54107,0.72666
5207.61233,0.72733
5205.68358,0.72712
5203.75484,0.72646
5201.82609,0.72589
5199.89735,0.72597
5197.96860,0.72643
5196.03986,0.72657
5194.11111,0.72647
5192.18237,0.72614
5190.25362,0.72541
5188.32488,0.72498
5186.39613,0.72485
5184.46739,0.72449
5182.53864,0.72395
5180.60990,0.72298
5178.68115,0.72172
5176.75240,0.72109
5174.82366,0.72112
5172.89491,0.72095
5170.96617,0.72037
5169.03742,0.72014
5167.10868,0.72053
5165.17993,0.72076
5163.25119,0.72044
5161.32244,0.71997
5159.39370,0.71945
5157.46495,0.71885
5155.53621,0.71816
5153.60746,0.71693
5151.67872,0.71532
5149.74997,0.71402
5147.82123,0.71280
5145.89248,0.71115
5143.96373,0.70929
5142.03499,0.70775
5140.10624,0.70641
5138.17750,0.70477
5136.24875,0.70318
5134.32001,0.70152
5132.39126,0.69895
5130.46252,0.69620
5128.53377,0.69445
5126.60503,0.69283
5124.67628,0.68995
5122.74754,0.68663
5120.81879,0.68437
5118.89005,0.68304
5116.96130,0.68206
5115.03255,0.68168
5113.10381,0.68186
5111.17506,0.68192
5109.24632,0.68145
5107.31757,0.68101
5105.38883,0.68076
5103.46008,0.68010
5101.53134,0.67929
5099.60259,0.67897
5097.67385,0.67854
5095.74510,0.67731
5093.81636,0.67622
5091.88761,0.67665
5089.95887,0.67812
5088.03012,0.67988
5086.10138,0.68289
5084.17263,0.68741
5082.24388,0.69188
5080.31514,0.69556
5078.38639,0.69919
5076.45765,0.70274
5074.52890,0.70561
5072.60016,0.70859
5070.67141,0.71231
5068.74267,0.71556
5066.81392,0.71769
5064.88518,0.71906
5062.95643,0.72042
5061.02769,0.72268
5059.09894,0.72525
5057.17020,0.72690
5055.24145,0.72789
5053.31270,0.72868
5051.38396,0.72900
5049.45521,0.72907
5047.52647,0.72930
5045.59772,0.72966
5043.66898,0.72983
5041.74023,0.72955
5039.81149,0.72927
5037.88274,0.72936
5035.95400,0.72957
5034.02525,0.72942
5032.09651,0.72852
5030.16776,0.72747
5028.23902,0.72707
5026.31027,0.72688
5024.38153,0.72645
5022.45278,0.72583
5020.52403,0.72503
5018.59529,0.72455
5016.66654,0.72475
5014.73780,0.72526
5012.80905,0.72577
5010.88031,0.72609
5008.95156,0.72617
5007.02282,0.72625
5005.09407,0.72651
5003.16533,0.72692
5001.23658,0.72711
4999.30784,0.72708
4997.37909,0.72719
4995.45035,0.72739
4993.52160,0.72745
4991.59286,0.72752
4989.66411,0.72779
4987.73536,0.72774
4985.80662,0.72718
4983.87787,0.72695
4981.94913,0.72735
4980.02038,0.72801
4978.09164,0.72884
4976.16289,0.72975
4974.23415,0.73051
4972.30540,0.73124
4970.37666,0.73167
4968.44791,0.73135
4966.51917,0.73093
4964.59042,0.73088
4962.66168,0.73078
4960.73293,0.73020
4958.80418,0.72919
4956.87544,0.72810
4954.94669,0.72716
4953.01795,0.72633
4951.08920,0.72554
4949.16046,0.72487
4947.23171,0.72405
4945.30297,0.72260
4943.37422,0.72117
4941.44548,0.72084
4939.51673,0.72129
4937.58799,0.72120
4935.65924,0.72015
4933.73050,0.71905
4931.80175,0.71866
4929.87301,0.71867
4927.94426,0.71861
4926.01551,0.71874
4924.08677,0.71928
4922.15802,0.71963
4920.22928,0.71912
4918.30053,0.71799
4916.37179,0.71728
4914.44304,0.71753
4912.51430,0.71792
4910.58555,0.71749
4908.65681,0.71649
4906.72806,0.71553
4904.79932,0.71465
4902.87057,0.71396
4900.94183,0.71374
4899.01308,0.71353
4897.08434,0.71326
4895.15559,0.71353
4893.22684,0.71352
4891.29810,0.71263
4889.36935,0.71224
4887.44061,0.71267
4885.51186,0.71247
4883.58312,0.71163
4881.65437,0.71109
4879.72563,0.71056
4877.79688,0.70959
4875.86814,0.70844
4873.93939,0.70722
4872.01065,0.70597
4870.08190,0.70496
4868.15316,0.70462
4866.22441,0.70506
4864.29566,0.70532
4862.36692,0.70470
4860.43817,0.70364
4858.50943,0.70281
4856.58068,0.70240
4854.65194,0.70190
4852.72319,0.70099
4850.79445,0.70011
4848.86570,0.69956
4846.93696,0.69904
4845.00821,0.69782
4843.07947,0.69566
4841.15072,0.69281
4839.22198,0.68972
4837.29323,0.68705
4835.36449,0.68421
4833.43574,0.68015
4831.50699,0.67582
4829.57825,0.67213
4827.64950,0.66851
4825.72076,0.66471
4823.79201,0.66076
4821.86327,0.65649
4819.93452,0.65235
4818.00578,0.64894
4816.07703,0.64611
4814.14829,0.64387
4812.21954,0.64231
4810.29080,0.64075
4808.36205,0.63871
4806.43331,0.63655
4804.50456,0.63426
4802.57582,0.63143
4800.64707,0.62850
4798.71832,0.62663
4796.78958,0.62641
4794.86083,0.62727
4792.93209,0.62822
4791.00334,0.62868
4789.07460,0.62895
4787.14585,0.62957
4785.21711,0.63073
4783.28836,0.63274
4781.35962,0.63544
4779.43087,0.63798
4777.50213,0.64009
4775.57338,0.64204
4773.64464,0.64404
4771.71589,0.64610
4769.78714,0.64815
4767.85840,0.65017
4765.92965,0.65193
4764.00091,0.65298
4762.07216,0.65297
4760.14342,0.65196
4758.21467,0.65059
4756.28593,0.64883
4754.35718,0.64589
4752.42844,0.64189
4750.49969,0.63759
4748.57095,0.63299
4746.64220,0.62812
4744.71346,0.62344
4742.78471,0.61876
4740.85597,0.61375
4738.92722,0.60836
4736.99847,0.60223
4735.06973,0.59500
4733.14098,0.58645
4731.21224,0.57606
4729.28349,0.56412
4727.35475,0.55177
4725.42600,0.53937
4723.49726,0.52775
4721.56851,0.51847
4719.63977,0.51173
4717.71102,0.50738
4715.78228,0.50551
4713.85353,0.50482
4711.92479,0.50391
4709.99604,0.50225
4708.06729,0.49927
4706.13855,0.49447
4704.20980,0.48767
4702.28106,0.47904
4700.35231,0.46924
4698.42357,0.45877
4696.49482,0.44794
4694.56608,0.43791
4692.63733,0.43027
4690.70859,0.42562
4688.77984,0.42342
4686.85110,0.42357
4684.92235,0.42650
4682.99361,0.43203
4681.06486,0.43940
4679.13612,0.44778
4677.20737,0.45688
4675.27862,0.46711
4673.34988,0.47819
4671.42113,0.48854
4669.49239,0.49680
4667.56364,0.50295
4665.63490,0.50773
4663.70615,0.51153
4661.77741,0.51430
4659.84866,0.51630
4657.91992,0.51765
4655.99117,0.51797
4654.06243,0.51720
4652.13368,0.51566
4650.20494,0.51257
4648.27619,0.50683
4646.34745,0.49910
4644.41870,0.49093
4642.48995,0.48287
4640.56121,0.47499
4638.63246,0.46829
4636.70372,0.46402
4634.77497,0.46256
4632.84623,0.46372
4630.91748,0.46748
4628.98874,0.47419
4627.05999,0.48352
4625.13125,0.49434
4623.20250,0.50597
4621.27376,0.51782
4619.34501,0.52896
4617.41627,0.53895
4615.48752,0.54772
4613.55877,0.55535
4611.63003,0.56212
4609.70128,0.56810
4607.77254,0.57280
4605.84379,0.57548
4603.91505,0.57573
4601.98630,0.57412
4600.05756,0.57105
4598.12881,0.56589
4596.20007,0.55862
4594.27132,0.55065
4592.34258,0.54346
4590.41383,0.53776
4588.48509,0.53361
4586.55634,0.53019
4584.62760,0.52600
4582.69885,0.52011
4580.77010,0.51392
4578.84136,0.51032
4576.91261,0.51114
4574.98387,0.51688
4573.05512,0.52681
4571.12638,0.53909
4569.19763,0.55220
4567.26889,0.56508
4565.34014,0.57680
4563.41140,0.58675
4561.48265,0.59476
4559.55391,0.60098
4557.62516,0.60497
4555.69642,0.60640
4553.76767,0.60624
4551.83893,0.60568
4549.91018,0.60515
4547.98143,0.60482
4546.05269,0.60465
4544.12394,0.60460
4542.19520,0.60475
4540.26645,0.60475
4538.33771,0.60425
4536.40896,0.60364
4534.48022,0.60336
4532.55147,0.60265
4530.62273,0.60076
4528.69398,0.59834
4526.76524,0.59591
4524.83649,0.59332
4522.90775,0.59071
4520.97900,0.58832
4519.05025,0.58597
4517.12151,0.58291
4515.19276,0.57901
4513.26402,0.57478
4511.33527,0.57013
4509.40653,0.56466
4507.47778,0.55814
4505.54904,0.55034
4503.62029,0.54130
4501.69155,0.53153
4499.76280,0.52104
4497.83406,0.50922
4495.90531,0.49660
4493.97657,0.48510
4492.04782,0.47630
4490.11908,0.47020
4488.19033,0.46613
4486.26158,0.46370
4484.33284,0.46244
4482.40409,0.46148
4480.47535,0.46015
4478.54660,0.45838
4476.61786,0.45623
4474.68911,0.45356
4472.76037,0.45036
4470.83162,0.44641
4468.90288,0.44119
4466.97413,0.43454
4465.04539,0.42695
4463.11664,0.41888
4461.18790,0.41071
4459.25915,0.40324
4457.33041,0.39681
4455.40166,0.39082
4453.47291,0.38475
4451.54417,0.37859
4449.61542,0.37262
4447.68668,0.36681
4445.75793,0.36030
4443.82919,0.35278
4441.90044,0.34531
4439.97170,0.33862
4438.04295,0.33235
4436.11421,0.32657
4434.18546,0.32203
4432.25672,0.31862
4430.32797,0.31546
4428.39923,0.31260
4426.47048,0.31104
4424.54173,0.31108
4422.61299,0.31246
4420.68424,0.31549
4418.75550,0.32034
4416.82675,0.32616
4414.89801,0.33159
4412.96926,0.33569
4411.04052,0.33854
4409.11177,0.34049
4407.18303,0.34157
4405.25428,0.34223
4403.32554,0.34318
4401.39679,0.34496
4399.46805,0.34805
4397.53930,0.35238
4395.61056,0.35715
4393.68181,0.36132
4391.75306,0.36443
4389.82432,0.36671
4387.89557,0.36823
4385.96683,0.36861
4384.03808,0.36782
4382.10934,0.36624
4380.18059,0.36397
4378.25185,0.36079
4376.32310,0.35685
4374.39436,0.35265
4372.46561,0.34830
4370.53687,0.34411
4368.60812,0.34104
4366.67938,0.33933
4364.75063,0.33836
4362.82189,0.33788
4360.89314,0.33781
4358.96439,0.33797
4357.03565,0.33849
4355.10690,0.33951
4353.17816,0.34089
4351.24941,0.34244
4349.32067,0.34394
4347.39192,0.34565
4345.46318,0.34786
4343.53443,0.35011
4341.60569,0.35203
4339.67694,0.35373
4337.74820,0.35510
4335.81945,0.35631
4333.89071,0.35781
4331.96196,0.35949
4330.03321,0.36118
4328.10447,0.36297
4326.17572,0.36475
4324.24698,0.36634
4322.31823,0.36794
4320.38949,0.36993
4318.46074,0.37232
4316.53200,0.37447
4314.60325,0.37586
4312.67451,0.37670
4310.74576,0.37710
4308.81702,0.37687
4306.88827,0.37591
4304.95953,0.37411
4303.03078,0.37152
4301.10204,0.36845
4299.17329,0.36530
4297.24454,0.36239
4295.31580,0.35982
4293.38705,0.35749
4291.45831,0.35554
4289.52956,0.35416
4287.60082,0.35319
4285.67207,0.35234
4283.74333,0.35133
4281.81458,0.35024
4279.88584,0.34912
4277.95709,0.34731
4276.02835,0.34460
4274.09960,0.34197
4272.17086,0.34003
4270.24211,0.33863
4268.31336,0.33811
4266.38462,0.33886
4264.45587,0.34028
4262.52713,0.34174
4260.59838,0.34345
4258.66964,0.34556
4256.74089,0.34772
4254.81215,0.34956
4252.88340,0.35115
4250.95466,0.35271
4249.02591,0.35410
4247.09717,0.35474
4245.16842,0.35462
4243.23968,0.35471
4241.31093,0.35530
4239.38219,0.35575
4237.45344,0.35561
4235.52469,0.35477
4233.59595,0.35339
4231.66720,0.35171
4229.73846,0.34974
4227.80971,0.34779
4225.88097,0.34660
4223.95222,0.34641
4222.02348,0.34673
4220.09473,0.34705
4218.16599,0.34722
4216.23724,0.34725
4214.30850,0.34720
4212.37975,0.34690
4210.45101,0.34641
4208.52226,0.34620
4206.59352,0.34658
4204.66477,0.34770
4202.73602,0.34960
4200.80728,0.35190
4198.87853,0.35417
4196.94979,0.35616
4195.02104,0.35782
4193.09230,0.35931
4191.16355,0.36042
4189.23481,0.36053
4187.30606,0.35932
4185.37732,0.35682
4183.44857,0.35303
4181.51983,0.34857
4179.59108,0.34499
4177.66234,0.34349
4175.73359,0.34438
4173.80484,0.34742
4171.87610,0.35228
4169.94735,0.35843
4168.01861,0.36513
4166.08986,0.37190
4164.16112,0.37859
4162.23237,0.38478
4160.30363,0.39001
4158.37488,0.39435
4156.44614,0.39822
4154.51739,0.40171
4152.58865,0.40483
4150.65990,0.40788
4148.73116,0.41064
4146.80241,0.41281
4144.87367,0.41444
4142.94492,0.41536
4141.01617,0.41538
4139.08743,0.41436
4137.15868,0.41235
4135.22994,0.40992
4133.30119,0.40740
4131.37245,0.40454
4129.44370,0.40142
4127.51496,0.39816
4125.58621,0.39460
4123.65747,0.39075
4121.72872,0.38676
4119.79998,0.38243
4117.87123,0.37744
4115.94249,0.37187
4114.01374,0.36587
4112.08500,0.35929
4110.15625,0.35192
4108.22750,0.34382
4106.29876,0.33522
4104.37001,0.32613
4102.44127,0.31629
4100.51252,0.30548
4098.58378,0.29344
4096.65503,0.27998
4094.72629,0.26631
4092.79754,0.25471
4090.86880,0.24711
4088.94005,0.24464
4087.01131,0.24711
4085.08256,0.25301
4083.15382,0.26079
4081.22507,0.26969
4079.29632,0.27940
4077.36758,0.28964
4075.43883,0.29978
4073.51009,0.30913
4071.58134,0.31745
4069.65260,0.32476
4067.72385,0.33110
4065.79511,0.33666
4063.86636,0.34172
4061.93762,0.34645
4060.00887,0.35075
4058.08013,0.35418
4056.15138,0.35664
4054.22264,0.35879
4052.29389,0.36104
4050.36515,0.36336
4048.43640,0.36607
4046.50765,0.36947
4044.57891,0.37309
4042.65016,0.37642
4040.72142,0.37949
4038.79267,0.38224
4036.86393,0.38435
4034.93518,0.38576
4033.00644,0.38650
4031.07769,0.38677
4029.14895,0.38700
4027.22020,0.38746
4025.29146,0.38833
4023.36271,0.38983
4021.43397,0.39187
4019.50522,0.39395
4017.57648,0.39565
4015.64773,0.39708
4013.71898,0.39840
4011.79024,0.39970
4009.86149,0.40129
4007.93275,0.40352
4006.00400,0.40638
4004.07526,0.40978
4002.14651,0.41368
4000.21777,0.41785
3998.28902,0.42194
3996.36028,0.42577
3994.43153,0.42921
3992.50279,0.43205
3990.57404,0.43439
3988.64530,0.43662
3986.71655,0.43876
3984.78780,0.44054
3982.85906,0.44201
3980.93031,0.44341
3979.00157,0.44470
3977.07282,0.44569
3975.14408,0.44630
3973.21533,0.44672
3971.28659,0.44718
3969.35784,0.44755
3967.42910,0.44766
3965.50035,0.44729
3963.57161,0.44614
3961.64286,0.44434
3959.71412,0.44234
3957.78537,0.44040
3955.85663,0.43868
3953.92788,0.43701
3951.99913,0.43490
3950.07039,0.43220
3948.14164,0.42934
3946.21290,0.42667
3944.28415,0.42425
3942.35541,0.42217
3940.42666,0.42065
3938.49792,0.41963
3936.56917,0.41892
3934.64043,0.41827
3932.71168,0.41752
3930.78294,0.41665
3928.85419,0.41574
3926.92545,0.41486
3924.99670,0.41397
3923.06795,0.41326
3921.13921,0.41333
3919.21046,0.41430
3917.28172,0.41545
3915.35297,0.41637
3913.42423,0.41755
3911.49548,0.41948
3909.56674,0.42195
3907.63799,0.42469
3905.70925,0.42793
3903.78050,0.43145
3901.85176,0.43434
3899.92301,0.43672
3897.99427,0.43892
3896.06552,0.44068
3894.13678,0.44250
3892.20803,0.44516
3890.27928,0.44817
3888.35054,0.45102
3886.42179,0.45431
3884.49305,0.45789
3882.56430,0.46115
3880.63556,0.46448
3878.70681,0.46766
3876.77807,0.46999
3874.84932,0.47170
3872.92058,0.47328
3870.99183,0.47497
3869.06309,0.47660
3867.13434,0.47804
3865.20560,0.47951
3863.27685,0.48104
3861.34811,0.48242
3859.41936,0.48327
3857.49061,0.48359
3855.56187,0.48426
3853.63312,0.48600
3851.70438,0.48802
3849.77563,0.48981
3847.84689,0.49164
3845.91814,0.49337
3843.98940,0.49455
3842.06065,0.49495
3840.13191,0.49464
3838.20316,0.49342
3836.27442,0.49152
3834.34567,0.48986
3832.41693,0.48884
3830.48818,0.48856
3828.55943,0.48899
3826.63069,0.48980
3824.70194,0.49061
3822.77320,0.49100
3820.84445,0.49022
3818.91571,0.48796
3816.98696,0.48459
3815.05822,0.48026
3813.12947,0.47587
3811.20073,0.47212
3809.27198,0.46899
3807.34324,0.46692
3805.41449,0.46711
3803.48575,0.47038
3801.55700,0.47676
3799.62826,0.48439
3797.69951,0.49147
3795.77076,0.49819
3793.84202,0.50424
3791.91327,0.50898
3789.98453,0.51256
3788.05578,0.51539
3786.12704,0.51723
3784.19829,0.51760
3782.26955,0.51676
3780.34080,0.51519
3778.41206,0.51276
3776.48331,0.50944
3774.55457,0.50563
3772.62582,0.50174
3770.69708,0.49793
3768.76833,0.49399
3766.83959,0.48973
3764.91084,0.48496
3762.98209,0.47990
3761.05335,0.47514
3759.12460,0.47125
3757.19586,0.46941
3755.26711,0.47090
3753.33837,0.47633
3751.40962,0.48526
3749.48088,0.49515
3747.55213,0.50314
3745.62339,0.50882
3743.69464,0.51184
3741.76590,0.51145
3739.83715,0.50827
3737.90841,0.50321
3735.97966,0.49739
3734.05091,0.49259
3732.12217,0.49046
3730.19342,0.49160
3728.26468,0.49571
3726.33593,0.50206
3724.40719,0.50892
3722.47844,0.51422
3720.54970,0.51714
3718.62095,0.51809
3716.69221,0.51772
3714.76346,0.51637
3712.83472,0.51408
3710.90597,0.51083
3708.97723,0.50682
3707.04848,0.50192
3705.11974,0.49602
3703.19099,0.48939
3701.26224,0.48190
3699.33350,0.47329
3697.40475,0.46337
3695.47601,0.45195
3693.54726,0.43911
3691.61852,0.42566
3689.68977,0.41381
3687.76103,0.40730
3685.83228,0.40836
3683.90354,0.41616
3681.97479,0.42910
3680.04605,0.44486
3678.11730,0.46118
3676.18856,0.47780
3674.25981,0.49303
3672.33107,0.50420
3670.40232,0.51240
3668.47357,0.51836
3666.54483,0.52190
3664.61608,0.52406
3662.68734,0.52536
3660.75859,0.52568
3658.82985,0.52505
3656.90110,0.52368
3654.97236,0.52185
3653.04361,0.51982
3651.11487,0.51724
3649.18612,0.51368
3647.25738,0.50973
3645.32863,0.50601
3643.39989,0.50240
3641.47114,0.49881
3639.54239,0.49532
3637.61365,0.49208
3635.68490,0.48915
3633.75616,0.48625
3631.82741,0.48324
3629.89867,0.48005
3627.96992,0.47652
3626.04118,0.47282
3624.11243,0.46916
3622.18369,0.46553
3620.25494,0.46161
3618.32620,0.45710
3616.39745,0.45247
3614.46871,0.44819
3612.53996,0.44425
3610.61122,0.44039
3608.68247,0.43610
3606.75372,0.43127
3604.82498,0.42624
3602.89623,0.42092
3600.96749,0.41504
3599.03874,0.40866
3597.11000,0.40196
3595.18125,0.39493
3593.25251,0.38758
3591.32376,0.38025
3589.39502,0.37281
3587.46627,0.36479
3585.53753,0.35666
3583.60878,0.34898
3581.68004,0.34138
3579.75129,0.33360
3577.82254,0.32610
3575.89380,0.31923
3573.96505,0.31281
3572.03631,0.30678
3570.10756,0.30134
3568.17882,0.29638
3566.25007,0.29165
3564.32133,0.28729
3562.39258,0.28357
3560.46384,0.28038
3558.53509,0.27752
3556.60635,0.27515
3554.67760,0.27345
3552.74886,0.27217
3550.82011,0.27089
3548.89137,0.26973
3546.96262,0.26922
3545.03387,0.26943
3543.10513,0.26986
3541.17638,0.27040
3539.24764,0.27139
3537.31889,0.27293
3535.39015,0.27488
3533.46140,0.27699
3531.53266,0.27901
3529.60391,0.28102
3527.67517,0.28322
3525.74642,0.28593
3523.81768,0.28915
3521.88893,0.29232
3519.96019,0.29536
3518.03144,0.29863
3516.10270,0.30210
3514.17395,0.30534
3512.24520,0.30815
3510.31646,0.31082
3508.38771,0.31364
3506.45897,0.31671
3504.53022,0.31963
3502.60148,0.32186
3500.67273,0.32362
3498.74399,0.32539
3496.81524,0.32709
3494.88650,0.32853
3492.95775,0.32977
3491.02901,0.33079
3489.10026,0.33144
3487.17152,0.33169
3485.24277,0.33181
3483.31402,0.33191
3481.38528,0.33158
3479.45653,0.33044
3477.52779,0.32868
3475.59904,0.32674
3473.67030,0.32441
3471.74155,0.32133
3469.81281,0.31759
3467.88406,0.31322
3465.95532,0.30830
3464.02657,0.30301
3462.09783,0.29740
3460.16908,0.29138
3458.24034,0.28463
3456.31159,0.27713
3454.38285,0.26926
3452.45410,0.26099
3450.52535,0.25196
3448.59661,0.24251
3446.66786,0.23328
3444.73912,0.22430
3442.81037,0.21527
3440.88163,0.20632
3438.95288,0.19792
3437.02414,0.18993
3435.09539,0.18210
3433.16665,0.17542
3431.23790,0.17100
3429.30916,0.16848
3427.38041,0.16699
3425.45167,0.16639
3423.52292,0.16658
3421.59418,0.16718
3419.66543,0.16782
3417.73668,0.16802
3415.80794,0.16787
3413.87919,0.16851
3411.95045,0.17118
3410.02170,0.17667
3408.09296,0.18571
3406.16421,0.19867
3404.23547,0.21451
3402.30672,0.23123
3400.37798,0.24733
3398.44923,0.26227
3396.52049,0.27568
3394.59174,0.28707
3392.66300,0.29652
3390.73425,0.30448
3388.80550,0.31097
3386.87676,0.31610
3384.94801,0.32059
3383.01927,0.32501
3381.09052,0.32907
3379.16178,0.33233
3377.23303,0.33495
3375.30429,0.33717
3373.37554,0.33895
3371.44680,0.34017
3369.51805,0.34072
3367.58931,0.34064
3365.66056,0.34028
3363.73182,0.33961
3361.80307,0.33834
3359.87433,0.33662
3357.94558,0.33470
3356.01683,0.33241
3354.08809,0.32955
3352.15934,0.32620
3350.23060,0.32215
3348.30185,0.31738
3346.37311,0.31263
3344.44436,0.30825
3342.51562,0.30396
3340.58687,0.29951
3338.65813,0.29487
3336.72938,0.29061
3334.80064,0.28729
3332.87189,0.28474
3330.94315,0.28295
3329.01440,0.28255
3327.08566,0.28408
3325.15691,0.28760
3323.22816,0.29271
3321.29942,0.29872
3319.37067,0.30472
3317.44193,0.30966
3315.51318,0.31326
3313.58444,0.31586
3311.65569,0.31765
3309.72695,0.31860
3307.79820,0.31855
3305.86946,0.31745
3303.94071,0.31573
3302.01197,0.31367
3300.08322,0.31133
3298.15448,0.30899
3296.22573,0.30700
3294.29698,0.30557
3292.36824,0.30488
3290.43949,0.30511
3288.51075,0.30648
3286.58200,0.30894
3284.65326,0.31208
3282.72451,0.31535
3280.79577,0.31843
3278.86702,0.32117
3276.93828,0.32353
3275.00953,0.32540
3273.08079,0.32674
3271.15204,0.32777
3269.22330,0.32859
3267.29455,0.32902
3265.36581,0.32908
3263.43706,0.32917
3261.50831,0.32928
3259.57957,0.32901
3257.65082,0.32849
3255.72208,0.32809
3253.79333,0.32777
3251.86459,0.32722
3249.93584,0.32633
3248.00710,0.32531
3246.07835,0.32411
3244.14961,0.32255
3242.22086,0.32094
3240.29212,0.31957
3238.36337,0.31820
3236.43463,0.31676
3234.50588,0.31547
3232.57713,0.31409
3230.64839,0.31251
3228.71964,0.31132
3226.79090,0.31062
3224.86215,0.31003
3222.93341,0.30972
3221.00466,0.31007
3219.07592,0.31131
3217.14717,0.31337
3215.21843,0.31568
3213.28968,0.31776
3211.36094,0.31938
3209.43219,0.32032
3207.50345,0.32078
3205.57470,0.32102
3203.64596,0.32087
3201.71721,0.32013
3199.78846,0.31877
3197.85972,0.31698
3195.93097,0.31517
3194.00223,0.31367
3192.07348,0.31254
3190.14474,0.31163
3188.21599,0.31074
3186.28725,0.30981
3184.35850,0.30882
3182.42976,0.30791
3180.50101,0.30721
3178.57227,0.30640
3176.64352,0.30527
3174.71478,0.30417
3172.78603,0.30333
3170.85729,0.30233
3168.92854,0.30079
3166.99979,0.29920
3165.07105,0.29795
3163.14230,0.29664
3161.21356,0.29489
3159.28481,0.29285
3157.35607,0.29074
3155.42732,0.28865
3153.49858,0.28645
3151.56983,0.28392
3149.64109,0.28122
3147.71234,0.27855
3145.78360,0.27573
3143.85485,0.27252
3141.92611,0.26877
3139.99736,0.26435
3138.06861,0.25948
3136.13987,0.25417
3134.21112,0.24815
3132.28238,0.24166
3130.35363,0.23556
3128.42489,0.23104
3126.49614,0.22907
3124.56740,0.22972
3122.63865,0.23171
3120.70991,0.23331
3118.78116,0.23357
3116.85242,0.23205
3114.92367,0.22856
3112.99493,0.22333
3111.06618,0.21687
3109.13744,0.20981
3107.20869,0.20292
3105.27994,0.19716
3103.35120,0.19303
3101.42245,0.19098
3099.49371,0.19159
3097.56496,0.19418
3095.63622,0.19698
3093.70747,0.19814
3091.77873,0.19633
3089.84998,0.19153
3087.92124,0.18483
3085.99249,0.17774
3084.06375,0.17177
3082.13500,0.16778
3080.20626,0.16574
3078.27751,0.16499
3076.34877,0.16444
3074.42002,0.16329
3072.49127,0.16159
3070.56253,0.15975
3068.63378,0.15811
3066.70504,0.15713
3064.77629,0.15713
3062.84755,0.15751
3060.91880,0.15702
3058.99006,0.15504
3057.06131,0.15255
3055.13257,0.15170
3053.20382,0.15438
3051.27508,0.16140
3049.34633,0.17247
3047.41759,0.18584
3045.48884,0.19878
3043.56009,0.20907
3041.63135,0.21574
3039.70260,0.21903
3037.77386,0.21980
3035.84511,0.21864
3033.91637,0.21583
3031.98762,0.21158
3030.05888,0.20636
3028.13013,0.20046
3026.20139,0.19361
3024.27264,0.18579
3022.34390,0.17732
3020.41515,0.16828
3018.48641,0.15868
3016.55766,0.14895
3014.62892,0.13976
3012.70017,0.13135
3010.77142,0.12333
3008.84268,0.11536
3006.91393,0.10756
3004.98519,0.10016
3003.05644,0.09304
3001.12770,0.08610
2999.19895,0.07943
2997.27021,0.07297
2995.34146,0.06683
2993.41272,0.06100
2991.48397,0.05503
2989.55523,0.04916
2987.62648,0.04420
2985.69774,0.04045
2983.76899,0.03788
2981.84025,0.03633
2979.91150,0.03543
2977.98275,0.03464
2976.05401,0.03379
2974.12526,0.03323
2972.19652,0.03303
2970.26777,0.03310
2968.33903,0.03353
2966.41028,0.03423
2964.48154,0.03491
2962.55279,0.03539
2960.62405,0.03604
2958.69530,0.03755
2956.76656,0.03995
2954.83781,0.04280
2952.90907,0.04607
2950.98032,0.04999
2949.05157,0.05442
2947.12283,0.05898
2945.19408,0.06336
2943.26534,0.06733
2941.33659,0.07066
2939.40785,0.07322
2937.47910,0.07517
2935.55036,0.07657
2933.62161,0.07756
2931.69287,0.07834
2929.76412,0.07888
2927.83538,0.07908
2925.90663,0.07896
2923.97789,0.07845
2922.04914,0.07769
2920.12040,0.07722
2918.19165,0.07691
2916.26290,0.07586
2914.33416,0.07333
2912.40541,0.06921
2910.47667,0.06386
2908.54792,0.05828
2906.61918,0.05369
2904.69043,0.05102
2902.76169,0.05097
2900.83294,0.05381
2898.90420,0.05888
2896.97545,0.06499
2895.04671,0.07106
2893.11796,0.07670
2891.18922,0.08213
2889.26047,0.08729
2887.33172,0.09183
2885.40298,0.09575
2883.47423,0.09940
2881.54549,0.10290
2879.61674,0.10598
2877.68800,0.10833
2875.75925,0.11028
2873.83051,0.11225
2871.90176,0.11401
2869.97302,0.11525
2868.04427,0.11618
2866.11553,0.11711
2864.18678,0.11795
2862.25804,0.11853
2860.32929,0.11907
2858.40055,0.12016
2856.47180,0.12209
2854.54305,0.12463
2852.61431,0.12772
2850.68556,0.13219
2848.75682,0.13881
2846.82807,0.14703
2844.89933,0.15533
2842.97058,0.16269
2841.04184,0.16897
2839.11309,0.17431
2837.18435,0.17909
2835.25560,0.18374
2833.32686,0.18831
2831.39811,0.19301
2829.46937,0.19840
2827.54062,0.20456
2825.61188,0.21136
2823.68313,0.21875
2821.75438,0.22614
2819.82564,0.23245
2817.89689,0.23699
2815.96815,0.24000
2814.03940,0.24199
2812.11066,0.24314
2810.18191,0.24361
2808.25317,0.24382
2806.32442,0.24448
2804.39568,0.24630
2802.46693,0.24920
2800.53819,0.25261
2798.60944,0.25618
2796.68070,0.25940
2794.75195,0.26172
2792.82320,0.26319
2790.89446,0.26413
2788.96571,0.26473
2787.03697,0.26505
2785.10822,0.26528
2783.17948,0.26559
2781.25073,0.26591
2779.32199,0.26628
2777.39324,0.26688
2775.46450,0.26759
2773.53575,0.26831
2771.60701,0.26937
2769.67826,0.27126
2767.74952,0.27448
2765.82077,0.27893
2763.89203,0.28375
2761.96328,0.28825
2760.03453,0.29236
2758.10579,0.29611
2756.17704,0.29935
2754.24830,0.30187
2752.31955,0.30357
2750.39081,0.30454
2748.46206,0.30477
2746.53332,0.30420
2744.60457,0.30326
2742.67583,0.30297
2740.74708,0.30409
2738.81834,0.30669
2736.88959,0.31053
2734.96085,0.31527
2733.03210,0.32064
2731.10336,0.32620
2729.17461,0.33135
2727.24586,0.33584
2725.31712,0.33982
2723.38837,0.34306
2721.45963,0.34496
2719.53088,0.34554
2717.60214,0.34535
2715.67339,0.34474
2713.74465,0.34430
2711.81590,0.34502
2709.88716,0.34736
2707.95841,0.35082
2706.02967,0.35456
2704.10092,0.35802
2702.17218,0.36100
2700.24343,0.36343
2698.31468,0.36527
2696.38594,0.36664
2694.45719,0.36763
2692.52845,0.36831
2690.59970,0.36870
2688.67096,0.36865
2686.74221,0.36804
2684.81347,0.36736
2682.88472,0.36726
2680.95598,0.36765
2679.02723,0.36800
2677.09849,0.36807
2675.16974,0.36784
2673.24100,0.36734
2671.31225,0.36654
2669.38351,0.36544
2667.45476,0.36429
2665.52601,0.36344
2663.59727,0.36292
2661.66852,0.36244
2659.73978,0.36164
2657.81103,0.36022
2655.88229,0.35806
2653.95354,0.35555
2652.02480,0.35301
2650.09605,0.35022
2648.16731,0.34708
2646.23856,0.34389
2644.30982,0.34079
2642.38107,0.33756
2640.45233,0.33392
2638.52358,0.32964
2636.59484,0.32485
2634.66609,0.32002
2632.73734,0.31582
2630.80860,0.31301
2628.87985,0.31209
2626.95111,0.31298
2625.02236,0.31490
2623.09362,0.31704
2621.16487,0.31927
2619.23613,0.32168
2617.30738,0.32414
2615.37864,0.32637
2613.44989,0.32825
2611.52115,0.32984
2609.59240,0.33105
2607.66366,0.33154
2605.73491,0.33128
2603.80616,0.33068
2601.87742,0.32993
2599.94867,0.32866
2598.01993,0.32645
2596.09118,0.32343
2594.16244,0.31989
2592.23369,0.31585
2590.30495,0.31126
2588.37620,0.30632
2586.44746,0.30157
2584.51871,0.29749
2582.58997,0.29424
2580.66122,0.29182
2578.73248,0.29056
2576.80373,0.29065
2574.87499,0.29163
2572.94624,0.29286
2571.01749,0.29399
2569.08875,0.29466
2567.16000,0.29468
2565.23126,0.29400
2563.30251,0.29274
2561.37377,0.29122
2559.44502,0.28953
2557.51628,0.28758
2555.58753,0.28566
2553.65879,0.28401
2551.73004,0.28239
2549.80130,0.28080
2547.87255,0.27964
2545.94381,0.27884
2544.01506,0.27801
2542.08631,0.27719
2540.15757,0.27682
2538.22882,0.27707
2536.30008,0.27770
2534.37133,0.27870
2532.44259,0.28032
2530.51384,0.28256
2528.58510,0.28521
2526.65635,0.28817
2524.72761,0.29150
2522.79886,0.29503
2520.87012,0.29832
2518.94137,0.30119
2517.01263,0.30380
2515.08388,0.30650
2513.15514,0.30952
2511.22639,0.31278
2509.29764,0.31614
2507.36890,0.31957
2505.44015,0.32289
2503.51141,0.32579
2501.58266,0.32800
2499.65392,0.32964
2497.72517,0.33104
2495.79643,0.33235
2493.86768,0.33344
2491.93894,0.33427
2490.01019,0.33494
2488.08145,0.33567
2486.15270,0.33680
2484.22396,0.33873
2482.29521,0.34153
2480.36647,0.34489
2478.43772,0.34848
2476.50897,0.35208
2474.58023,0.35542
2472.65148,0.35834
2470.72274,0.36070
2468.79399,0.36236
2466.86525,0.36322
2464.93650,0.36348
2463.00776,0.36364
2461.07901,0.36378
2459.15027,0.36357
2457.22152,0.36288
2455.29278,0.36184
2453.36403,0.36068
2451.43529,0.35951
2449.50654,0.35819
2447.57779,0.35640
2445.64905,0.35388
2443.72030,0.35035
2441.79156,0.34545
2439.86281,0.33927
2437.93407,0.33223
2436.00532,0.32463
2434.07658,0.31699
2432.14783,0.30998
2430.21909,0.30381
2428.29034,0.29832
2426.36160,0.29312
2424.43285,0.28786
2422.50411,0.28229
2420.57536,0.27633
2418.64662,0.27032
2416.71787,0.26473
2414.78912,0.25959
2412.86038,0.25489
2410.93163,0.25082
2409.00289,0.24720
2407.07414,0.24374
2405.14540,0.24046
2403.21665,0.23725
2401.28791,0.23391
2399.35916,0.23061
2397.43042,0.22771
2395.50167,0.22528
2393.57293,0.22321
2391.64418,0.22146
2389.71544,0.22022
2387.78669,0.21965
2385.85795,0.21953
2383.92920,0.21944
2382.00045,0.21940
2380.07171,0.21966
2378.14296,0.22028
2376.21422,0.22138
2374.28547,0.22314
2372.35673,0.22552
2370.42798,0.22854
2368.49924,0.23261
2366.57049,0.23792
2364.64175,0.24395
2362.71300,0.25037
2360.78426,0.25732
2358.85551,0.26462
2356.92677,0.27200
2354.99802,0.27937
2353.06927,0.28658
2351.14053,0.29341
2349.21178,0.29978
2347.28304,0.30582
2345.35429,0.31162
2343.42555,0.31725
2341.49680,0.32258
2339.56806,0.32720
2337.63931,0.33098
2335.71057,0.33409
2333.78182,0.33634
2331.85308,0.33719
2329.92433,0.33652
2327.99559,0.33494
2326.06684,0.33365
2324.13810,0.33426
2322.20935,0.33783
2320.28060,0.34354
2318.35186,0.34958
2316.42311,0.35470
2314.49437,0.35808
2312.56562,0.35932
2310.63688,0.35888
2308.70813,0.35738
2306.77939,0.35500
2304.85064,0.35171
2302.92190,0.34749
2300.99315,0.34235
2299.06441,0.33631
2297.13566,0.32943
2295.20692,0.32178
2293.27817,0.31357
2291.34943,0.30532
2289.42068,0.29782
2287.49193,0.29173
2285.56319,0.28742
2283.63444,0.28522
2281.70570,0.28529
2279.77695,0.28731
2277.84821,0.29064
2275.91946,0.29464
2273.99072,0.29870
2272.06197,0.30221
2270.13323,0.30462
2268.20448,0.30579
2266.27574,0.30586
2264.34699,0.30509
2262.41825,0.30380
2260.48950,0.30216
2258.56075,0.30003
2256.63201,0.29734
2254.70326,0.29419
2252.77452,0.29056
2250.84577,0.28671
2248.91703,0.28330
2246.98828,0.28066
2245.05954,0.27872
2243.13079,0.27749
2241.20205,0.27691
2239.27330,0.27662
2237.34456,0.27620
2235.41581,0.27556
2233.48707,0.27481
2231.55832,0.27414
2229.62958,0.27386
2227.70083,0.27408
2225.77208,0.27444
2223.84334,0.27474
2221.91459,0.27507
2219.98585,0.27519
2218.05710,0.27480
2216.12836,0.27390
2214.19961,0.27261
2212.27087,0.27127
2210.34212,0.27069
2208.41338,0.27166
2206.48463,0.27440
2204.55589,0.27836
2202.62714,0.28235
2200.69840,0.28556
2198.76965,0.28792
2196.84090,0.28964
2194.91216,0.29098
2192.98341,0.29224
2191.05467,0.29375
2189.12592,0.29589
2187.19718,0.29874
2185.26843,0.30195
2183.33969,0.30506
2181.41094,0.30768
2179.48220,0.30953
2177.55345,0.31051
2175.62471,0.31059
2173.69596,0.30988
2171.76722,0.30849
2169.83847,0.30652
2167.90973,0.30410
2165.98098,0.30139
2164.05223,0.29853
2162.12349,0.29555
2160.19474,0.29244
2158.26600,0.28918
2156.33725,0.28588
2154.40851,0.28284
2152.47976,0.28019
2150.55102,0.27772
2148.62227,0.27546
2146.69353,0.27374
2144.76478,0.27239
2142.83604,0.27091
2140.90729,0.26927
2138.97855,0.26778
2137.04980,0.26653
2135.12106,0.26539
2133.19231,0.26417
2131.26356,0.26291
2129.33482,0.26176
2127.40607,0.26046
2125.47733,0.25870
2123.54858,0.25669
2121.61984,0.25484
2119.69109,0.25315
2117.76235,0.25153
2115.83360,0.25017
2113.90486,0.24928
2111.97611,0.24886
2110.04737,0.24875
2108.11862,0.24874
2106.18988,0.24878
2104.26113,0.24877
2102.33238,0.24855
2100.40364,0.24829
2098.47489,0.24819
2096.54615,0.24835
2094.61740,0.24890
2092.68866,0.24981
2090.75991,0.25091
2088.83117,0.25215
2086.90242,0.25346
2084.97368,0.25474
2083.04493,0.25609
2081.11619,0.25758
2079.18744,0.25919
2077.25870,0.26082
2075.32995,0.26215
2073.40121,0.26294
2071.47246,0.26322
2069.54371,0.26308
2067.61497,0.26251
2065.68622,0.26165
2063.75748,0.26093
2061.82873,0.26071
2059.89999,0.26113
2057.97124,0.26220
2056.04250,0.26403
2054.11375,0.26658
2052.18501,0.26952
2050.25626,0.27234
2048.32752,0.27461
2046.39877,0.27604
2044.47003,0.27627
2042.54128,0.27524
2040.61254,0.27320
2038.68379,0.27038
2036.75504,0.26706
2034.82630,0.26368
2032.89755,0.26079
2030.96881,0.25889
2029.04006,0.25818
2027.11132,0.25867
2025.18257,0.25995
2023.25383,0.26105
2021.32508,0.26126
2019.39634,0.26074
2017.46759,0.26001
2015.53885,0.25960
2013.61010,0.25983
2011.68136,0.26074
2009.75261,0.26201
2007.82386,0.26301
2005.89512,0.26302
2003.96637,0.26175
2002.03763,0.25947
2000.10888,0.25651
1998.18014,0.25310
1996.25139,0.24940
1994.32265,0.24564
1992.39390,0.24213
1990.46516,0.23927
1988.53641,0.23734
1986.60767,0.23619
1984.67892,0.23520
1982.75018,0.23357
1980.82143,0.23086
1978.89269,0.22711
1976.96394,0.22249
1975.03519,0.21717
1973.10645,0.21128
1971.17770,0.20476
1969.24896,0.19746
1967.32021,0.18936
1965.39147,0.18049
1963.46272,0.17115
1961.53398,0.16182
1959.60523,0.15296
1957.67649,0.14493
1955.74774,0.13825
1953.81900,0.13369
1951.89025,0.13231
1949.96151,0.13494
1948.03276,0.14136
1946.10402,0.15024
1944.17527,0.16008
1942.24652,0.17009
1940.31778,0.17992
1938.38903,0.18916
1936.46029,0.19759
1934.53154,0.20552
1932.60280,0.21330
1930.67405,0.22081
1928.74531,0.22777
1926.81656,0.23413
1924.88782,0.23994
1922.95907,0.24520
1921.03033,0.24973
1919.10158,0.25350
1917.17284,0.25659
1915.24409,0.25891
1913.31534,0.26034
1911.38660,0.26097
1909.45785,0.26090
1907.52911,0.26011
1905.60036,0.25850
1903.67162,0.25616
1901.74287,0.25347
1899.81413,0.25083
1897.88538,0.24840
1895.95664,0.24615
1894.02789,0.24400
1892.09915,0.24172
1890.17040,0.23903
1888.24166,0.23601
1886.31291,0.23306
1884.38417,0.23077
1882.45542,0.22969
1880.52667,0.22986
1878.59793,0.23070
1876.66918,0.23135
1874.74044,0.23098
1872.81169,0.22932
1870.88295,0.22651
1868.95420,0.22275
1867.02546,0.21859
1865.09671,0.21471
1863.16797,0.21117
1861.23922,0.20769
1859.31048,0.20410
1857.38173,0.20038
1855.45299,0.19638
1853.52424,0.19164
1851.59549,0.18575
1849.66675,0.17881
1847.73800,0.17135
1845.80926,0.16373
1843.88051,0.15606
1841.95177,0.14884
1840.02302,0.14231
1838.09428,0.13616
1836.16553,0.13037
1834.23679,0.12509
1832.30804,0.12027
1830.37930,0.11577
1828.45055,0.11182
1826.52181,0.10871
1824.59306,0.10664
1822.66432,0.10574
1820.73557,0.10569
1818.80682,0.10585
1816.87808,0.10584
1814.94933,0.10554
1813.02059,0.10481
1811.09184,0.10353
1809.16310,0.10194
1807.23435,0.10042
1805.30561,0.09909
1803.37686,0.09781
1801.44812,0.09646
1799.51937,0.09508
1797.59063,0.09378
1795.66188,0.09258
1793.73314,0.09127
1791.80439,0.08948
1789.87565,0.08731
1787.94690,0.08519
1786.01815,0.08308
1784.08941,0.08074
1782.16066,0.07826
1780.23192,0.07574
1778.30317,0.07310
1776.37443,0.07046
1774.44568,0.06789
1772.51694,0.06524
1770.58819,0.06248
1768.65945,0.05952
1766.73070,0.05619
1764.80196,0.05270
1762.87321,0.04909
1760.94447,0.04529
1759.01572,0.04152
1757.08697,0.03776
1755.15823,0.03412
1753.22948,0.03075
1751.30074,0.02742
1749.37199,0.02426
1747.44325,0.02156
1745.51450,0.01930
1743.58576,0.01759
1741.65701,0.01654
1739.72827,0.01587
1737.79952,0.01551
1735.87078,0.01571
1733.94203,0.01651
1732.01329,0.01776
1730.08454,0.01927
1728.15580,0.02115
1726.22705,0.02344
1724.29830,0.02592
1722.36956,0.02819
1720.44081,0.03017
1718.51207,0.03194
1716.58332,0.03311
1714.65458,0.03325
1712.72583,0.03258
1710.79709,0.03157
1708.86834,0.03042
1706.93960,0.02933
1705.01085,0.02880
1703.08211,0.02923
1701.15336,0.03040
1699.22462,0.03176
1697.29587,0.03324
1695.36713,0.03513
1693.43838,0.03722
1691.50963,0.03917
1689.58089,0.04094
1687.65214,0.04237
1685.72340,0.04347
1683.79465,0.04448
1681.86591,0.04535
1679.93716,0.04592
1678.00842,0.04618
1676.07967,0.04650
1674.15093,0.04769
1672.22218,0.05042
1670.29344,0.05509
1668.36469,0.06138
1666.43595,0.06806
1664.50720,0.07445
1662.57845,0.08043
1660.64971,0.08566
1658.72096,0.08998
1656.79222,0.09348
1654.86347,0.09664
1652.93473,0.09977
1651.00598,0.10222
1649.07724,0.10413
1647.14849,0.10628
1645.21975,0.10848
1643.29100,0.11018
1641.36226,0.11162
1639.43351,0.11325
1637.50477,0.11525
1635.57602,0.11755
1633.64728,0.11975
1631.71853,0.12169
1629.78978,0.12340
1627.86104,0.12467
1625.93229,0.12537
1624.00355,0.12512
1622.07480,0.12313
1620.14606,0.11884
1618.21731,0.11206
1616.28857,0.10422
1614.35982,0.09958
1612.43108,0.09999
1610.50233,0.10425
1608.57359,0.11069
1606.64484,0.11793
1604.71610,0.12519
1602.78735,0.13185
1600.85861,0.13709
1598.92986,0.14020
1597.00111,0.14088
1595.07237,0.13946
1593.14362,0.13658
1591.21488,0.13229
1589.28613,0.12616
1587.35739,0.11757
1585.42864,0.10597
1583.49990,0.09198
1581.57115,0.07830
1579.64241,0.06858
1577.71366,0.06536
1575.78492,0.06974
1573.85617,0.07943
1571.92743,0.09075
1569.99868,0.10244
1568.06993,0.11269
1566.14119,0.12006
1564.21244,0.12515
1562.28370,0.12876
1560.35495,0.13119
1558.42621,0.13213
1556.49746,0.13214
1554.56872,0.13261
1552.63997,0.13381
1550.71123,0.13509
1548.78248,0.13579
1546.85374,0.13560
1544.92499,0.13459
1542.99625,0.13296
1541.06750,0.13031
1539.13876,0.12563
1537.21001,0.11952
1535.28126,0.11264
1533.35252,0.10502
1531.42377,0.09860
1529.49503,0.09485
1527.56628,0.09330
1525.63754,0.09335
1523.70879,0.09427
1521.78005,0.09500
1519.85130,0.09447
1517.92256,0.09190
1515.99381,0.08671
1514.06507,0.07860
1512.13632,0.06777
1510.20758,0.05535
1508.27883,0.04278
1506.35008,0.03263
1504.42134,0.03010
1502.49259,0.03650
1500.56385,0.04984
1498.63510,0.06685
1496.70636,0.08335
1494.77761,0.09552
1492.84887,0.10146
1490.92012,0.10148
1488.99138,0.09655
1487.06263,0.08840
1485.13389,0.07890
1483.20514,0.06903
1481.27640,0.05916
1479.34765,0.05003
1477.41891,0.04225
1475.49016,0.03586
1473.56141,0.03084
1471.63267,0.02758
1469.70392,0.02617
1467.77518,0.02573
1465.84643,0.02557
1463.91769,0.02588
1461.98894,0.02704
1460.06020,0.02892
1458.13145,0.03101
1456.20271,0.03276
1454.27396,0.03426
1452.34522,0.03627
1450.41647,0.03927
1448.48773,0.04304
1446.55898,0.04656
1444.63024,0.04894
1442.70149,0.05039
1440.77274,0.05149
1438.84400,0.05228
1436.91525,0.05239
1434.98651,0.05170
1433.05776,0.05021
1431.12902,0.04763
1429.20027,0.04387
1427.27153,0.03940
1425.34278,0.03488
1423.41404,0.03093
1421.48529,0.02795
1419.55655,0.02547
1417.62780,0.02294
1415.69906,0.02064
1413.77031,0.01902
1411.84156,0.01830
1409.91282,0.01849
1407.98407,0.01930
1406.05533,0.02043
1404.12658,0.02175
1402.19784,0.02328
1400.26909,0.02464
1398.34035,0.02521
1396.41160,0.02490
1394.48286,0.02414
1392.55411,0.02339
1390.62537,0.02291
1388.69662,0.02279
1386.76788,0.02304
1384.83913,0.02356
1382.91039,0.02414
1380.98164,0.02470
1379.05289,0.02533
1377.12415,0.02616
1375.19540,0.02720
1373.26666,0.02822
1371.33791,0.02900
1369.40917,0.02937
1367.48042,0.02925
1365.55168,0.02861
1363.62293,0.02745
1361.69419,0.02593
1359.76544,0.02464
1357.83670,0.02420
1355.90795,0.02490
1353.97921,0.02667
1352.05046,0.02880
1350.12172,0.03040
1348.19297,0.03117
1346.26422,0.03130
1344.33548,0.03083
1342.40673,0.02960
1340.47799,0.02779
1338.54924,0.02582
1336.62050,0.02412
1334.69175,0.02280
1332.76301,0.02165
1330.83426,0.02065
1328.90552,0.01998
1326.97677,0.01947
1325.04803,0.01882
1323.11928,0.01811
1321.19054,0.01749
1319.26179,0.01690
1317.33304,0.01633
1315.40430,0.01585
1313.47555,0.01553
1311.54681,0.01522
1309.61806,0.01476
1307.68932,0.01428
1305.76057,0.01405
1303.83183,0.01419
1301.90308,0.01463
1299.97434,0.01522
1298.04559,0.01586
1296.11685,0.01651
1294.18810,0.01720
1292.25936,0.01809
1290.33061,0.01934
1288.40187,0.02101
1286.47312,0.02302
1284.54437,0.02530
1282.61563,0.02789
1280.68688,0.03075
1278.75814,0.03352
1276.82939,0.03589
1274.90065,0.03771
1272.97190,0.03893
1271.04316,0.03955
1269.11441,0.03965
1267.18567,0.03934
1265.25692,0.03879
1263.32818,0.03807
1261.39943,0.03718
1259.47069,0.03630
1257.54194,0.03563
1255.61320,0.03540
1253.68445,0.03574
1251.75570,0.03648
1249.82696,0.03720
1247.89821,0.03762
1245.96947,0.03767
1244.04072,0.03718
1242.11198,0.03619
1240.18323,0.03507
1238.25449,0.03420
1236.32574,0.03372
1234.39700,0.03357
1232.46825,0.03374
1230.53951,0.03430
1228.61076,0.03508
1226.68202,0.03564
1224.75327,0.03593
1222.82452,0.03661
1220.89578,0.03850
1218.96703,0.04180
1217.03829,0.04598
1215.10954,0.05005
1213.18080,0.05322
1211.25205,0.05554
1209.32331,0.05742
1207.39456,0.05906
1205.46582,0.06071
1203.53707,0.06268
1201.60833,0.06519
1199.67958,0.06847
1197.75084,0.07222
1195.82209,0.07570
1193.89335,0.07832
1191.96460,0.07965
1190.03585,0.07947
1188.10711,0.07784
1186.17836,0.07479
1184.24962,0.07027
1182.32087,0.06457
1180.39213,0.05843
1178.46338,0.05287
1176.53464,0.04859
1174.60589,0.04593
1172.67715,0.04503
1170.74840,0.04558
1168.81966,0.04669
1166.89091,0.04741
1164.96217,0.04714
1163.03342,0.04555
1161.10467,0.04288
1159.17593,0.03982
1157.24718,0.03679
1155.31844,0.03367
1153.38969,0.03031
1151.46095,0.02707
1149.53220,0.02432
1147.60346,0.02198
1145.67471,0.02003
1143.74597,0.01876
1141.81722,0.01808
1139.88848,0.01764
1137.95973,0.01736
1136.03099,0.01743
1134.10224,0.01824
1132.17350,0.02015
1130.24475,0.02284
1128.31600,0.02534
1126.38726,0.02693
1124.45851,0.02756
1122.52977,0.02757
1120.60102,0.02727
1118.67228,0.02681
1116.74353,0.02597
1114.81479,0.02492
1112.88604,0.02443
1110.95730,0.02478
1109.02855,0.02569
1107.09981,0.02699
1105.17106,0.02845
1103.24232,0.02961
1101.31357,0.03018
1099.38483,0.03017
1097.45608,0.02976
1095.52733,0.02937
1093.59859,0.02922
1091.66984,0.02887
1089.74110,0.02847
1087.81235,0.02862
1085.88361,0.02918
1083.95486,0.02992
1082.02612,0.03126
1080.09737,0.03375
1078.16863,0.03757
1076.23988,0.04260
1074.31114,0.04813
1072.38239,0.05322
1070.45365,0.05750
1068.52490,0.06092
1066.59615,0.06342
1064.66741,0.06502
1062.73866,0.06571
1060.80992,0.06525
1058.88117,0.06297
1056.95243,0.05868
1055.02368,0.05317
1053.09494,0.04707
1051.16619,0.04090
1049.23745,0.03565
1047.30870,0.03190
1045.37996,0.02965
1043.45121,0.02900
1041.52247,0.02968
1039.59372,0.03079
1037.66498,0.03182
1035.73623,0.03264
1033.80748,0.03304
1031.87874,0.03278
1029.94999,0.03158
1028.02125,0.02945
1026.09250,0.02722
1024.16376,0.02602
1022.23501,0.02600
1020.30627,0.02666
1018.37752,0.02831
1016.44878,0.03207
1014.52003,0.03938
1012.59129,0.05076
1010.66254,0.06514
1008.73380,0.08049
1006.80505,0.09456
1004.87631,0.10569
1002.94756,0.11336
1001.01881,0.11794
999.09007,0.12027
997.16132,0.12084
995.23258,0.11950
993.30383,0.11603
991.37509,0.11081
989.44634,0.10489
987.51760,0.09916
985.58885,0.09355
983.66011,0.08766
981.73136,0.08162
979.80262,0.07625
977.87387,0.07235
975.94513,0.07039
974.01638,0.07042
972.08763,0.07205
970.15889,0.07500
968.23014,0.07913
966.30140,0.08396
964.37265,0.08823
962.44391,0.09030
960.51516,0.08951
958.58642,0.08614
956.65767,0.08053
954.72893,0.07350
952.80018,0.06684
950.87144,0.06213
948.94269,0.06015
947.01395,0.06079
945.08520,0.06256
943.15646,0.06322
941.22771,0.06199
939.29896,0.06011
937.37022,0.05927
935.44147,0.06023
933.51273,0.06254
931.58398,0.06568
929.65524,0.06978
927.72649,0.07502
925.79775,0.08096
923.86900,0.08660
921.94026,0.09097
920.01151,0.09388
918.08277,0.09569
916.15402,0.09632
914.22528,0.09547
912.29653,0.09315
910.36779,0.08987
908.43904,0.08717
906.51029,0.08672
904.58155,0.08839
902.65280,0.09081
900.72406,0.09347
898.79531,0.09649
896.86657,0.09964
894.93782,0.10264
893.00908,0.10479
891.08033,0.10504
889.15159,0.10288
887.22284,0.09780
885.29410,0.08908
883.36535,0.07730
881.43661,0.06432
879.50786,0.05231
877.57911,0.04291
875.65037,0.03659
873.72162,0.03339
871.79288,0.03531
869.86413,0.04514
867.93539,0.06113
866.00664,0.07657
864.07790,0.08606
862.14915,0.08872
860.22041,0.08623
858.29166,0.08109
856.36292,0.07577
854.43417,0.07183
852.50543,0.06968
850.57668,0.06882
848.64794,0.06871
846.71919,0.06973
844.79044,0.07245
842.86170,0.07686
840.93295,0.08277
839.00421,0.08947
837.07546,0.09555
835.14672,0.10030
833.21797,0.10421
831.28923,0.10733
829.36048,0.10880
827.43174,0.10832
825.50299,0.10680
823.57425,0.10561
821.64550,0.10564
819.71676,0.10672
817.78801,0.10799
815.85926,0.10883
813.93052,0.10930
812.00177,0.10973
810.07303,0.11026
808.14428,0.11127
806.21554,0.11320
804.28679,0.11557
802.35805,0.11597
800.42930,0.11050
798.50056,0.09818
796.57181,0.08534
794.64307,0.08129
792.71432,0.08898
790.78558,0.10316
788.85683,0.11703
786.92809,0.12709
784.99934,0.13285
783.07059,0.13481
781.14185,0.13340
779.21310,0.12928
777.28436,0.12417
775.35561,0.12047
773.42687,0.11960
771.49812,0.12107
769.56938,0.12365
767.64063,0.12625
765.71189,0.12789
763.78314,0.12809
761.85440,0.12706
759.92565,0.12522
757.99691,0.12286
756.06816,0.11989
754.13942,0.11587
752.21067,0.11034
750.28192,0.10253
748.35318,0.09198
746.42443,0.07879
744.49569,0.06346
742.56694,0.04751
740.63820,0.03359
738.70945,0.02404
736.78071,0.01939
734.85196,0.01875
732.92322,0.02086
730.99447,0.02434
729.06573,0.02796
727.13698,0.03096
725.20824,0.03292
723.27949,0.03520
721.35074,0.04157
719.42200,0.05402
717.49325,0.07014
715.56451,0.08589
713.63576,0.09830
711.70702,0.10576
709.77827,0.10844
707.84953,0.10878
705.92078,0.11030
703.99204,0.11629
702.06329,0.12831
700.13455,0.14433
698.20580,0.16006
696.27706,0.17252
694.34831,0.18132
692.41957,0.18714
690.49082,0.19036
688.56207,0.19050
686.63333,0.18723
684.70458,0.18142
682.77584,0.17559
680.84709,0.17313
678.91835,0.17611
676.98960,0.18299
675.06086,0.18991
673.13211,0.19489
671.20337,0.19852
669.27462,0.20181
667.34588,0.20536
665.41713,0.20844
663.48839,0.21018
661.55964,0.21124
659.63090,0.21222
657.70215,0.21304
655.77340,0.21414
653.84466,0.21562
651.91591,0.21697
649.98717,0.21810
648.05842,0.21915
646.12968,0.22003
644.20093,0.22048
642.27219,0.22070
640.34344,0.22072
638.41470,0.21809
636.48595,0.20818
634.55721,0.19088
632.62846,0.17916
630.69972,0.18654
628.77097,0.20532
626.84222,0.21961
624.91348,0.22649
622.98473,0.23041
621.05599,0.23370
619.12724,0.23635
617.19850,0.23759
615.26975,0.23788
613.34101,0.23821
611.41226,0.23886
609.48352,0.23966
607.55477,0.24002
605.62603,0.23990
603.69728,0.23999
601.76854,0.24019
599.83979,0.24013
